#wls	flux	fluxerr
1.600000E+03	1.022581E-17	4.069002E-18
1.640000E+03	1.052806E-17	4.160747E-18
1.680000E+03	1.084272E-17	4.255239E-18
1.720000E+03	1.116837E-17	4.351769E-18
1.760000E+03	1.150540E-17	4.450347E-18
1.800000E+03	1.185423E-17	4.550987E-18
1.840000E+03	1.221745E-17	4.654517E-18
1.880000E+03	1.259348E-17	4.760154E-18
1.920000E+03	1.298282E-17	4.867908E-18
1.960000E+03	1.338594E-17	4.977776E-18
2.000000E+03	1.380580E-17	5.090655E-18
2.040000E+03	1.424069E-17	5.205687E-18
2.080000E+03	1.469117E-17	5.322869E-18
2.120000E+03	1.515786E-17	5.442193E-18
2.160000E+03	1.564413E-17	5.564625E-18
2.200000E+03	1.614810E-17	5.689216E-18
2.240000E+03	1.667048E-17	5.815956E-18
2.280000E+03	1.721502E-17	5.945862E-18
2.320000E+03	1.777970E-17	6.077919E-18
2.360000E+03	1.836539E-17	6.212107E-18
2.400000E+03	1.897298E-17	6.348396E-18
2.440000E+03	1.960678E-17	6.487874E-18
2.480000E+03	2.026462E-17	6.629429E-18
2.520000E+03	2.095117E-17	6.774182E-18
2.560000E+03	2.166046E-17	6.919785E-18
2.600000E+03	2.240099E-17	7.068528E-18
2.640000E+03	2.317042E-17	7.219187E-18
2.680000E+03	2.397416E-17	7.372951E-18
2.720000E+03	2.480979E-17	7.528527E-18
2.760000E+03	2.567879E-17	7.685826E-18
2.800000E+03	2.658721E-17	7.846066E-18
2.840000E+03	2.752784E-17	8.006500E-18
2.880000E+03	2.851157E-17	8.169671E-18
2.920000E+03	2.954065E-17	8.335491E-18
2.960000E+03	3.060722E-17	8.501011E-18
3.000000E+03	3.172336E-17	8.668850E-18
3.010000E+03	3.201093E-17	8.711288E-18
3.020000E+03	3.230148E-17	8.753771E-18
3.030000E+03	3.259504E-17	8.796292E-18
3.040000E+03	3.288614E-17	8.837371E-18
3.050000E+03	3.318576E-17	8.879949E-18
3.060000E+03	3.348848E-17	8.922552E-18
3.070000E+03	3.379435E-17	8.965176E-18
3.080000E+03	3.410339E-17	9.007815E-18
3.090000E+03	3.441563E-17	9.050464E-18
3.100000E+03	3.473112E-17	9.093118E-18
3.110000E+03	3.504990E-17	9.135774E-18
3.120000E+03	3.536612E-17	9.176901E-18
3.130000E+03	3.569152E-17	9.219536E-18
3.140000E+03	3.602030E-17	9.262152E-18
3.150000E+03	3.635250E-17	9.304746E-18
3.160000E+03	3.668816E-17	9.347312E-18
3.170000E+03	3.702732E-17	9.389844E-18
3.180000E+03	3.737000E-17	9.432332E-18
3.190000E+03	3.771626E-17	9.474773E-18
3.200000E+03	3.807240E-17	9.518728E-18
3.210000E+03	3.842596E-17	9.561058E-18
3.220000E+03	3.878321E-17	9.603318E-18
3.230000E+03	3.914416E-17	9.645499E-18
3.240000E+03	3.950887E-17	9.687595E-18
3.250000E+03	3.987736E-17	9.729598E-18
3.260000E+03	4.024968E-17	9.771499E-18
3.270000E+03	4.062587E-17	9.813289E-18
3.280000E+03	4.101268E-17	9.856579E-18
3.290000E+03	4.139676E-17	9.898127E-18
3.300000E+03	4.178480E-17	9.939536E-18
3.310000E+03	4.217686E-17	9.980801E-18
3.320000E+03	4.257296E-17	1.002191E-17
3.330000E+03	4.298018E-17	1.006449E-17
3.340000E+03	4.338453E-17	1.010526E-17
3.350000E+03	4.379303E-17	1.014583E-17
3.360000E+03	4.420573E-17	1.018621E-17
3.370000E+03	4.462991E-17	1.022804E-17
3.380000E+03	4.505115E-17	1.026799E-17
3.390000E+03	4.547666E-17	1.030770E-17
3.400000E+03	4.591397E-17	1.034885E-17
3.410000E+03	4.634822E-17	1.038807E-17
3.420000E+03	4.678687E-17	1.042700E-17
3.430000E+03	4.723759E-17	1.046735E-17
3.440000E+03	4.768516E-17	1.050571E-17
3.450000E+03	4.813721E-17	1.054375E-17
3.460000E+03	4.860164E-17	1.058318E-17
3.470000E+03	4.906280E-17	1.062055E-17
3.480000E+03	4.952852E-17	1.065757E-17
3.490000E+03	5.000691E-17	1.069594E-17
3.500000E+03	5.048190E-17	1.073219E-17
3.510000E+03	5.096977E-17	1.076978E-17
3.520000E+03	5.145414E-17	1.080521E-17
3.530000E+03	5.195158E-17	1.084195E-17
3.540000E+03	5.244541E-17	1.087649E-17
3.550000E+03	5.294397E-17	1.091055E-17
3.560000E+03	5.345588E-17	1.094589E-17
3.570000E+03	5.396403E-17	1.097895E-17
3.580000E+03	5.448570E-17	1.101325E-17
3.590000E+03	5.500350E-17	1.104523E-17
3.600000E+03	5.553500E-17	1.107843E-17
3.610000E+03	5.606249E-17	1.110925E-17
3.620000E+03	5.660387E-17	1.114125E-17
3.630000E+03	5.714109E-17	1.117084E-17
3.640000E+03	5.769237E-17	1.120157E-17
3.650000E+03	5.823935E-17	1.122983E-17
3.660000E+03	5.880056E-17	1.125920E-17
3.670000E+03	5.935729E-17	1.128605E-17
3.680000E+03	5.992842E-17	1.131396E-17
3.690000E+03	6.049490E-17	1.133930E-17
3.700000E+03	6.107592E-17	1.136567E-17
3.710000E+03	6.165211E-17	1.138941E-17
3.720000E+03	6.224300E-17	1.141413E-17
3.730000E+03	6.282884E-17	1.143617E-17
3.740000E+03	6.342952E-17	1.145914E-17
3.750000E+03	6.403511E-17	1.148120E-17
3.760000E+03	6.463533E-17	1.150051E-17
3.770000E+03	6.525058E-17	1.152067E-17
3.780000E+03	6.586021E-17	1.153802E-17
3.790000E+03	6.648499E-17	1.155617E-17
3.800000E+03	6.710390E-17	1.157145E-17
3.810000E+03	6.773806E-17	1.158749E-17
3.820000E+03	6.836608E-17	1.160060E-17
3.830000E+03	6.900943E-17	1.161441E-17
3.840000E+03	6.964635E-17	1.162523E-17
3.850000E+03	7.029868E-17	1.163670E-17
3.860000E+03	7.095546E-17	1.164696E-17
3.870000E+03	7.160536E-17	1.165414E-17
3.880000E+03	7.227073E-17	1.166188E-17
3.890000E+03	7.292889E-17	1.166649E-17
3.900000E+03	7.360257E-17	1.167160E-17
3.910000E+03	7.426867E-17	1.167353E-17
3.920000E+03	7.495033E-17	1.167590E-17
3.930000E+03	7.562403E-17	1.167502E-17
3.940000E+03	7.631327E-17	1.167452E-17
3.950000E+03	7.699416E-17	1.167073E-17
3.960000E+03	7.769059E-17	1.166726E-17
3.970000E+03	7.837824E-17	1.166043E-17
3.980000E+03	7.908139E-17	1.165387E-17
3.990000E+03	7.977532E-17	1.164390E-17
4.000000E+03	8.048471E-17	1.163414E-17
4.010000E+03	8.118441E-17	1.162092E-17
4.020000E+03	8.189947E-17	1.160784E-17
4.030000E+03	8.260436E-17	1.159126E-17
4.040000E+03	8.332453E-17	1.157477E-17
4.050000E+03	8.403400E-17	1.155473E-17
4.060000E+03	8.475863E-17	1.153471E-17
4.070000E+03	8.547203E-17	1.151111E-17
4.080000E+03	8.620045E-17	1.148748E-17
4.090000E+03	8.691707E-17	1.146023E-17
4.100000E+03	8.763496E-17	1.143112E-17
4.110000E+03	8.836763E-17	1.140191E-17
4.120000E+03	8.908760E-17	1.136903E-17
4.130000E+03	8.982213E-17	1.133599E-17
4.140000E+03	9.054335E-17	1.129926E-17
4.150000E+03	9.126481E-17	1.126059E-17
4.160000E+03	9.200049E-17	1.122170E-17
4.170000E+03	9.272188E-17	1.117910E-17
4.180000E+03	9.345723E-17	1.113623E-17
4.190000E+03	9.417759E-17	1.108965E-17
4.200000E+03	9.489703E-17	1.104108E-17
4.210000E+03	9.562998E-17	1.099219E-17
4.220000E+03	9.634690E-17	1.093960E-17
4.230000E+03	9.706210E-17	1.088500E-17
4.240000E+03	9.777534E-17	1.082839E-17
4.250000E+03	9.850142E-17	1.077143E-17
4.260000E+03	9.920999E-17	1.071081E-17
4.270000E+03	9.991573E-17	1.064820E-17
4.280000E+03	1.006184E-16	1.058361E-17
4.290000E+03	1.013331E-16	1.051866E-17
4.300000E+03	1.020288E-16	1.045014E-17
4.310000E+03	1.027205E-16	1.037969E-17
4.320000E+03	1.034078E-16	1.030733E-17
4.330000E+03	1.040906E-16	1.023308E-17
4.340000E+03	1.047685E-16	1.015697E-17
4.350000E+03	1.054572E-16	1.008057E-17
4.360000E+03	1.061243E-16	1.000084E-17
4.370000E+03	1.067856E-16	9.919348E-18
4.380000E+03	1.074407E-16	9.836152E-18
4.390000E+03	1.080892E-16	9.751294E-18
4.400000E+03	1.087310E-16	9.664827E-18
4.410000E+03	1.093655E-16	9.576804E-18
4.420000E+03	1.099926E-16	9.487289E-18
4.430000E+03	1.106117E-16	9.396334E-18
4.440000E+03	1.112227E-16	9.304025E-18
4.450000E+03	1.118252E-16	9.210427E-18
4.460000E+03	1.124190E-16	9.115626E-18
4.470000E+03	1.130034E-16	9.019689E-18
4.480000E+03	1.135785E-16	8.922721E-18
4.490000E+03	1.141437E-16	8.824815E-18
4.500000E+03	1.146813E-16	8.724740E-18
4.510000E+03	1.152258E-16	8.625267E-18
4.520000E+03	1.157595E-16	8.525172E-18
4.530000E+03	1.162821E-16	8.424570E-18
4.540000E+03	1.167932E-16	8.323583E-18
4.550000E+03	1.172748E-16	8.221101E-18
4.560000E+03	1.177621E-16	8.119762E-18
4.570000E+03	1.182368E-16	8.018431E-18
4.580000E+03	1.186989E-16	7.917277E-18
4.590000E+03	1.191300E-16	7.815270E-18
4.600000E+03	1.195656E-16	7.714928E-18
4.610000E+03	1.199876E-16	7.615236E-18
4.620000E+03	1.203776E-16	7.515236E-18
4.630000E+03	1.207714E-16	7.417373E-18
4.640000E+03	1.211324E-16	7.319585E-18
4.650000E+03	1.214967E-16	7.224266E-18
4.660000E+03	1.218277E-16	7.129431E-18
4.670000E+03	1.221613E-16	7.037418E-18
4.680000E+03	1.224609E-16	6.946308E-18
4.690000E+03	1.227628E-16	6.858392E-18
4.700000E+03	1.230300E-16	6.771809E-18
4.710000E+03	1.232989E-16	6.688786E-18
4.720000E+03	1.235325E-16	6.607517E-18
4.730000E+03	1.237673E-16	6.530192E-18
4.740000E+03	1.239661E-16	6.455034E-18
4.750000E+03	1.241473E-16	6.383228E-18
4.760000E+03	1.243104E-16	6.314954E-18
4.770000E+03	1.244740E-16	6.251326E-18
4.780000E+03	1.246006E-16	6.190630E-18
4.790000E+03	1.247087E-16	6.133968E-18
4.800000E+03	1.247983E-16	6.081491E-18
4.810000E+03	1.248878E-16	6.034179E-18
4.820000E+03	1.249402E-16	5.990176E-18
4.830000E+03	1.249742E-16	5.950264E-18
4.840000E+03	1.249901E-16	5.914327E-18
4.850000E+03	1.249880E-16	5.882205E-18
4.860000E+03	1.249682E-16	5.853753E-18
4.870000E+03	1.249308E-16	5.828791E-18
4.880000E+03	1.248762E-16	5.807145E-18
4.890000E+03	1.248046E-16	5.788632E-18
4.900000E+03	1.247161E-16	5.773041E-18
4.910000E+03	1.246112E-16	5.760188E-18
4.920000E+03	1.244900E-16	5.749856E-18
4.930000E+03	1.243528E-16	5.741846E-18
4.940000E+03	1.241998E-16	5.735950E-18
4.950000E+03	1.240131E-16	5.731113E-18
4.960000E+03	1.238294E-16	5.728825E-18
4.970000E+03	1.236309E-16	5.728042E-18
4.980000E+03	1.234177E-16	5.728568E-18
4.990000E+03	1.231719E-16	5.729368E-18
5.000000E+03	1.229304E-16	5.731953E-18
5.010000E+03	1.226750E-16	5.735296E-18
5.020000E+03	1.223881E-16	5.738391E-18
5.030000E+03	1.221061E-16	5.742761E-18
5.040000E+03	1.218114E-16	5.747422E-18
5.050000E+03	1.214863E-16	5.751379E-18
5.060000E+03	1.211668E-16	5.756187E-18
5.070000E+03	1.208177E-16	5.760038E-18
5.080000E+03	1.204750E-16	5.764508E-18
5.090000E+03	1.201033E-16	5.767797E-18
5.100000E+03	1.197386E-16	5.771506E-18
5.110000E+03	1.193458E-16	5.773850E-18
5.120000E+03	1.189431E-16	5.775602E-18
5.130000E+03	1.185480E-16	5.777531E-18
5.140000E+03	1.181263E-16	5.777894E-18
5.150000E+03	1.176955E-16	5.777471E-18
5.160000E+03	1.172562E-16	5.776224E-18
5.170000E+03	1.168258E-16	5.774963E-18
5.180000E+03	1.163704E-16	5.771958E-18
5.190000E+03	1.159074E-16	5.768031E-18
5.200000E+03	1.154374E-16	5.763171E-18
5.210000E+03	1.149607E-16	5.757360E-18
5.220000E+03	1.144776E-16	5.750596E-18
5.230000E+03	1.140051E-16	5.743712E-18
5.240000E+03	1.135103E-16	5.735043E-18
5.250000E+03	1.130102E-16	5.725427E-18
5.260000E+03	1.125052E-16	5.714887E-18
5.270000E+03	1.119955E-16	5.703435E-18
5.280000E+03	1.114818E-16	5.691103E-18
5.290000E+03	1.109480E-16	5.677080E-18
5.300000E+03	1.104269E-16	5.663056E-18
5.310000E+03	1.099027E-16	5.648237E-18
5.320000E+03	1.093758E-16	5.632656E-18
5.330000E+03	1.088463E-16	5.616351E-18
5.340000E+03	1.083146E-16	5.599356E-18
5.350000E+03	1.077654E-16	5.580909E-18
5.360000E+03	1.072305E-16	5.562679E-18
5.370000E+03	1.066944E-16	5.543899E-18
5.380000E+03	1.061419E-16	5.523802E-18
5.390000E+03	1.056043E-16	5.504054E-18
5.400000E+03	1.050664E-16	5.483891E-18
5.410000E+03	1.045132E-16	5.462567E-18
5.420000E+03	1.039756E-16	5.441729E-18
5.430000E+03	1.034235E-16	5.419836E-18
5.440000E+03	1.028871E-16	5.398510E-18
5.450000E+03	1.023370E-16	5.376233E-18
5.460000E+03	1.018031E-16	5.354614E-18
5.470000E+03	1.012562E-16	5.332097E-18
5.480000E+03	1.007259E-16	5.310196E-18
5.490000E+03	1.001834E-16	5.287342E-18
5.500000E+03	9.964388E-17	5.264287E-18
5.510000E+03	9.912214E-17	5.241767E-18
5.520000E+03	9.858959E-17	5.218228E-18
5.530000E+03	9.806131E-17	5.194424E-18
5.540000E+03	9.755173E-17	5.171079E-18
5.550000E+03	9.703288E-17	5.146672E-18
5.560000E+03	9.651951E-17	5.121948E-18
5.570000E+03	9.601196E-17	5.096889E-18
5.580000E+03	9.551063E-17	5.071483E-18
5.590000E+03	9.502967E-17	5.046449E-18
5.600000E+03	9.454190E-17	5.020314E-18
5.610000E+03	9.406140E-17	4.993798E-18
5.620000E+03	9.358855E-17	4.966894E-18
5.630000E+03	9.312377E-17	4.939600E-18
5.640000E+03	9.266733E-17	4.911907E-18
5.650000E+03	9.221953E-17	4.883808E-18
5.660000E+03	9.178075E-17	4.855305E-18
5.670000E+03	9.135128E-17	4.826394E-18
5.680000E+03	9.093136E-17	4.797070E-18
5.690000E+03	9.052132E-17	4.767335E-18
5.700000E+03	9.010838E-17	4.736502E-18
5.710000E+03	8.971897E-17	4.705948E-18
5.720000E+03	8.934027E-17	4.674987E-18
5.730000E+03	8.897251E-17	4.643619E-18
5.740000E+03	8.861598E-17	4.611849E-18
5.750000E+03	8.825815E-17	4.579018E-18
5.760000E+03	8.792487E-17	4.546461E-18
5.770000E+03	8.760355E-17	4.513517E-18
5.780000E+03	8.729446E-17	4.480191E-18
5.790000E+03	8.698525E-17	4.445848E-18
5.800000E+03	8.670136E-17	4.411786E-18
5.810000E+03	8.641791E-17	4.376733E-18
5.820000E+03	8.616016E-17	4.341968E-18
5.830000E+03	8.591583E-17	4.306862E-18
5.840000E+03	8.567276E-17	4.270810E-18
5.850000E+03	8.545597E-17	4.235059E-18
5.860000E+03	8.524098E-17	4.198394E-18
5.870000E+03	8.505269E-17	4.162045E-18
5.880000E+03	8.486672E-17	4.124816E-18
5.890000E+03	8.470785E-17	4.087919E-18
5.900000E+03	8.455182E-17	4.050180E-18
5.910000E+03	8.441114E-17	4.012213E-18
5.920000E+03	8.429819E-17	3.974606E-18
5.930000E+03	8.418887E-17	3.936223E-18
5.940000E+03	8.409561E-17	3.897664E-18
5.950000E+03	8.403077E-17	3.859503E-18
5.960000E+03	8.397033E-17	3.820644E-18
5.970000E+03	8.392667E-17	3.781670E-18
5.980000E+03	8.391217E-17	3.743148E-18
5.990000E+03	8.390285E-17	3.704015E-18
6.000000E+03	8.391108E-17	3.664849E-18
6.010000E+03	8.393712E-17	3.625679E-18
6.020000E+03	8.398124E-17	3.586538E-18
6.030000E+03	8.405582E-17	3.547975E-18
6.040000E+03	8.413689E-17	3.509000E-18
6.050000E+03	8.423684E-17	3.470173E-18
6.060000E+03	8.435593E-17	3.431542E-18
6.070000E+03	8.449445E-17	3.393157E-18
6.080000E+03	8.465265E-17	3.355075E-18
6.090000E+03	8.483083E-17	3.317355E-18
6.100000E+03	8.502924E-17	3.280066E-18
6.110000E+03	8.524818E-17	3.243280E-18
6.120000E+03	8.548789E-17	3.207076E-18
6.130000E+03	8.574865E-17	3.171540E-18
6.140000E+03	8.603074E-17	3.136769E-18
6.150000E+03	8.633440E-17	3.102863E-18
6.160000E+03	8.665990E-17	3.069935E-18
6.170000E+03	8.700749E-17	3.038106E-18
6.180000E+03	8.737744E-17	3.007507E-18
6.190000E+03	8.776998E-17	2.978280E-18
6.200000E+03	8.817263E-17	2.950151E-18
6.210000E+03	8.861104E-17	2.924139E-18
6.220000E+03	8.907281E-17	2.899990E-18
6.230000E+03	8.955819E-17	2.877888E-18
6.240000E+03	9.006747E-17	2.858031E-18
6.250000E+03	9.058785E-17	2.840216E-18
6.260000E+03	9.114568E-17	2.825480E-18
6.270000E+03	9.172833E-17	2.813636E-18
6.280000E+03	9.233578E-17	2.804904E-18
6.290000E+03	9.295458E-17	2.799104E-18
6.300000E+03	9.361089E-17	2.797225E-18
6.310000E+03	9.429088E-17	2.798902E-18
6.320000E+03	9.497984E-17	2.803703E-18
6.330000E+03	9.570449E-17	2.812416E-18
6.340000E+03	9.643633E-17	2.824196E-18
6.350000E+03	9.720220E-17	2.839817E-18
6.360000E+03	9.798742E-17	2.858831E-18
6.370000E+03	9.877679E-17	2.880778E-18
6.380000E+03	9.959761E-17	2.906433E-18
6.390000E+03	1.004201E-16	2.934903E-18
6.400000E+03	1.012722E-16	2.966980E-18
6.410000E+03	1.021235E-16	3.001755E-18
6.420000E+03	1.030020E-16	3.040027E-18
6.430000E+03	1.038771E-16	3.080871E-18
6.440000E+03	1.047771E-16	3.125110E-18
6.450000E+03	1.056705E-16	3.171791E-18
6.460000E+03	1.065710E-16	3.221309E-18
6.470000E+03	1.074925E-16	3.274080E-18
6.480000E+03	1.084026E-16	3.329115E-18
6.490000E+03	1.093308E-16	3.387320E-18
6.500000E+03	1.102443E-16	3.447684E-18
6.510000E+03	1.111570E-16	3.510641E-18
6.520000E+03	1.120835E-16	3.576668E-18
6.530000E+03	1.129898E-16	3.644702E-18
6.540000E+03	1.138905E-16	3.715220E-18
6.550000E+03	1.148005E-16	3.788730E-18
6.560000E+03	1.156851E-16	3.864121E-18
6.570000E+03	1.165596E-16	3.941908E-18
6.580000E+03	1.174227E-16	4.022071E-18
6.590000E+03	1.182907E-16	4.105198E-18
6.600000E+03	1.191285E-16	4.190103E-18
6.610000E+03	1.199527E-16	4.277286E-18
6.620000E+03	1.207629E-16	4.366578E-18
6.630000E+03	1.215587E-16	4.457799E-18
6.640000E+03	1.223574E-16	4.551435E-18
6.650000E+03	1.231234E-16	4.645998E-18
6.660000E+03	1.238738E-16	4.741950E-18
6.670000E+03	1.246084E-16	4.839116E-18
6.680000E+03	1.253267E-16	4.937309E-18
6.690000E+03	1.260286E-16	5.036359E-18
6.700000E+03	1.267136E-16	5.136083E-18
6.710000E+03	1.273814E-16	5.236305E-18
6.720000E+03	1.280318E-16	5.336861E-18
6.730000E+03	1.286645E-16	5.437572E-18
6.740000E+03	1.292980E-16	5.539083E-18
6.750000E+03	1.298945E-16	5.639635E-18
6.760000E+03	1.304727E-16	5.739859E-18
6.770000E+03	1.310321E-16	5.839594E-18
6.780000E+03	1.315726E-16	5.938694E-18
6.790000E+03	1.320749E-16	6.036132E-18
6.800000E+03	1.325771E-16	6.133501E-18
6.810000E+03	1.330598E-16	6.229800E-18
6.820000E+03	1.335229E-16	6.324883E-18
6.830000E+03	1.339665E-16	6.418635E-18
6.840000E+03	1.343902E-16	6.510911E-18
6.850000E+03	1.347939E-16	6.601592E-18
6.860000E+03	1.351777E-16	6.690558E-18
6.870000E+03	1.355415E-16	6.777695E-18
6.880000E+03	1.358852E-16	6.862894E-18
6.890000E+03	1.361890E-16	6.945030E-18
6.900000E+03	1.364923E-16	7.026006E-18
6.910000E+03	1.367755E-16	7.104734E-18
6.920000E+03	1.370385E-16	7.181114E-18
6.930000E+03	1.372816E-16	7.255061E-18
6.940000E+03	1.374844E-16	7.325410E-18
6.950000E+03	1.376872E-16	7.394214E-18
6.960000E+03	1.378699E-16	7.460327E-18
6.970000E+03	1.380329E-16	7.523692E-18
6.980000E+03	1.381559E-16	7.583117E-18
6.990000E+03	1.382792E-16	7.640745E-18
7.000000E+03	1.383830E-16	7.695425E-18
7.010000E+03	1.384673E-16	7.747091E-18
7.020000E+03	1.385121E-16	7.794560E-18
7.030000E+03	1.385579E-16	7.840040E-18
7.040000E+03	1.385846E-16	7.882365E-18
7.050000E+03	1.385722E-16	7.920338E-18
7.060000E+03	1.385614E-16	7.956225E-18
7.070000E+03	1.385119E-16	7.987680E-18
7.080000E+03	1.384643E-16	8.017001E-18
7.090000E+03	1.383984E-16	8.042993E-18
7.100000E+03	1.382946E-16	8.064471E-18
7.110000E+03	1.381932E-16	8.083753E-18
7.120000E+03	1.380542E-16	8.098482E-18
7.130000E+03	1.379181E-16	8.111005E-18
7.140000E+03	1.377449E-16	8.118951E-18
7.150000E+03	1.375751E-16	8.124686E-18
7.160000E+03	1.373687E-16	8.125842E-18
7.170000E+03	1.371661E-16	8.124787E-18
7.180000E+03	1.369275E-16	8.119159E-18
7.190000E+03	1.366931E-16	8.111346E-18
7.200000E+03	1.364233E-16	8.098986E-18
7.210000E+03	1.361584E-16	8.084471E-18
7.220000E+03	1.358586E-16	8.065451E-18
7.230000E+03	1.355639E-16	8.044307E-18
7.240000E+03	1.352352E-16	8.018721E-18
7.250000E+03	1.348924E-16	7.989891E-18
7.260000E+03	1.345555E-16	7.959023E-18
7.270000E+03	1.341854E-16	7.923810E-18
7.280000E+03	1.338022E-16	7.885468E-18
7.290000E+03	1.334257E-16	7.845190E-18
7.300000E+03	1.330169E-16	7.800708E-18
7.310000E+03	1.325958E-16	7.753224E-18
7.320000E+03	1.321821E-16	7.703920E-18
7.330000E+03	1.317373E-16	7.650588E-18
7.340000E+03	1.312809E-16	7.594405E-18
7.350000E+03	1.308327E-16	7.536553E-18
7.360000E+03	1.303543E-16	7.474856E-18
7.370000E+03	1.298655E-16	7.410504E-18
7.380000E+03	1.293662E-16	7.343550E-18
7.390000E+03	1.288570E-16	7.274072E-18
7.400000E+03	1.283570E-16	7.203198E-18
7.410000E+03	1.278287E-16	7.128878E-18
7.420000E+03	1.272912E-16	7.052246E-18
7.430000E+03	1.267447E-16	6.973385E-18
7.440000E+03	1.261898E-16	6.892384E-18
7.450000E+03	1.256266E-16	6.809327E-18
7.460000E+03	1.250737E-16	6.725286E-18
7.470000E+03	1.244947E-16	6.638371E-18
7.480000E+03	1.239081E-16	6.549664E-18
7.490000E+03	1.233144E-16	6.459275E-18
7.500000E+03	1.227137E-16	6.367299E-18
7.510000E+03	1.221062E-16	6.273841E-18
7.520000E+03	1.214925E-16	6.179022E-18
7.530000E+03	1.208725E-16	6.082943E-18
7.540000E+03	1.202466E-16	5.985729E-18
7.550000E+03	1.196151E-16	5.887500E-18
7.560000E+03	1.189782E-16	5.788393E-18
7.570000E+03	1.183361E-16	5.688527E-18
7.580000E+03	1.176892E-16	5.588055E-18
7.590000E+03	1.170376E-16	5.487117E-18
7.600000E+03	1.163815E-16	5.385865E-18
7.610000E+03	1.157213E-16	5.284465E-18
7.620000E+03	1.150571E-16	5.183080E-18
7.630000E+03	1.143892E-16	5.081886E-18
7.640000E+03	1.137010E-16	4.980337E-18
7.650000E+03	1.130263E-16	4.880108E-18
7.660000E+03	1.123486E-16	4.780662E-18
7.670000E+03	1.116681E-16	4.682208E-18
7.680000E+03	1.109850E-16	4.584980E-18
7.690000E+03	1.102995E-16	4.489213E-18
7.700000E+03	1.095954E-16	4.394507E-18
7.710000E+03	1.089057E-16	4.302441E-18
7.720000E+03	1.082142E-16	4.212631E-18
7.730000E+03	1.075210E-16	4.125366E-18
7.740000E+03	1.068264E-16	4.040947E-18
7.750000E+03	1.061148E-16	3.959099E-18
7.760000E+03	1.054181E-16	3.881335E-18
