#wls	flux	fluxerr
1.600000E+03	1.137726E-17	4.649149E-18
1.640000E+03	1.171473E-17	4.754089E-18
1.680000E+03	1.206349E-17	4.861120E-18
1.720000E+03	1.242391E-17	4.970236E-18
1.760000E+03	1.279863E-17	5.082320E-18
1.800000E+03	1.318591E-17	5.196504E-18
1.840000E+03	1.358617E-17	5.312775E-18
1.880000E+03	1.400229E-17	5.432067E-18
1.920000E+03	1.443240E-17	5.553442E-18
1.960000E+03	1.487699E-17	5.676882E-18
2.000000E+03	1.533921E-17	5.803367E-18
2.040000E+03	1.581706E-17	5.931896E-18
2.080000E+03	1.631109E-17	6.062436E-18
2.120000E+03	1.682478E-17	6.196020E-18
2.160000E+03	1.735598E-17	6.331578E-18
2.200000E+03	1.790841E-17	6.470180E-18
2.240000E+03	1.847985E-17	6.610705E-18
2.280000E+03	1.907098E-17	6.753098E-18
2.320000E+03	1.968595E-17	6.898492E-18
2.360000E+03	2.032238E-17	7.045685E-18
2.400000E+03	2.098108E-17	7.194611E-18
2.440000E+03	2.166667E-17	7.346460E-18
2.480000E+03	2.238040E-17	7.501224E-18
2.520000E+03	2.311974E-17	7.657601E-18
2.560000E+03	2.388574E-17	7.815506E-18
2.600000E+03	2.467957E-17	7.974852E-18
2.640000E+03	2.551103E-17	8.138286E-18
2.680000E+03	2.636892E-17	8.301667E-18
2.720000E+03	2.726335E-17	8.467653E-18
2.760000E+03	2.819151E-17	8.634751E-18
2.800000E+03	2.915981E-17	8.804304E-18
2.840000E+03	3.017036E-17	8.976237E-18
2.880000E+03	3.121508E-17	9.147448E-18
2.920000E+03	3.230601E-17	9.320762E-18
2.960000E+03	3.344560E-17	9.496062E-18
3.000000E+03	3.463080E-17	9.671625E-18
3.010000E+03	3.493448E-17	9.715529E-18
3.020000E+03	3.524118E-17	9.759432E-18
3.030000E+03	3.555094E-17	9.803328E-18
3.040000E+03	3.586380E-17	9.847213E-18
3.050000E+03	3.617978E-17	9.891083E-18
3.060000E+03	3.649893E-17	9.934933E-18
3.070000E+03	3.682728E-17	9.980385E-18
3.080000E+03	3.715293E-17	1.002419E-17
3.090000E+03	3.748186E-17	1.006796E-17
3.100000E+03	3.781409E-17	1.011169E-17
3.110000E+03	3.815589E-17	1.015703E-17
3.120000E+03	3.849493E-17	1.020067E-17
3.130000E+03	3.883741E-17	1.024426E-17
3.140000E+03	3.918970E-17	1.028945E-17
3.150000E+03	3.953922E-17	1.033292E-17
3.160000E+03	3.989230E-17	1.037632E-17
3.170000E+03	4.025546E-17	1.042131E-17
3.180000E+03	4.061583E-17	1.046455E-17
3.190000E+03	4.098646E-17	1.050939E-17
3.200000E+03	4.135427E-17	1.055245E-17
3.210000E+03	4.173254E-17	1.059710E-17
3.220000E+03	4.210797E-17	1.063994E-17
3.230000E+03	4.249406E-17	1.068438E-17
3.240000E+03	4.287726E-17	1.072697E-17
3.250000E+03	4.327134E-17	1.077116E-17
3.260000E+03	4.366950E-17	1.081522E-17
3.270000E+03	4.406473E-17	1.085740E-17
3.280000E+03	4.447113E-17	1.090116E-17
3.290000E+03	4.487458E-17	1.094301E-17
3.300000E+03	4.528939E-17	1.098644E-17
3.310000E+03	4.570851E-17	1.102969E-17
3.320000E+03	4.613198E-17	1.107275E-17
3.330000E+03	4.655243E-17	1.111384E-17
3.340000E+03	4.698466E-17	1.115649E-17
3.350000E+03	4.742137E-17	1.119893E-17
3.360000E+03	4.786261E-17	1.124113E-17
3.370000E+03	4.830841E-17	1.128309E-17
3.380000E+03	4.875111E-17	1.132300E-17
3.390000E+03	4.920612E-17	1.136444E-17
3.400000E+03	4.966581E-17	1.140561E-17
3.410000E+03	5.013025E-17	1.144648E-17
3.420000E+03	5.059948E-17	1.148705E-17
3.430000E+03	5.107352E-17	1.152730E-17
3.440000E+03	5.155243E-17	1.156723E-17
3.450000E+03	5.203625E-17	1.160681E-17
3.460000E+03	5.252501E-17	1.164603E-17
3.470000E+03	5.301876E-17	1.168488E-17
3.480000E+03	5.351754E-17	1.172334E-17
3.490000E+03	5.402138E-17	1.176140E-17
3.500000E+03	5.453032E-17	1.179903E-17
3.510000E+03	5.504440E-17	1.183624E-17
3.520000E+03	5.556366E-17	1.187298E-17
3.530000E+03	5.608812E-17	1.190926E-17
3.540000E+03	5.661783E-17	1.194505E-17
3.550000E+03	5.715282E-17	1.198033E-17
3.560000E+03	5.769311E-17	1.201508E-17
3.570000E+03	5.824781E-17	1.205117E-17
3.580000E+03	5.879889E-17	1.208482E-17
3.590000E+03	5.935537E-17	1.211789E-17
3.600000E+03	5.991727E-17	1.215035E-17
3.610000E+03	6.048462E-17	1.218219E-17
3.620000E+03	6.105744E-17	1.221338E-17
3.630000E+03	6.164529E-17	1.224580E-17
3.640000E+03	6.222920E-17	1.227564E-17
3.650000E+03	6.281864E-17	1.230476E-17
3.660000E+03	6.341363E-17	1.233315E-17
3.670000E+03	6.401418E-17	1.236078E-17
3.680000E+03	6.463024E-17	1.238953E-17
3.690000E+03	6.524204E-17	1.241557E-17
3.700000E+03	6.585941E-17	1.244077E-17
3.710000E+03	6.648238E-17	1.246511E-17
3.720000E+03	6.712123E-17	1.249048E-17
3.730000E+03	6.775548E-17	1.251303E-17
3.740000E+03	6.839533E-17	1.253465E-17
3.750000E+03	6.904075E-17	1.255529E-17
3.760000E+03	6.970239E-17	1.257687E-17
3.770000E+03	7.035904E-17	1.259550E-17
3.780000E+03	7.102123E-17	1.261308E-17
3.790000E+03	7.169987E-17	1.263151E-17
3.800000E+03	7.237319E-17	1.264690E-17
3.810000E+03	7.305197E-17	1.266116E-17
3.820000E+03	7.373621E-17	1.267425E-17
3.830000E+03	7.443714E-17	1.268807E-17
3.840000E+03	7.513226E-17	1.269873E-17
3.850000E+03	7.583270E-17	1.270814E-17
3.860000E+03	7.655001E-17	1.271817E-17
3.870000E+03	7.726106E-17	1.272496E-17
3.880000E+03	7.797729E-17	1.273040E-17
3.890000E+03	7.869863E-17	1.273445E-17
3.900000E+03	7.943699E-17	1.273900E-17
3.910000E+03	8.016845E-17	1.274018E-17
3.920000E+03	8.090482E-17	1.273987E-17
3.930000E+03	8.165827E-17	1.273997E-17
3.940000E+03	8.240430E-17	1.273660E-17
3.950000E+03	8.315496E-17	1.273165E-17
3.960000E+03	8.391016E-17	1.272509E-17
3.970000E+03	8.468249E-17	1.271878E-17
3.980000E+03	8.544658E-17	1.270890E-17
3.990000E+03	8.621488E-17	1.269730E-17
4.000000E+03	8.698728E-17	1.268396E-17
4.010000E+03	8.777673E-17	1.267074E-17
4.020000E+03	8.855703E-17	1.265381E-17
4.030000E+03	8.934103E-17	1.263506E-17
4.040000E+03	9.012858E-17	1.261444E-17
4.050000E+03	9.093303E-17	1.259379E-17
4.060000E+03	9.172730E-17	1.256934E-17
4.070000E+03	9.252464E-17	1.254294E-17
4.080000E+03	9.332488E-17	1.251455E-17
4.090000E+03	9.412783E-17	1.248416E-17
4.100000E+03	9.494734E-17	1.245357E-17
4.110000E+03	9.575524E-17	1.241907E-17
4.120000E+03	9.656527E-17	1.238249E-17
4.130000E+03	9.737722E-17	1.234379E-17
4.140000E+03	9.819086E-17	1.230297E-17
4.150000E+03	9.900598E-17	1.225999E-17
4.160000E+03	9.982234E-17	1.221484E-17
4.170000E+03	1.006397E-16	1.216750E-17
4.180000E+03	1.014578E-16	1.211796E-17
4.190000E+03	1.022765E-16	1.206619E-17
4.200000E+03	1.031104E-16	1.201396E-17
4.210000E+03	1.039294E-16	1.195770E-17
4.220000E+03	1.047480E-16	1.189919E-17
4.230000E+03	1.055661E-16	1.183843E-17
4.240000E+03	1.063678E-16	1.177367E-17
4.250000E+03	1.071837E-16	1.170838E-17
4.260000E+03	1.079981E-16	1.164082E-17
4.270000E+03	1.088108E-16	1.157100E-17
4.280000E+03	1.096214E-16	1.149893E-17
4.290000E+03	1.104294E-16	1.142459E-17
4.300000E+03	1.112348E-16	1.134802E-17
4.310000E+03	1.120371E-16	1.126923E-17
4.320000E+03	1.128360E-16	1.118824E-17
4.330000E+03	1.136146E-16	1.110345E-17
4.340000E+03	1.144054E-16	1.101813E-17
4.350000E+03	1.151918E-16	1.093069E-17
4.360000E+03	1.159733E-16	1.084115E-17
4.370000E+03	1.167327E-16	1.074800E-17
4.380000E+03	1.175032E-16	1.065440E-17
4.390000E+03	1.182677E-16	1.055884E-17
4.400000E+03	1.190087E-16	1.045985E-17
4.410000E+03	1.197601E-16	1.036054E-17
4.420000E+03	1.205042E-16	1.025942E-17
4.430000E+03	1.212234E-16	1.015512E-17
4.440000E+03	1.219520E-16	1.005063E-17
4.450000E+03	1.226546E-16	9.943144E-18
4.460000E+03	1.233660E-16	9.835603E-18
4.470000E+03	1.240505E-16	9.725271E-18
4.480000E+03	1.247430E-16	9.615038E-18
4.490000E+03	1.254076E-16	9.502243E-18
4.500000E+03	1.260618E-16	9.388397E-18
4.510000E+03	1.267230E-16	9.274935E-18
4.520000E+03	1.273549E-16	9.159319E-18
4.530000E+03	1.279749E-16	9.043016E-18
4.540000E+03	1.286010E-16	8.927447E-18
4.550000E+03	1.291964E-16	8.810201E-18
4.560000E+03	1.297788E-16	8.692723E-18
4.570000E+03	1.303477E-16	8.575165E-18
4.580000E+03	1.309027E-16	8.457711E-18
4.590000E+03	1.314624E-16	8.341730E-18
4.600000E+03	1.319887E-16	8.225017E-18
4.610000E+03	1.325000E-16	8.108971E-18
4.620000E+03	1.329960E-16	7.993808E-18
4.630000E+03	1.334761E-16	7.879732E-18
4.640000E+03	1.339400E-16	7.766972E-18
4.650000E+03	1.343876E-16	7.655762E-18
4.660000E+03	1.348180E-16	7.546327E-18
4.670000E+03	1.352314E-16	7.438924E-18
4.680000E+03	1.356079E-16	7.332758E-18
4.690000E+03	1.359855E-16	7.230170E-18
4.700000E+03	1.363449E-16	7.130377E-18
4.710000E+03	1.366856E-16	7.033630E-18
4.720000E+03	1.369882E-16	6.939221E-18
4.730000E+03	1.372909E-16	6.849380E-18
4.740000E+03	1.375739E-16	6.763367E-18
4.750000E+03	1.378181E-16	6.680512E-18
4.760000E+03	1.380615E-16	6.602942E-18
4.770000E+03	1.382652E-16	6.529027E-18
4.780000E+03	1.384681E-16	6.460848E-18
4.790000E+03	1.386309E-16	6.396783E-18
4.800000E+03	1.387924E-16	6.338828E-18
4.810000E+03	1.389135E-16	6.285365E-18
4.820000E+03	1.390333E-16	6.238154E-18
4.830000E+03	1.391128E-16	6.195289E-18
4.840000E+03	1.391714E-16	6.157483E-18
4.850000E+03	1.392289E-16	6.125407E-18
4.860000E+03	1.392465E-16	6.097136E-18
4.870000E+03	1.392438E-16	6.073295E-18
4.880000E+03	1.392210E-16	6.053655E-18
4.890000E+03	1.391783E-16	6.037950E-18
4.900000E+03	1.391160E-16	6.025930E-18
4.910000E+03	1.390341E-16	6.017315E-18
4.920000E+03	1.389330E-16	6.011833E-18
4.930000E+03	1.388131E-16	6.009212E-18
4.940000E+03	1.386745E-16	6.009176E-18
4.950000E+03	1.385174E-16	6.011447E-18
4.960000E+03	1.383422E-16	6.015755E-18
4.970000E+03	1.381493E-16	6.021844E-18
4.980000E+03	1.379389E-16	6.029453E-18
4.990000E+03	1.376923E-16	6.037498E-18
5.000000E+03	1.374478E-16	6.047412E-18
5.010000E+03	1.371870E-16	6.058143E-18
5.020000E+03	1.368910E-16	6.068624E-18
5.030000E+03	1.365982E-16	6.080340E-18
5.040000E+03	1.362711E-16	6.091411E-18
5.050000E+03	1.359480E-16	6.103350E-18
5.060000E+03	1.355913E-16	6.114298E-18
5.070000E+03	1.352391E-16	6.125796E-18
5.080000E+03	1.348543E-16	6.136011E-18
5.090000E+03	1.344747E-16	6.146508E-18
5.100000E+03	1.340635E-16	6.155478E-18
5.110000E+03	1.336397E-16	6.163666E-18
5.120000E+03	1.332036E-16	6.170973E-18
5.130000E+03	1.327740E-16	6.178175E-18
5.140000E+03	1.323147E-16	6.183496E-18
5.150000E+03	1.318443E-16	6.187727E-18
5.160000E+03	1.313634E-16	6.190821E-18
5.170000E+03	1.308724E-16	6.192741E-18
5.180000E+03	1.303715E-16	6.193444E-18
5.190000E+03	1.298614E-16	6.192920E-18
5.200000E+03	1.293424E-16	6.191147E-18
5.210000E+03	1.288149E-16	6.188121E-18
5.220000E+03	1.282793E-16	6.183840E-18
5.230000E+03	1.277186E-16	6.177467E-18
5.240000E+03	1.271682E-16	6.170706E-18
5.250000E+03	1.266110E-16	6.162739E-18
5.260000E+03	1.260473E-16	6.153577E-18
5.270000E+03	1.254605E-16	6.142420E-18
5.280000E+03	1.248854E-16	6.130987E-18
5.290000E+03	1.242881E-16	6.117633E-18
5.300000E+03	1.237030E-16	6.104078E-18
5.310000E+03	1.231135E-16	6.089532E-18
5.320000E+03	1.225032E-16	6.073218E-18
5.330000E+03	1.218895E-16	6.056022E-18
5.340000E+03	1.212892E-16	6.038822E-18
5.350000E+03	1.206696E-16	6.020032E-18
5.360000E+03	1.200477E-16	6.000538E-18
5.370000E+03	1.194401E-16	5.981216E-18
5.380000E+03	1.188145E-16	5.960494E-18
5.390000E+03	1.181877E-16	5.939262E-18
5.400000E+03	1.175599E-16	5.917577E-18
5.410000E+03	1.169317E-16	5.895511E-18
5.420000E+03	1.163190E-16	5.873922E-18
5.430000E+03	1.156905E-16	5.851280E-18
5.440000E+03	1.150625E-16	5.828452E-18
5.450000E+03	1.144353E-16	5.805499E-18
5.460000E+03	1.138092E-16	5.782475E-18
5.470000E+03	1.131693E-16	5.758596E-18
5.480000E+03	1.125469E-16	5.735393E-18
5.490000E+03	1.119269E-16	5.712036E-18
5.500000E+03	1.113100E-16	5.688493E-18
5.510000E+03	1.106966E-16	5.664732E-18
5.520000E+03	1.100722E-16	5.639953E-18
5.530000E+03	1.094675E-16	5.615670E-18
5.540000E+03	1.088677E-16	5.591075E-18
5.550000E+03	1.082586E-16	5.565386E-18
5.560000E+03	1.076702E-16	5.540102E-18
5.570000E+03	1.070884E-16	5.514440E-18
5.580000E+03	1.064988E-16	5.487628E-18
5.590000E+03	1.059310E-16	5.461142E-18
5.600000E+03	1.053567E-16	5.433483E-18
5.610000E+03	1.047907E-16	5.405379E-18
5.620000E+03	1.042476E-16	5.377548E-18
5.630000E+03	1.036993E-16	5.348510E-18
5.640000E+03	1.031605E-16	5.318989E-18
5.650000E+03	1.026456E-16	5.289701E-18
5.660000E+03	1.021269E-16	5.259196E-18
5.670000E+03	1.016188E-16	5.228184E-18
5.680000E+03	1.011217E-16	5.196669E-18
5.690000E+03	1.006359E-16	5.164640E-18
5.700000E+03	1.001753E-16	5.132798E-18
5.710000E+03	9.971311E-17	5.099744E-18
5.720000E+03	9.926316E-17	5.066176E-18
5.730000E+03	9.882593E-17	5.032101E-18
5.740000E+03	9.840153E-17	4.997514E-18
5.750000E+03	9.799044E-17	4.962425E-18
5.760000E+03	9.757967E-17	4.926169E-18
5.770000E+03	9.719600E-17	4.890089E-18
5.780000E+03	9.682640E-17	4.853518E-18
5.790000E+03	9.647117E-17	4.816463E-18
5.800000E+03	9.613068E-17	4.778935E-18
5.810000E+03	9.580505E-17	4.740935E-18
5.820000E+03	9.548188E-17	4.701847E-18
5.830000E+03	9.518702E-17	4.662944E-18
5.840000E+03	9.490797E-17	4.623604E-18
5.850000E+03	9.463223E-17	4.583219E-18
5.860000E+03	9.438553E-17	4.543037E-18
5.870000E+03	9.414277E-17	4.501845E-18
5.880000E+03	9.392950E-17	4.460872E-18
5.890000E+03	9.373337E-17	4.419520E-18
5.900000E+03	9.354197E-17	4.377214E-18
5.910000E+03	9.336826E-17	4.334570E-18
5.920000E+03	9.322506E-17	4.292183E-18
5.930000E+03	9.308750E-17	4.248909E-18
5.940000E+03	9.298099E-17	4.205919E-18
5.950000E+03	9.288056E-17	4.162086E-18
5.960000E+03	9.279928E-17	4.118015E-18
5.970000E+03	9.274971E-17	4.074270E-18
5.980000E+03	9.270719E-17	4.029775E-18
5.990000E+03	9.268457E-17	3.985113E-18
6.000000E+03	9.268212E-17	3.940315E-18
6.010000E+03	9.270006E-17	3.895410E-18
6.020000E+03	9.275131E-17	3.850957E-18
6.030000E+03	9.281105E-17	3.805945E-18
6.040000E+03	9.289213E-17	3.760945E-18
6.050000E+03	9.299490E-17	3.716003E-18
6.060000E+03	9.311963E-17	3.671170E-18
6.070000E+03	9.326668E-17	3.626503E-18
6.080000E+03	9.343635E-17	3.582062E-18
6.090000E+03	9.362895E-17	3.537915E-18
6.100000E+03	9.384497E-17	3.494144E-18
6.110000E+03	9.408458E-17	3.450822E-18
6.120000E+03	9.434831E-17	3.408049E-18
6.130000E+03	9.463643E-17	3.365921E-18
6.140000E+03	9.493659E-17	3.324102E-18
6.150000E+03	9.527468E-17	3.283613E-18
6.160000E+03	9.563830E-17	3.244132E-18
6.170000E+03	9.602798E-17	3.205806E-18
6.180000E+03	9.644410E-17	3.168793E-18
6.190000E+03	9.687407E-17	3.132843E-18
6.200000E+03	9.734424E-17	3.098985E-18
6.210000E+03	9.784217E-17	3.066997E-18
6.220000E+03	9.835499E-17	3.036681E-18
6.230000E+03	9.890964E-17	3.009090E-18
6.240000E+03	9.949334E-17	2.984053E-18
6.250000E+03	1.000929E-16	2.961420E-18
6.260000E+03	1.007356E-16	2.942265E-18
6.270000E+03	1.013948E-16	2.926061E-18
6.280000E+03	1.020977E-16	2.913877E-18
6.290000E+03	1.028166E-16	2.905195E-18
6.300000E+03	1.035784E-16	2.901040E-18
6.310000E+03	1.043544E-16	2.900686E-18
6.320000E+03	1.051717E-16	2.904885E-18
6.330000E+03	1.060009E-16	2.912809E-18
6.340000E+03	1.068549E-16	2.924806E-18
6.350000E+03	1.077471E-16	2.941208E-18
6.360000E+03	1.086474E-16	2.961165E-18
6.370000E+03	1.095837E-16	2.985405E-18
6.380000E+03	1.105253E-16	3.013052E-18
6.390000E+03	1.114855E-16	3.044431E-18
6.400000E+03	1.124630E-16	3.079468E-18
6.410000E+03	1.134717E-16	3.118504E-18
6.420000E+03	1.144795E-16	3.160628E-18
6.430000E+03	1.155000E-16	3.206178E-18
6.440000E+03	1.165320E-16	3.255093E-18
6.450000E+03	1.175736E-16	3.307298E-18
6.460000E+03	1.186391E-16	3.363187E-18
6.470000E+03	1.196951E-16	3.421804E-18
6.480000E+03	1.207556E-16	3.483542E-18
6.490000E+03	1.218188E-16	3.548355E-18
6.500000E+03	1.228829E-16	3.616201E-18
6.510000E+03	1.239460E-16	3.687040E-18
6.520000E+03	1.250063E-16	3.760843E-18
6.530000E+03	1.260619E-16	3.837585E-18
6.540000E+03	1.271106E-16	3.917235E-18
6.550000E+03	1.281508E-16	3.999777E-18
6.560000E+03	1.291803E-16	4.085190E-18
6.570000E+03	1.301978E-16	4.173472E-18
6.580000E+03	1.312017E-16	4.264617E-18
6.590000E+03	1.321906E-16	4.358631E-18
6.600000E+03	1.331637E-16	4.455530E-18
6.610000E+03	1.341203E-16	4.555232E-18
6.620000E+03	1.350416E-16	4.656907E-18
6.630000E+03	1.359634E-16	4.761591E-18
6.640000E+03	1.368672E-16	4.868447E-18
6.650000E+03	1.377526E-16	4.977269E-18
6.660000E+03	1.386189E-16	5.087829E-18
6.670000E+03	1.394659E-16	5.199912E-18
6.680000E+03	1.402742E-16	5.312585E-18
6.690000E+03	1.410812E-16	5.427053E-18
6.700000E+03	1.418677E-16	5.542404E-18
6.710000E+03	1.426140E-16	5.657654E-18
6.720000E+03	1.433585E-16	5.774124E-18
6.730000E+03	1.440816E-16	5.890855E-18
6.740000E+03	1.447632E-16	6.006831E-18
6.750000E+03	1.454426E-16	6.123482E-18
6.760000E+03	1.460997E-16	6.239808E-18
6.770000E+03	1.467144E-16	6.354760E-18
6.780000E+03	1.473264E-16	6.469877E-18
6.790000E+03	1.478955E-16	6.583233E-18
6.800000E+03	1.484618E-16	6.696437E-18
6.810000E+03	1.490050E-16	6.808439E-18
6.820000E+03	1.495046E-16	6.918135E-18
6.830000E+03	1.500014E-16	7.027244E-18
6.840000E+03	1.504542E-16	7.133706E-18
6.850000E+03	1.509040E-16	7.239313E-18
6.860000E+03	1.513098E-16	7.341960E-18
6.870000E+03	1.516919E-16	7.442486E-18
6.880000E+03	1.520712E-16	7.541791E-18
6.890000E+03	1.524063E-16	7.637708E-18
6.900000E+03	1.527386E-16	7.732180E-18
6.910000E+03	1.530266E-16	7.822994E-18
6.920000E+03	1.532913E-16	7.911099E-18
6.930000E+03	1.535534E-16	7.997463E-18
6.940000E+03	1.537716E-16	8.079830E-18
6.950000E+03	1.539664E-16	8.159172E-18
6.960000E+03	1.541594E-16	8.236536E-18
6.970000E+03	1.543084E-16	8.309589E-18
6.980000E+03	1.544347E-16	8.379375E-18
6.990000E+03	1.545385E-16	8.445815E-18
7.000000E+03	1.546412E-16	8.510007E-18
7.010000E+03	1.547004E-16	8.569563E-18
7.020000E+03	1.547378E-16	8.625580E-18
7.030000E+03	1.547533E-16	8.678003E-18
7.040000E+03	1.547474E-16	8.726782E-18
7.050000E+03	1.547413E-16	8.773075E-18
7.060000E+03	1.546931E-16	8.814444E-18
7.070000E+03	1.546240E-16	8.852041E-18
7.080000E+03	1.545344E-16	8.885841E-18
7.090000E+03	1.544247E-16	8.915822E-18
7.100000E+03	1.542948E-16	8.941944E-18
7.110000E+03	1.541454E-16	8.964207E-18
7.120000E+03	1.539766E-16	8.982581E-18
7.130000E+03	1.537887E-16	8.997067E-18
7.140000E+03	1.535820E-16	9.007648E-18
7.150000E+03	1.533569E-16	9.014334E-18
7.160000E+03	1.531136E-16	9.017116E-18
7.170000E+03	1.528524E-16	9.015997E-18
7.180000E+03	1.525738E-16	9.010998E-18
7.190000E+03	1.522781E-16	9.002127E-18
7.200000E+03	1.519655E-16	8.989398E-18
7.210000E+03	1.516364E-16	8.972829E-18
7.220000E+03	1.512911E-16	8.952447E-18
7.230000E+03	1.509300E-16	8.928282E-18
7.240000E+03	1.505328E-16	8.899134E-18
7.250000E+03	1.501411E-16	8.867491E-18
7.260000E+03	1.497345E-16	8.832157E-18
7.270000E+03	1.493135E-16	8.793175E-18
7.280000E+03	1.488784E-16	8.750594E-18
7.290000E+03	1.484092E-16	8.703255E-18
7.300000E+03	1.479469E-16	8.653609E-18
7.310000E+03	1.474716E-16	8.600509E-18
7.320000E+03	1.469834E-16	8.543999E-18
7.330000E+03	1.464627E-16	8.482981E-18
7.340000E+03	1.459500E-16	8.419846E-18
7.350000E+03	1.454258E-16	8.353496E-18
7.360000E+03	1.448701E-16	8.282847E-18
7.370000E+03	1.443232E-16	8.210256E-18
7.380000E+03	1.437458E-16	8.133529E-18
7.390000E+03	1.431779E-16	8.054995E-18
7.400000E+03	1.426000E-16	7.973601E-18
7.410000E+03	1.419925E-16	7.888324E-18
7.420000E+03	1.413953E-16	7.801451E-18
7.430000E+03	1.407695E-16	7.710893E-18
7.440000E+03	1.401544E-16	7.618894E-18
7.450000E+03	1.395114E-16	7.523414E-18
7.460000E+03	1.388795E-16	7.426648E-18
7.470000E+03	1.382205E-16	7.326627E-18
7.480000E+03	1.375731E-16	7.225499E-18
7.490000E+03	1.368994E-16	7.121353E-18
7.500000E+03	1.362188E-16	7.015309E-18
7.510000E+03	1.355503E-16	6.908448E-18
7.520000E+03	1.348566E-16	6.798952E-18
7.530000E+03	1.341755E-16	6.688851E-18
7.540000E+03	1.334699E-16	6.576398E-18
7.550000E+03	1.327588E-16	6.462673E-18
7.560000E+03	1.320423E-16	6.347812E-18
7.570000E+03	1.313391E-16	6.232831E-18
7.580000E+03	1.306129E-16	6.116138E-18
7.590000E+03	1.298821E-16	5.998771E-18
7.600000E+03	1.291470E-16	5.880894E-18
7.610000E+03	1.284258E-16	5.763500E-18
7.620000E+03	1.276829E-16	5.645145E-18
7.630000E+03	1.269363E-16	5.526845E-18
7.640000E+03	1.261865E-16	5.408814E-18
7.650000E+03	1.254335E-16	5.291269E-18
7.660000E+03	1.246775E-16	5.174442E-18
7.670000E+03	1.239190E-16	5.058585E-18
7.680000E+03	1.231751E-16	4.944649E-18
7.690000E+03	1.224116E-16	4.831517E-18
7.700000E+03	1.216460E-16	4.720192E-18
7.710000E+03	1.208786E-16	4.610992E-18
7.720000E+03	1.201093E-16	4.504243E-18
7.730000E+03	1.193385E-16	4.400306E-18
7.740000E+03	1.185664E-16	4.299551E-18
7.750000E+03	1.177931E-16	4.202368E-18
7.760000E+03	1.170023E-16	4.108587E-18
