#wls	flux	fluxerr
1.600000E+03	9.887030E-18	3.893765E-18
1.640000E+03	1.017978E-17	3.981885E-18
1.680000E+03	1.048283E-17	4.071975E-18
1.720000E+03	1.079846E-17	4.164792E-18
1.760000E+03	1.112529E-17	4.259646E-18
1.800000E+03	1.146372E-17	4.356553E-18
1.840000E+03	1.181421E-17	4.455527E-18
1.880000E+03	1.217720E-17	4.556579E-18
1.920000E+03	1.255539E-17	4.660542E-18
1.960000E+03	1.294494E-17	4.765801E-18
2.000000E+03	1.335085E-17	4.874023E-18
2.040000E+03	1.377390E-17	4.985269E-18
2.080000E+03	1.420991E-17	5.097807E-18
2.120000E+03	1.466441E-17	5.213411E-18
2.160000E+03	1.513563E-17	5.331206E-18
2.200000E+03	1.562427E-17	5.451189E-18
2.240000E+03	1.613387E-17	5.574326E-18
2.280000E+03	1.666253E-17	5.699677E-18
2.320000E+03	1.721108E-17	5.827230E-18
2.360000E+03	1.778037E-17	5.956971E-18
2.400000E+03	1.837448E-17	6.089936E-18
2.440000E+03	1.898810E-17	6.224015E-18
2.480000E+03	1.963208E-17	6.362409E-18
2.520000E+03	2.029765E-17	6.501855E-18
2.560000E+03	2.099281E-17	6.644537E-18
2.600000E+03	2.171164E-17	6.788138E-18
2.640000E+03	2.246658E-17	6.936109E-18
2.680000E+03	2.324777E-17	7.084886E-18
2.720000E+03	2.406444E-17	7.236798E-18
2.760000E+03	2.491421E-17	7.390572E-18
2.800000E+03	2.579862E-17	7.546108E-18
2.840000E+03	2.672383E-17	7.704602E-18
2.880000E+03	2.768262E-17	7.863327E-18
2.920000E+03	2.868598E-17	8.024777E-18
2.960000E+03	2.973625E-17	8.188847E-18
3.000000E+03	3.082550E-17	8.352599E-18
3.010000E+03	3.110882E-17	8.394734E-18
3.020000E+03	3.138982E-17	8.435505E-18
3.030000E+03	3.167373E-17	8.476316E-18
3.040000E+03	3.196594E-17	8.518593E-18
3.050000E+03	3.225580E-17	8.559478E-18
3.060000E+03	3.255412E-17	8.601832E-18
3.070000E+03	3.285006E-17	8.642771E-18
3.080000E+03	3.315463E-17	8.685183E-18
3.090000E+03	3.345679E-17	8.726161E-18
3.100000E+03	3.376773E-17	8.768611E-18
3.110000E+03	3.408193E-17	8.811075E-18
3.120000E+03	3.439369E-17	8.852072E-18
3.130000E+03	3.471448E-17	8.894544E-18
3.140000E+03	3.503279E-17	8.935522E-18
3.150000E+03	3.536030E-17	8.977979E-18
3.160000E+03	3.569124E-17	9.020419E-18
3.170000E+03	3.601967E-17	9.061332E-18
3.180000E+03	3.635755E-17	9.103718E-18
3.190000E+03	3.669288E-17	9.144553E-18
3.200000E+03	3.703782E-17	9.186859E-18
3.210000E+03	3.738639E-17	9.229118E-18
3.220000E+03	3.773860E-17	9.271322E-18
3.230000E+03	3.808818E-17	9.311916E-18
3.240000E+03	3.844775E-17	9.353980E-18
3.250000E+03	3.881107E-17	9.395965E-18
3.260000E+03	3.917170E-17	9.436300E-18
3.270000E+03	3.954259E-17	9.478097E-18
3.280000E+03	3.991733E-17	9.519787E-18
3.290000E+03	4.029598E-17	9.561365E-18
3.300000E+03	4.067855E-17	9.602819E-18
3.310000E+03	4.105831E-17	9.642550E-18
3.320000E+03	4.144879E-17	9.683723E-18
3.330000E+03	4.184330E-17	9.724744E-18
3.340000E+03	4.224188E-17	9.765601E-18
3.350000E+03	4.264456E-17	9.806284E-18
3.360000E+03	4.305137E-17	9.846781E-18
3.370000E+03	4.345520E-17	9.885459E-18
3.380000E+03	4.387031E-17	9.925547E-18
3.390000E+03	4.428965E-17	9.965416E-18
3.400000E+03	4.471325E-17	1.000505E-17
3.410000E+03	4.514114E-17	1.004444E-17
3.420000E+03	4.557335E-17	1.008358E-17
3.430000E+03	4.600990E-17	1.012244E-17
3.440000E+03	4.645084E-17	1.016101E-17
3.450000E+03	4.689618E-17	1.019929E-17
3.460000E+03	4.734595E-17	1.023726E-17
3.470000E+03	4.780018E-17	1.027490E-17
3.480000E+03	4.825101E-17	1.031051E-17
3.490000E+03	4.871416E-17	1.034744E-17
3.500000E+03	4.918184E-17	1.038400E-17
3.510000E+03	4.965407E-17	1.042017E-17
3.520000E+03	5.013086E-17	1.045593E-17
3.530000E+03	5.061225E-17	1.049127E-17
3.540000E+03	5.109825E-17	1.052616E-17
3.550000E+03	5.158888E-17	1.056060E-17
3.560000E+03	5.208416E-17	1.059457E-17
3.570000E+03	5.258408E-17	1.062804E-17
3.580000E+03	5.308868E-17	1.066100E-17
3.590000E+03	5.359795E-17	1.069342E-17
3.600000E+03	5.412068E-17	1.072703E-17
3.610000E+03	5.463942E-17	1.075834E-17
3.620000E+03	5.516286E-17	1.078905E-17
3.630000E+03	5.569101E-17	1.081915E-17
3.640000E+03	5.622387E-17	1.084861E-17
3.650000E+03	5.676143E-17	1.087743E-17
3.660000E+03	5.730371E-17	1.090556E-17
3.670000E+03	5.785068E-17	1.093300E-17
3.680000E+03	5.840234E-17	1.095971E-17
3.690000E+03	5.895870E-17	1.098568E-17
3.700000E+03	5.951972E-17	1.101088E-17
3.710000E+03	6.008540E-17	1.103529E-17
3.720000E+03	6.065572E-17	1.105888E-17
3.730000E+03	6.123067E-17	1.108164E-17
3.740000E+03	6.181021E-17	1.110353E-17
3.750000E+03	6.239432E-17	1.112453E-17
3.760000E+03	6.299307E-17	1.114640E-17
3.770000E+03	6.358633E-17	1.116555E-17
3.780000E+03	6.418406E-17	1.118373E-17
3.790000E+03	6.478623E-17	1.120092E-17
3.800000E+03	6.539280E-17	1.121709E-17
3.810000E+03	6.600371E-17	1.123221E-17
3.820000E+03	6.661892E-17	1.124627E-17
3.830000E+03	6.723839E-17	1.125922E-17
3.840000E+03	6.786204E-17	1.127105E-17
3.850000E+03	6.848982E-17	1.128173E-17
3.860000E+03	6.912167E-17	1.129122E-17
3.870000E+03	6.975751E-17	1.129951E-17
3.880000E+03	7.040847E-17	1.130836E-17
3.890000E+03	7.105218E-17	1.131414E-17
3.900000E+03	7.169964E-17	1.131864E-17
3.910000E+03	7.235079E-17	1.132181E-17
3.920000E+03	7.300551E-17	1.132364E-17
3.930000E+03	7.366373E-17	1.132409E-17
3.940000E+03	7.432533E-17	1.132314E-17
3.950000E+03	7.499021E-17	1.132075E-17
3.960000E+03	7.565827E-17	1.131692E-17
3.970000E+03	7.632938E-17	1.131159E-17
3.980000E+03	7.700343E-17	1.130476E-17
3.990000E+03	7.768028E-17	1.129638E-17
4.000000E+03	7.835982E-17	1.128645E-17
4.010000E+03	7.904189E-17	1.127492E-17
4.020000E+03	7.972635E-17	1.126178E-17
4.030000E+03	8.041307E-17	1.124699E-17
4.040000E+03	8.110189E-17	1.123055E-17
4.050000E+03	8.179265E-17	1.121241E-17
4.060000E+03	8.248518E-17	1.119257E-17
4.070000E+03	8.317931E-17	1.117099E-17
4.080000E+03	8.387487E-17	1.114765E-17
4.090000E+03	8.457168E-17	1.112254E-17
4.100000E+03	8.526954E-17	1.109564E-17
4.110000E+03	8.596828E-17	1.106692E-17
4.120000E+03	8.666768E-17	1.103637E-17
4.130000E+03	8.736755E-17	1.100397E-17
4.140000E+03	8.806767E-17	1.096971E-17
4.150000E+03	8.876784E-17	1.093356E-17
4.160000E+03	8.946782E-17	1.089553E-17
4.170000E+03	9.016739E-17	1.085560E-17
4.180000E+03	9.086631E-17	1.081376E-17
4.190000E+03	9.156437E-17	1.076999E-17
4.200000E+03	9.224691E-17	1.072263E-17
4.210000E+03	9.294236E-17	1.067502E-17
4.220000E+03	9.363620E-17	1.062547E-17
4.230000E+03	9.432815E-17	1.057399E-17
4.240000E+03	9.501796E-17	1.052058E-17
4.250000E+03	9.570534E-17	1.046524E-17
4.260000E+03	9.639005E-17	1.040797E-17
4.270000E+03	9.705672E-17	1.034719E-17
4.280000E+03	9.773512E-17	1.028612E-17
4.290000E+03	9.840998E-17	1.022315E-17
4.300000E+03	9.908103E-17	1.015832E-17
4.310000E+03	9.973251E-17	1.009006E-17
4.320000E+03	1.003949E-16	1.002155E-17
4.330000E+03	1.010526E-16	9.951224E-18
4.340000E+03	1.017053E-16	9.879121E-18
4.350000E+03	1.023369E-16	9.803755E-18
4.360000E+03	1.029786E-16	9.728202E-18
4.370000E+03	1.036143E-16	9.650974E-18
4.380000E+03	1.042277E-16	9.570636E-18
4.390000E+03	1.048505E-16	9.490201E-18
4.400000E+03	1.054664E-16	9.408228E-18
4.410000E+03	1.060588E-16	9.323336E-18
4.420000E+03	1.066600E-16	9.238468E-18
4.430000E+03	1.072368E-16	9.150831E-18
4.440000E+03	1.078219E-16	9.063318E-18
4.450000E+03	1.083819E-16	8.973204E-18
4.460000E+03	1.089497E-16	8.883334E-18
4.470000E+03	1.094916E-16	8.791046E-18
4.480000E+03	1.100408E-16	8.699142E-18
4.490000E+03	1.105634E-16	8.605030E-18
4.500000E+03	1.110928E-16	8.511456E-18
4.510000E+03	1.115948E-16	8.415897E-18
4.520000E+03	1.121032E-16	8.321057E-18
4.530000E+03	1.125834E-16	8.224485E-18
4.540000E+03	1.130696E-16	8.128825E-18
4.550000E+03	1.135268E-16	8.031700E-18
4.560000E+03	1.139722E-16	7.934508E-18
4.570000E+03	1.144228E-16	7.838569E-18
4.580000E+03	1.148434E-16	7.741607E-18
4.590000E+03	1.152514E-16	7.644994E-18
4.600000E+03	1.156639E-16	7.550023E-18
4.610000E+03	1.160455E-16	7.454531E-18
4.620000E+03	1.164135E-16	7.359848E-18
4.630000E+03	1.167677E-16	7.266136E-18
4.640000E+03	1.171256E-16	7.174656E-18
4.650000E+03	1.174513E-16	7.083379E-18
4.660000E+03	1.177625E-16	6.993599E-18
4.670000E+03	1.180586E-16	6.905478E-18
4.680000E+03	1.183398E-16	6.819215E-18
4.690000E+03	1.186055E-16	6.734982E-18
4.700000E+03	1.188556E-16	6.652967E-18
4.710000E+03	1.190898E-16	6.573351E-18
4.720000E+03	1.193078E-16	6.496319E-18
4.730000E+03	1.195094E-16	6.422049E-18
4.740000E+03	1.197124E-16	6.351682E-18
4.750000E+03	1.198623E-16	6.282501E-18
4.760000E+03	1.200132E-16	6.217561E-18
4.770000E+03	1.201465E-16	6.156053E-18
4.780000E+03	1.202624E-16	6.098134E-18
4.790000E+03	1.203605E-16	6.043944E-18
4.800000E+03	1.204408E-16	5.993618E-18
4.810000E+03	1.205035E-16	5.947232E-18
4.820000E+03	1.205484E-16	5.904710E-18
4.830000E+03	1.205760E-16	5.865961E-18
4.840000E+03	1.205680E-16	5.829973E-18
4.850000E+03	1.205613E-16	5.798393E-18
4.860000E+03	1.205378E-16	5.770186E-18
4.870000E+03	1.204978E-16	5.745207E-18
4.880000E+03	1.204233E-16	5.722421E-18
4.890000E+03	1.203508E-16	5.703390E-18
4.900000E+03	1.202624E-16	5.687068E-18
4.910000E+03	1.201404E-16	5.672426E-18
4.920000E+03	1.200210E-16	5.660982E-18
4.930000E+03	1.198685E-16	5.650846E-18
4.940000E+03	1.197190E-16	5.643526E-18
4.950000E+03	1.195549E-16	5.637994E-18
4.960000E+03	1.193584E-16	5.633211E-18
4.970000E+03	1.191658E-16	5.630692E-18
4.980000E+03	1.189413E-16	5.628564E-18
4.990000E+03	1.187033E-16	5.627503E-18
5.000000E+03	1.184699E-16	5.628188E-18
5.010000E+03	1.182055E-16	5.628761E-18
5.020000E+03	1.179461E-16	5.630764E-18
5.030000E+03	1.176566E-16	5.632361E-18
5.040000E+03	1.173550E-16	5.634258E-18
5.050000E+03	1.170591E-16	5.637167E-18
5.060000E+03	1.167341E-16	5.639274E-18
5.070000E+03	1.163979E-16	5.641312E-18
5.080000E+03	1.160510E-16	5.643176E-18
5.090000E+03	1.157107E-16	5.645605E-18
5.100000E+03	1.153430E-16	5.646834E-18
5.110000E+03	1.149653E-16	5.647609E-18
5.120000E+03	1.145781E-16	5.647870E-18
5.130000E+03	1.141819E-16	5.647545E-18
5.140000E+03	1.137768E-16	5.646578E-18
5.150000E+03	1.133632E-16	5.644912E-18
5.160000E+03	1.129415E-16	5.642510E-18
5.170000E+03	1.125119E-16	5.639328E-18
5.180000E+03	1.120751E-16	5.635342E-18
5.190000E+03	1.116312E-16	5.630526E-18
5.200000E+03	1.111805E-16	5.624858E-18
5.210000E+03	1.107235E-16	5.618324E-18
5.220000E+03	1.102606E-16	5.610926E-18
5.230000E+03	1.097920E-16	5.602656E-18
5.240000E+03	1.093181E-16	5.593512E-18
5.250000E+03	1.088394E-16	5.583510E-18
5.260000E+03	1.083399E-16	5.571829E-18
5.270000E+03	1.078524E-16	5.560141E-18
5.280000E+03	1.073611E-16	5.547639E-18
5.290000E+03	1.068662E-16	5.534344E-18
5.300000E+03	1.063523E-16	5.519460E-18
5.310000E+03	1.058515E-16	5.504662E-18
5.320000E+03	1.053481E-16	5.489155E-18
5.330000E+03	1.048269E-16	5.472162E-18
5.340000E+03	1.043196E-16	5.455348E-18
5.350000E+03	1.038106E-16	5.437934E-18
5.360000E+03	1.032852E-16	5.419159E-18
5.370000E+03	1.027741E-16	5.400671E-18
5.380000E+03	1.022473E-16	5.380904E-18
5.390000E+03	1.017353E-16	5.361503E-18
5.400000E+03	1.012082E-16	5.340923E-18
5.410000E+03	1.006964E-16	5.320789E-18
5.420000E+03	1.001702E-16	5.299561E-18
5.430000E+03	9.964484E-17	5.278083E-18
5.440000E+03	9.913537E-17	5.257178E-18
5.450000E+03	9.861244E-17	5.235322E-18
5.460000E+03	9.810565E-17	5.214114E-18
5.470000E+03	9.758605E-17	5.192002E-18
5.480000E+03	9.706883E-17	5.169748E-18
5.490000E+03	9.655406E-17	5.147311E-18
5.500000E+03	9.605645E-17	5.125432E-18
5.510000E+03	9.554789E-17	5.102570E-18
5.520000E+03	9.504306E-17	5.079467E-18
5.530000E+03	9.454236E-17	5.056106E-18
5.540000E+03	9.404619E-17	5.032469E-18
5.550000E+03	9.355494E-17	5.008544E-18
5.560000E+03	9.308274E-17	4.985052E-18
5.570000E+03	9.260241E-17	4.960505E-18
5.580000E+03	9.212812E-17	4.935632E-18
5.590000E+03	9.166024E-17	4.910423E-18
5.600000E+03	9.119910E-17	4.884868E-18
5.610000E+03	9.074503E-17	4.858960E-18
5.620000E+03	9.029835E-17	4.832690E-18
5.630000E+03	8.985938E-17	4.806055E-18
5.640000E+03	8.942841E-17	4.779047E-18
5.650000E+03	8.900575E-17	4.751663E-18
5.660000E+03	8.857861E-17	4.723204E-18
5.670000E+03	8.817345E-17	4.695063E-18
5.680000E+03	8.777743E-17	4.666541E-18
5.690000E+03	8.739081E-17	4.637636E-18
5.700000E+03	8.701386E-17	4.608348E-18
5.710000E+03	8.664681E-17	4.578678E-18
5.720000E+03	8.627723E-17	4.547960E-18
5.730000E+03	8.593081E-17	4.517540E-18
5.740000E+03	8.559505E-17	4.486746E-18
5.750000E+03	8.525761E-17	4.454928E-18
5.760000E+03	8.494391E-17	4.423408E-18
5.770000E+03	8.464156E-17	4.391530E-18
5.780000E+03	8.433837E-17	4.358658E-18
5.790000E+03	8.405947E-17	4.326089E-18
5.800000E+03	8.379259E-17	4.293183E-18
5.810000E+03	8.352568E-17	4.259320E-18
5.820000E+03	8.328360E-17	4.225770E-18
5.830000E+03	8.304200E-17	4.191292E-18
5.840000E+03	8.282559E-17	4.157136E-18
5.850000E+03	8.261017E-17	4.122083E-18
5.860000E+03	8.242032E-17	4.087363E-18
5.870000E+03	8.223197E-17	4.051780E-18
5.880000E+03	8.206958E-17	4.016545E-18
5.890000E+03	8.190918E-17	3.980484E-18
5.900000E+03	8.176311E-17	3.944207E-18
5.910000E+03	8.164360E-17	3.908306E-18
5.920000E+03	8.152684E-17	3.871640E-18
5.930000E+03	8.143707E-17	3.835372E-18
5.940000E+03	8.135053E-17	3.798386E-18
5.950000E+03	8.127948E-17	3.761272E-18
5.960000E+03	8.122413E-17	3.724051E-18
5.970000E+03	8.119668E-17	3.687287E-18
5.980000E+03	8.117347E-17	3.649915E-18
5.990000E+03	8.116671E-17	3.612509E-18
6.000000E+03	8.117663E-17	3.575097E-18
6.010000E+03	8.121544E-17	3.538230E-18
6.020000E+03	8.125951E-17	3.500895E-18
6.030000E+03	8.132104E-17	3.463653E-18
6.040000E+03	8.140029E-17	3.426544E-18
6.050000E+03	8.149751E-17	3.389609E-18
6.060000E+03	8.161299E-17	3.352895E-18
6.070000E+03	8.174698E-17	3.316451E-18
6.080000E+03	8.189976E-17	3.280332E-18
6.090000E+03	8.208365E-17	3.245073E-18
6.100000E+03	8.227482E-17	3.209781E-18
6.110000E+03	8.248557E-17	3.175008E-18
6.120000E+03	8.271617E-17	3.140829E-18
6.130000E+03	8.296687E-17	3.107327E-18
6.140000E+03	8.323793E-17	3.074593E-18
6.150000E+03	8.352958E-17	3.042724E-18
6.160000E+03	8.382975E-17	3.011382E-18
6.170000E+03	8.416324E-17	2.981572E-18
6.180000E+03	8.451800E-17	2.952969E-18
6.190000E+03	8.489421E-17	2.925705E-18
6.200000E+03	8.529206E-17	2.899921E-18
6.210000E+03	8.571172E-17	2.875769E-18
6.220000E+03	8.615336E-17	2.853409E-18
6.230000E+03	8.661715E-17	2.833013E-18
6.240000E+03	8.709050E-17	2.814349E-18
6.250000E+03	8.759918E-17	2.798439E-18
6.260000E+03	8.813076E-17	2.785069E-18
6.270000E+03	8.868556E-17	2.774446E-18
6.280000E+03	8.925061E-17	2.766374E-18
6.290000E+03	8.985202E-17	2.761873E-18
6.300000E+03	9.047634E-17	2.760702E-18
6.310000E+03	9.112297E-17	2.762891E-18
6.320000E+03	9.177770E-17	2.768015E-18
6.330000E+03	9.246672E-17	2.776865E-18
6.340000E+03	9.317586E-17	2.789007E-18
6.350000E+03	9.389047E-17	2.803994E-18
6.360000E+03	9.463721E-17	2.822612E-18
6.370000E+03	9.540142E-17	2.844406E-18
6.380000E+03	9.616806E-17	2.868911E-18
6.390000E+03	9.696431E-17	2.896920E-18
6.400000E+03	9.776059E-17	2.927529E-18
6.410000E+03	9.858444E-17	2.961543E-18
6.420000E+03	9.940595E-17	2.998046E-18
6.430000E+03	1.002530E-16	3.037860E-18
6.440000E+03	1.010947E-16	3.080041E-18
6.450000E+03	1.019597E-16	3.125439E-18
6.460000E+03	1.028165E-16	3.173086E-18
6.470000E+03	1.036940E-16	3.223862E-18
6.480000E+03	1.045602E-16	3.276773E-18
6.490000E+03	1.054444E-16	3.332730E-18
6.500000E+03	1.063140E-16	3.390715E-18
6.510000E+03	1.071986E-16	3.451668E-18
6.520000E+03	1.080652E-16	3.514542E-18
6.530000E+03	1.089440E-16	3.580325E-18
6.540000E+03	1.098013E-16	3.647929E-18
6.550000E+03	1.106519E-16	3.717845E-18
6.560000E+03	1.115105E-16	3.790594E-18
6.570000E+03	1.123432E-16	3.865045E-18
6.580000E+03	1.131652E-16	3.941726E-18
6.590000E+03	1.139925E-16	4.021221E-18
6.600000E+03	1.147909E-16	4.102341E-18
6.610000E+03	1.155765E-16	4.185584E-18
6.620000E+03	1.163491E-16	4.270792E-18
6.630000E+03	1.171256E-16	4.358442E-18
6.640000E+03	1.178710E-16	4.447088E-18
6.650000E+03	1.186024E-16	4.537198E-18
6.660000E+03	1.193190E-16	4.628594E-18
6.670000E+03	1.200386E-16	4.721808E-18
6.680000E+03	1.207254E-16	4.815290E-18
6.690000E+03	1.213967E-16	4.909557E-18
6.700000E+03	1.220521E-16	5.004437E-18
6.710000E+03	1.226913E-16	5.099770E-18
6.720000E+03	1.233322E-16	5.196155E-18
6.730000E+03	1.239384E-16	5.291919E-18
6.740000E+03	1.245277E-16	5.387659E-18
6.750000E+03	1.250996E-16	5.483214E-18
6.760000E+03	1.256540E-16	5.578435E-18
6.770000E+03	1.261908E-16	5.673179E-18
6.780000E+03	1.267097E-16	5.767300E-18
6.790000E+03	1.272105E-16	5.860656E-18
6.800000E+03	1.276930E-16	5.953111E-18
6.810000E+03	1.281571E-16	6.044536E-18
6.820000E+03	1.286215E-16	6.135699E-18
6.830000E+03	1.290484E-16	6.224684E-18
6.840000E+03	1.294564E-16	6.312258E-18
6.850000E+03	1.298454E-16	6.398300E-18
6.860000E+03	1.302155E-16	6.482706E-18
6.870000E+03	1.305664E-16	6.565356E-18
6.880000E+03	1.308789E-16	6.645168E-18
6.890000E+03	1.311915E-16	6.723991E-18
6.900000E+03	1.314849E-16	6.800763E-18
6.910000E+03	1.317590E-16	6.875378E-18
6.920000E+03	1.320139E-16	6.947752E-18
6.930000E+03	1.322496E-16	7.017805E-18
6.940000E+03	1.324660E-16	7.085441E-18
6.950000E+03	1.326634E-16	7.150601E-18
6.960000E+03	1.328416E-16	7.213196E-18
6.970000E+03	1.330008E-16	7.273161E-18
6.980000E+03	1.331411E-16	7.330433E-18
6.990000E+03	1.332426E-16	7.383847E-18
7.000000E+03	1.333453E-16	7.435542E-18
7.010000E+03	1.334292E-16	7.484361E-18
7.020000E+03	1.334945E-16	7.530257E-18
7.030000E+03	1.335415E-16	7.573192E-18
7.040000E+03	1.335505E-16	7.611989E-18
7.050000E+03	1.335611E-16	7.648865E-18
7.060000E+03	1.335537E-16	7.682655E-18
7.070000E+03	1.335287E-16	7.713338E-18
7.080000E+03	1.334661E-16	7.739727E-18
7.090000E+03	1.334060E-16	7.764098E-18
7.100000E+03	1.333286E-16	7.785279E-18
7.110000E+03	1.332342E-16	7.803265E-18
7.120000E+03	1.331031E-16	7.816870E-18
7.130000E+03	1.329754E-16	7.828415E-18
7.140000E+03	1.328311E-16	7.836723E-18
7.150000E+03	1.326510E-16	7.840637E-18
7.160000E+03	1.324746E-16	7.842476E-18
7.170000E+03	1.322630E-16	7.839927E-18
7.180000E+03	1.320556E-16	7.835317E-18
7.190000E+03	1.318328E-16	7.827491E-18
7.200000E+03	1.315755E-16	7.815303E-18
7.210000E+03	1.313232E-16	7.801099E-18
7.220000E+03	1.310369E-16	7.782575E-18
7.230000E+03	1.307558E-16	7.762060E-18
7.240000E+03	1.304609E-16	7.738434E-18
7.250000E+03	1.301328E-16	7.710570E-18
7.260000E+03	1.298108E-16	7.680799E-18
7.270000E+03	1.294562E-16	7.646863E-18
7.280000E+03	1.291082E-16	7.611084E-18
7.290000E+03	1.287283E-16	7.571225E-18
7.300000E+03	1.283552E-16	7.529590E-18
7.310000E+03	1.279510E-16	7.483980E-18
7.320000E+03	1.275541E-16	7.436675E-18
7.330000E+03	1.271267E-16	7.385506E-18
7.340000E+03	1.266881E-16	7.331631E-18
7.350000E+03	1.262575E-16	7.276201E-18
7.360000E+03	1.257975E-16	7.217098E-18
7.370000E+03	1.253456E-16	7.156530E-18
7.380000E+03	1.248651E-16	7.092435E-18
7.390000E+03	1.243748E-16	7.025939E-18
7.400000E+03	1.238934E-16	6.958159E-18
7.410000E+03	1.233842E-16	6.887074E-18
7.420000E+03	1.228844E-16	6.814832E-18
7.430000E+03	1.223575E-16	6.739455E-18
7.440000E+03	1.218220E-16	6.662049E-18
7.450000E+03	1.212967E-16	6.583696E-18
7.460000E+03	1.207451E-16	6.502484E-18
7.470000E+03	1.201859E-16	6.419509E-18
7.480000E+03	1.196194E-16	6.334862E-18
7.490000E+03	1.190635E-16	6.249564E-18
7.500000E+03	1.184829E-16	6.161844E-18
7.510000E+03	1.178956E-16	6.072740E-18
7.520000E+03	1.173019E-16	5.982364E-18
7.530000E+03	1.167197E-16	5.891711E-18
7.540000E+03	1.161140E-16	5.799112E-18
7.550000E+03	1.155028E-16	5.705590E-18
7.560000E+03	1.148860E-16	5.611255E-18
7.570000E+03	1.142642E-16	5.516253E-18
7.580000E+03	1.136374E-16	5.420704E-18
7.590000E+03	1.130230E-16	5.325560E-18
7.600000E+03	1.123872E-16	5.229352E-18
7.610000E+03	1.117470E-16	5.133043E-18
7.620000E+03	1.111029E-16	5.036798E-18
7.630000E+03	1.104551E-16	4.940787E-18
7.640000E+03	1.098038E-16	4.845184E-18
7.650000E+03	1.091491E-16	4.750177E-18
7.660000E+03	1.084913E-16	4.655962E-18
7.670000E+03	1.078307E-16	4.562743E-18
7.680000E+03	1.071674E-16	4.470735E-18
7.690000E+03	1.065017E-16	4.380165E-18
7.700000E+03	1.058337E-16	4.291268E-18
7.710000E+03	1.051636E-16	4.204292E-18
7.720000E+03	1.044917E-16	4.119496E-18
7.730000E+03	1.038182E-16	4.037150E-18
7.740000E+03	1.031432E-16	3.957533E-18
7.750000E+03	1.024669E-16	3.880935E-18
7.760000E+03	1.017895E-16	3.807653E-18
