#wls	flux	fluxerr
1.600000E+03	1.096957E-17	4.445169E-18
1.640000E+03	1.129606E-17	4.546061E-18
1.680000E+03	1.163159E-17	4.648215E-18
1.720000E+03	1.198060E-17	4.753259E-18
1.760000E+03	1.234148E-17	4.860391E-18
1.800000E+03	1.271687E-17	4.970481E-18
1.840000E+03	1.310510E-17	5.082685E-18
1.880000E+03	1.350658E-17	5.196994E-18
1.920000E+03	1.392180E-17	5.313397E-18
1.960000E+03	1.435375E-17	5.432833E-18
2.000000E+03	1.480057E-17	5.554368E-18
2.040000E+03	1.526278E-17	5.677987E-18
2.080000E+03	1.574096E-17	5.803668E-18
2.120000E+03	1.623850E-17	5.932410E-18
2.160000E+03	1.675628E-17	6.064252E-18
2.200000E+03	1.728922E-17	6.197077E-18
2.240000E+03	1.784390E-17	6.332972E-18
2.280000E+03	1.842135E-17	6.471968E-18
2.320000E+03	1.901605E-17	6.611806E-18
2.360000E+03	1.963529E-17	6.754698E-18
2.400000E+03	2.028023E-17	6.900660E-18
2.440000E+03	2.094853E-17	7.048500E-18
2.480000E+03	2.164116E-17	7.198162E-18
2.520000E+03	2.235915E-17	7.349576E-18
2.560000E+03	2.310754E-17	7.503955E-18
2.600000E+03	2.388783E-17	7.661290E-18
2.640000E+03	2.469330E-17	7.818925E-18
2.680000E+03	2.553350E-17	7.979393E-18
2.720000E+03	2.641021E-17	8.142665E-18
2.760000E+03	2.732076E-17	8.307315E-18
2.800000E+03	2.826671E-17	8.473219E-18
2.840000E+03	2.925462E-17	8.641689E-18
2.880000E+03	3.028167E-17	8.811183E-18
2.920000E+03	3.134970E-17	8.981530E-18
2.960000E+03	3.246605E-17	9.154064E-18
3.000000E+03	3.362772E-17	9.327104E-18
3.010000E+03	3.392268E-17	9.369645E-18
3.020000E+03	3.422623E-17	9.413743E-18
3.030000E+03	3.453287E-17	9.457858E-18
3.040000E+03	3.483689E-17	9.500419E-18
3.050000E+03	3.514975E-17	9.544544E-18
3.060000E+03	3.546579E-17	9.588670E-18
3.070000E+03	3.577920E-17	9.631214E-18
3.080000E+03	3.610169E-17	9.675324E-18
3.090000E+03	3.642749E-17	9.719423E-18
3.100000E+03	3.675060E-17	9.761905E-18
3.110000E+03	3.708306E-17	9.805958E-18
3.120000E+03	3.741893E-17	9.849982E-18
3.130000E+03	3.775826E-17	9.893972E-18
3.140000E+03	3.810108E-17	9.937923E-18
3.150000E+03	3.844742E-17	9.981827E-18
3.160000E+03	3.879734E-17	1.002568E-17
3.170000E+03	3.914450E-17	1.006784E-17
3.180000E+03	3.950163E-17	1.011156E-17
3.190000E+03	3.986244E-17	1.015522E-17
3.200000E+03	4.022699E-17	1.019879E-17
3.210000E+03	4.059530E-17	1.024228E-17
3.220000E+03	4.096743E-17	1.028568E-17
3.230000E+03	4.134340E-17	1.032898E-17
3.240000E+03	4.172327E-17	1.037217E-17
3.250000E+03	4.210707E-17	1.041525E-17
3.260000E+03	4.249484E-17	1.045820E-17
3.270000E+03	4.289355E-17	1.050271E-17
3.280000E+03	4.328946E-17	1.054539E-17
3.290000E+03	4.368945E-17	1.058792E-17
3.300000E+03	4.409359E-17	1.063030E-17
3.310000E+03	4.450190E-17	1.067250E-17
3.320000E+03	4.491443E-17	1.071452E-17
3.330000E+03	4.533123E-17	1.075635E-17
3.340000E+03	4.575966E-17	1.079972E-17
3.350000E+03	4.618516E-17	1.084115E-17
3.360000E+03	4.661503E-17	1.088235E-17
3.370000E+03	4.704933E-17	1.092332E-17
3.380000E+03	4.749569E-17	1.096581E-17
3.390000E+03	4.793902E-17	1.100628E-17
3.400000E+03	4.838689E-17	1.104649E-17
3.410000E+03	4.884712E-17	1.108818E-17
3.420000E+03	4.930426E-17	1.112782E-17
3.430000E+03	4.976604E-17	1.116714E-17
3.440000E+03	5.024052E-17	1.120793E-17
3.450000E+03	5.071179E-17	1.124661E-17
3.460000E+03	5.118783E-17	1.128493E-17
3.470000E+03	5.167687E-17	1.132468E-17
3.480000E+03	5.216261E-17	1.136226E-17
3.490000E+03	5.266157E-17	1.140125E-17
3.500000E+03	5.315717E-17	1.143802E-17
3.510000E+03	5.366618E-17	1.147619E-17
3.520000E+03	5.417174E-17	1.151209E-17
3.530000E+03	5.468229E-17	1.154753E-17
3.540000E+03	5.520660E-17	1.158432E-17
3.550000E+03	5.572730E-17	1.161878E-17
3.560000E+03	5.626195E-17	1.165457E-17
3.570000E+03	5.679293E-17	1.168798E-17
3.580000E+03	5.733804E-17	1.172269E-17
3.590000E+03	5.787937E-17	1.175497E-17
3.600000E+03	5.843503E-17	1.178852E-17
3.610000E+03	5.899605E-17	1.182145E-17
3.620000E+03	5.955311E-17	1.185189E-17
3.630000E+03	6.012481E-17	1.188354E-17
3.640000E+03	6.069241E-17	1.191265E-17
3.650000E+03	6.127484E-17	1.194292E-17
3.660000E+03	6.185304E-17	1.197060E-17
3.670000E+03	6.244625E-17	1.199940E-17
3.680000E+03	6.304490E-17	1.202743E-17
3.690000E+03	6.363908E-17	1.205280E-17
3.700000E+03	6.424854E-17	1.207922E-17
3.710000E+03	6.485336E-17	1.210291E-17
3.720000E+03	6.547362E-17	1.212762E-17
3.730000E+03	6.609933E-17	1.215144E-17
3.740000E+03	6.672012E-17	1.217244E-17
3.750000E+03	6.735658E-17	1.219438E-17
3.760000E+03	6.799845E-17	1.221535E-17
3.770000E+03	6.863509E-17	1.223341E-17
3.780000E+03	6.928762E-17	1.225234E-17
3.790000E+03	6.993469E-17	1.226832E-17
3.800000E+03	7.059778E-17	1.228510E-17
3.810000E+03	7.126614E-17	1.230076E-17
3.820000E+03	7.192868E-17	1.231338E-17
3.830000E+03	7.260740E-17	1.232671E-17
3.840000E+03	7.329128E-17	1.233884E-17
3.850000E+03	7.396892E-17	1.234783E-17
3.860000E+03	7.466287E-17	1.235745E-17
3.870000E+03	7.536183E-17	1.236577E-17
3.880000E+03	7.605408E-17	1.237087E-17
3.890000E+03	7.676277E-17	1.237650E-17
3.900000E+03	7.746441E-17	1.237884E-17
3.910000E+03	7.818253E-17	1.238165E-17
3.920000E+03	7.890530E-17	1.238301E-17
3.930000E+03	7.962049E-17	1.238099E-17
3.940000E+03	8.035220E-17	1.237934E-17
3.950000E+03	8.108829E-17	1.237615E-17
3.960000E+03	8.181620E-17	1.236948E-17
3.970000E+03	8.256064E-17	1.236309E-17
3.980000E+03	8.329647E-17	1.235318E-17
3.990000E+03	8.404879E-17	1.234348E-17
4.000000E+03	8.480492E-17	1.233206E-17
4.010000E+03	8.555178E-17	1.231705E-17
4.020000E+03	8.631503E-17	1.230213E-17
4.030000E+03	8.706852E-17	1.228357E-17
4.040000E+03	8.783833E-17	1.226504E-17
4.050000E+03	8.861124E-17	1.224465E-17
4.060000E+03	8.937358E-17	1.222054E-17
4.070000E+03	9.015208E-17	1.219637E-17
4.080000E+03	9.091948E-17	1.216843E-17
4.090000E+03	9.170287E-17	1.214037E-17
4.100000E+03	9.247458E-17	1.210850E-17
4.110000E+03	9.326211E-17	1.207645E-17
4.120000E+03	9.403735E-17	1.204056E-17
4.130000E+03	9.482821E-17	1.200443E-17
4.140000E+03	9.560614E-17	1.196443E-17
4.150000E+03	9.639947E-17	1.192413E-17
4.160000E+03	9.717921E-17	1.187994E-17
4.170000E+03	9.797409E-17	1.183541E-17
4.180000E+03	9.875468E-17	1.178698E-17
4.190000E+03	9.953529E-17	1.173641E-17
4.200000E+03	1.003306E-16	1.168543E-17
4.210000E+03	1.011105E-16	1.163054E-17
4.220000E+03	1.018897E-16	1.157348E-17
4.230000E+03	1.026831E-16	1.151597E-17
4.240000E+03	1.034599E-16	1.145456E-17
4.250000E+03	1.042507E-16	1.139268E-17
4.260000E+03	1.050241E-16	1.132691E-17
4.270000E+03	1.057953E-16	1.125899E-17
4.280000E+03	1.065639E-16	1.118891E-17
4.290000E+03	1.073457E-16	1.111832E-17
4.300000E+03	1.081084E-16	1.104395E-17
4.310000E+03	1.088677E-16	1.096746E-17
4.320000E+03	1.096231E-16	1.088888E-17
4.330000E+03	1.103745E-16	1.080822E-17
4.340000E+03	1.111377E-16	1.072711E-17
4.350000E+03	1.118798E-16	1.064237E-17
4.360000E+03	1.126168E-16	1.055567E-17
4.370000E+03	1.133481E-16	1.046701E-17
4.380000E+03	1.140736E-16	1.037647E-17
4.390000E+03	1.147929E-16	1.028407E-17
4.400000E+03	1.155056E-16	1.018988E-17
4.410000E+03	1.162113E-16	1.009395E-17
4.420000E+03	1.169096E-16	9.996324E-18
4.430000E+03	1.176003E-16	9.897097E-18
4.440000E+03	1.182829E-16	9.796330E-18
4.450000E+03	1.189570E-16	9.694093E-18
4.460000E+03	1.196223E-16	9.590480E-18
4.470000E+03	1.202784E-16	9.485574E-18
4.480000E+03	1.209248E-16	9.379463E-18
4.490000E+03	1.215613E-16	9.272260E-18
4.500000E+03	1.221696E-16	9.162735E-18
4.510000E+03	1.227849E-16	9.053686E-18
4.520000E+03	1.233892E-16	8.943884E-18
4.530000E+03	1.239819E-16	8.833451E-18
4.540000E+03	1.245446E-16	8.721257E-18
4.550000E+03	1.251131E-16	8.610000E-18
4.560000E+03	1.256690E-16	8.498544E-18
4.570000E+03	1.261935E-16	8.385821E-18
4.580000E+03	1.267229E-16	8.274454E-18
4.590000E+03	1.272386E-16	8.163377E-18
4.600000E+03	1.277216E-16	8.051601E-18
4.610000E+03	1.282085E-16	7.941667E-18
4.620000E+03	1.286620E-16	7.831450E-18
4.630000E+03	1.291188E-16	7.723432E-18
4.640000E+03	1.295413E-16	7.615575E-18
4.650000E+03	1.299666E-16	7.510309E-18
4.660000E+03	1.303566E-16	7.405665E-18
4.670000E+03	1.307301E-16	7.302979E-18
4.680000E+03	1.311053E-16	7.203508E-18
4.690000E+03	1.314444E-16	7.105411E-18
4.700000E+03	1.317657E-16	7.009962E-18
4.710000E+03	1.320880E-16	6.918401E-18
4.720000E+03	1.323731E-16	6.828971E-18
4.730000E+03	1.326396E-16	6.742910E-18
4.740000E+03	1.328871E-16	6.660457E-18
4.750000E+03	1.331156E-16	6.581844E-18
4.760000E+03	1.333249E-16	6.507300E-18
4.770000E+03	1.335144E-16	6.437028E-18
4.780000E+03	1.336842E-16	6.371240E-18
4.790000E+03	1.338341E-16	6.310126E-18
4.800000E+03	1.339639E-16	6.253864E-18
4.810000E+03	1.340736E-16	6.202590E-18
4.820000E+03	1.341632E-16	6.156273E-18
4.830000E+03	1.342327E-16	6.114773E-18
4.840000E+03	1.342823E-16	6.077936E-18
4.850000E+03	1.343123E-16	6.045596E-18
4.860000E+03	1.343225E-16	6.017552E-18
4.870000E+03	1.342943E-16	5.992751E-18
4.880000E+03	1.342662E-16	5.972688E-18
4.890000E+03	1.342191E-16	5.956272E-18
4.900000E+03	1.341343E-16	5.942422E-18
4.910000E+03	1.340501E-16	5.932584E-18
4.920000E+03	1.339477E-16	5.925665E-18
4.930000E+03	1.338083E-16	5.920569E-18
4.940000E+03	1.336704E-16	5.918736E-18
4.950000E+03	1.334961E-16	5.918226E-18
4.960000E+03	1.333236E-16	5.920478E-18
4.970000E+03	1.331156E-16	5.923576E-18
4.980000E+03	1.328911E-16	5.928124E-18
4.990000E+03	1.326693E-16	5.934734E-18
5.000000E+03	1.324129E-16	5.941505E-18
5.010000E+03	1.321411E-16	5.949077E-18
5.020000E+03	1.318727E-16	5.958085E-18
5.030000E+03	1.315710E-16	5.966664E-18
5.040000E+03	1.312549E-16	5.975483E-18
5.050000E+03	1.309246E-16	5.984364E-18
5.060000E+03	1.305807E-16	5.993163E-18
5.070000E+03	1.302235E-16	6.001740E-18
5.080000E+03	1.298716E-16	6.010800E-18
5.090000E+03	1.294888E-16	6.018539E-18
5.100000E+03	1.290938E-16	6.025686E-18
5.110000E+03	1.286688E-16	6.031302E-18
5.120000E+03	1.282505E-16	6.036992E-18
5.130000E+03	1.278212E-16	6.041833E-18
5.140000E+03	1.273813E-16	6.045757E-18
5.150000E+03	1.269311E-16	6.048705E-18
5.160000E+03	1.264711E-16	6.050632E-18
5.170000E+03	1.259838E-16	6.050640E-18
5.180000E+03	1.255052E-16	6.050404E-18
5.190000E+03	1.250180E-16	6.049048E-18
5.200000E+03	1.245050E-16	6.045708E-18
5.210000E+03	1.240017E-16	6.042071E-18
5.220000E+03	1.234908E-16	6.037286E-18
5.230000E+03	1.229557E-16	6.030513E-18
5.240000E+03	1.224312E-16	6.023456E-18
5.250000E+03	1.218833E-16	6.014436E-18
5.260000E+03	1.213466E-16	6.005161E-18
5.270000E+03	1.207875E-16	5.993982E-18
5.280000E+03	1.202233E-16	5.981759E-18
5.290000E+03	1.196714E-16	5.969373E-18
5.300000E+03	1.190984E-16	5.955188E-18
5.310000E+03	1.185215E-16	5.940080E-18
5.320000E+03	1.179411E-16	5.924091E-18
5.330000E+03	1.173740E-16	5.908103E-18
5.340000E+03	1.167878E-16	5.890509E-18
5.350000E+03	1.161991E-16	5.872190E-18
5.360000E+03	1.156082E-16	5.853194E-18
5.370000E+03	1.150158E-16	5.833589E-18
5.380000E+03	1.144219E-16	5.813422E-18
5.390000E+03	1.138269E-16	5.792753E-18
5.400000E+03	1.132313E-16	5.771645E-18
5.410000E+03	1.126353E-16	5.750157E-18
5.420000E+03	1.120391E-16	5.728341E-18
5.430000E+03	1.114433E-16	5.706264E-18
5.440000E+03	1.108479E-16	5.683981E-18
5.450000E+03	1.102380E-16	5.660762E-18
5.460000E+03	1.096447E-16	5.638243E-18
5.470000E+03	1.090529E-16	5.615624E-18
5.480000E+03	1.084630E-16	5.592866E-18
5.490000E+03	1.078606E-16	5.569169E-18
5.500000E+03	1.072761E-16	5.546046E-18
5.510000E+03	1.066950E-16	5.522700E-18
5.520000E+03	1.061029E-16	5.498324E-18
5.530000E+03	1.055300E-16	5.474438E-18
5.540000E+03	1.049473E-16	5.449484E-18
5.550000E+03	1.043844E-16	5.424962E-18
5.560000E+03	1.038128E-16	5.399338E-18
5.570000E+03	1.032617E-16	5.374094E-18
5.580000E+03	1.027030E-16	5.347722E-18
5.590000E+03	1.021514E-16	5.320953E-18
5.600000E+03	1.016215E-16	5.294508E-18
5.610000E+03	1.010853E-16	5.266901E-18
5.620000E+03	1.005575E-16	5.238858E-18
5.630000E+03	1.000384E-16	5.210371E-18
5.640000E+03	9.954207E-17	5.182146E-18
5.650000E+03	9.904144E-17	5.152742E-18
5.660000E+03	9.855058E-17	5.122870E-18
5.670000E+03	9.806989E-17	5.092529E-18
5.680000E+03	9.759976E-17	5.061719E-18
5.690000E+03	9.714031E-17	5.030425E-18
5.700000E+03	9.669210E-17	4.998661E-18
5.710000E+03	9.625534E-17	4.966420E-18
5.720000E+03	9.583031E-17	4.933702E-18
5.730000E+03	9.541729E-17	4.900510E-18
5.740000E+03	9.501667E-17	4.866849E-18
5.750000E+03	9.462864E-17	4.832719E-18
5.760000E+03	9.425364E-17	4.798133E-18
5.770000E+03	9.387870E-17	4.762424E-18
5.780000E+03	9.353039E-17	4.726934E-18
5.790000E+03	9.319578E-17	4.690999E-18
5.800000E+03	9.287516E-17	4.654626E-18
5.810000E+03	9.255597E-17	4.617184E-18
5.820000E+03	9.226425E-17	4.579972E-18
5.830000E+03	9.198726E-17	4.542347E-18
5.840000E+03	9.171270E-17	4.503702E-18
5.850000E+03	9.146613E-17	4.465294E-18
5.860000E+03	9.123505E-17	4.426505E-18
5.870000E+03	9.100732E-17	4.386749E-18
5.880000E+03	9.080821E-17	4.347249E-18
5.890000E+03	9.061289E-17	4.306814E-18
5.900000E+03	9.044675E-17	4.266657E-18
5.910000E+03	9.028486E-17	4.225600E-18
5.920000E+03	9.014019E-17	4.184265E-18
5.930000E+03	9.002542E-17	4.143240E-18
5.940000E+03	8.991578E-17	4.101388E-18
5.950000E+03	8.983649E-17	4.059871E-18
5.960000E+03	8.976291E-17	4.017581E-18
5.970000E+03	8.970775E-17	3.975107E-18
5.980000E+03	8.967134E-17	3.932479E-18
5.990000E+03	8.966627E-17	3.890256E-18
6.000000E+03	8.966809E-17	3.847390E-18
6.010000E+03	8.968940E-17	3.804453E-18
6.020000E+03	8.973058E-17	3.761484E-18
6.030000E+03	8.979177E-17	3.718514E-18
6.040000E+03	8.987345E-17	3.675592E-18
6.050000E+03	8.998818E-17	3.633259E-18
6.060000E+03	9.011149E-17	3.590558E-18
6.070000E+03	9.025603E-17	3.548048E-18
6.080000E+03	9.042226E-17	3.505796E-18
6.090000E+03	9.061030E-17	3.463859E-18
6.100000E+03	9.082062E-17	3.422316E-18
6.110000E+03	9.105352E-17	3.381245E-18
6.120000E+03	9.130927E-17	3.340731E-18
6.130000E+03	9.157550E-17	3.300413E-18
6.140000E+03	9.187795E-17	3.261317E-18
6.150000E+03	9.220431E-17	3.223096E-18
6.160000E+03	9.255490E-17	3.185873E-18
6.170000E+03	9.293013E-17	3.149787E-18
6.180000E+03	9.333033E-17	3.114986E-18
6.190000E+03	9.374294E-17	3.081206E-18
6.200000E+03	9.419408E-17	3.049474E-18
6.210000E+03	9.467141E-17	3.019552E-18
6.220000E+03	9.517519E-17	2.991638E-18
6.230000E+03	9.569251E-17	2.965533E-18
6.240000E+03	9.625028E-17	2.942292E-18
6.250000E+03	9.683551E-17	2.921734E-18
6.260000E+03	9.743522E-17	2.903708E-18
6.270000E+03	9.807653E-17	2.889277E-18
6.280000E+03	9.874604E-17	2.878291E-18
6.290000E+03	9.942995E-17	2.870611E-18
6.300000E+03	1.001549E-16	2.867248E-18
6.310000E+03	1.008924E-16	2.867457E-18
6.320000E+03	1.016696E-16	2.872004E-18
6.330000E+03	1.024571E-16	2.880058E-18
6.340000E+03	1.032825E-16	2.892376E-18
6.350000E+03	1.041159E-16	2.908102E-18
6.360000E+03	1.049851E-16	2.927990E-18
6.370000E+03	1.058600E-16	2.951168E-18
6.380000E+03	1.067538E-16	2.977975E-18
6.390000E+03	1.076802E-16	3.008757E-18
6.400000E+03	1.086081E-16	3.042619E-18
6.410000E+03	1.095663E-16	3.080332E-18
6.420000E+03	1.105230E-16	3.120976E-18
6.430000E+03	1.114919E-16	3.164904E-18
6.440000E+03	1.124717E-16	3.212054E-18
6.450000E+03	1.134763E-16	3.262810E-18
6.460000E+03	1.144729E-16	3.316219E-18
6.470000E+03	1.154756E-16	3.372670E-18
6.480000E+03	1.164825E-16	3.432109E-18
6.490000E+03	1.175084E-16	3.494977E-18
6.500000E+03	1.185190E-16	3.560269E-18
6.510000E+03	1.195287E-16	3.628420E-18
6.520000E+03	1.205357E-16	3.699393E-18
6.530000E+03	1.215382E-16	3.773159E-18
6.540000E+03	1.225343E-16	3.849690E-18
6.550000E+03	1.235223E-16	3.928957E-18
6.560000E+03	1.245177E-16	4.011498E-18
6.570000E+03	1.254845E-16	4.096197E-18
6.580000E+03	1.264385E-16	4.183588E-18
6.590000E+03	1.273785E-16	4.273674E-18
6.600000E+03	1.283037E-16	4.366461E-18
6.610000E+03	1.292135E-16	4.461867E-18
6.620000E+03	1.301072E-16	4.559698E-18
6.630000E+03	1.309845E-16	4.659759E-18
6.640000E+03	1.318450E-16	4.761846E-18
6.650000E+03	1.326881E-16	4.865751E-18
6.660000E+03	1.334950E-16	4.970587E-18
6.670000E+03	1.343022E-16	5.077508E-18
6.680000E+03	1.350909E-16	5.185639E-18
6.690000E+03	1.358608E-16	5.294773E-18
6.700000E+03	1.366115E-16	5.404717E-18
6.710000E+03	1.373427E-16	5.515268E-18
6.720000E+03	1.380542E-16	5.626239E-18
6.730000E+03	1.387263E-16	5.736635E-18
6.740000E+03	1.393971E-16	5.847849E-18
6.750000E+03	1.400475E-16	5.958921E-18
6.760000E+03	1.406769E-16	6.069662E-18
6.770000E+03	1.412853E-16	6.179907E-18
6.780000E+03	1.418528E-16	6.288609E-18
6.790000E+03	1.424185E-16	6.397333E-18
6.800000E+03	1.429625E-16	6.505055E-18
6.810000E+03	1.434649E-16	6.610702E-18
6.820000E+03	1.439653E-16	6.715946E-18
6.830000E+03	1.444437E-16	6.819732E-18
6.840000E+03	1.448800E-16	6.920956E-18
6.850000E+03	1.453142E-16	7.021393E-18
6.860000E+03	1.457262E-16	7.119956E-18
6.870000E+03	1.460955E-16	7.215510E-18
6.880000E+03	1.464629E-16	7.309931E-18
6.890000E+03	1.467877E-16	7.401080E-18
6.900000E+03	1.471106E-16	7.490886E-18
6.910000E+03	1.473906E-16	7.577165E-18
6.920000E+03	1.476689E-16	7.661914E-18
6.930000E+03	1.479046E-16	7.742910E-18
6.940000E+03	1.481387E-16	7.822205E-18
6.950000E+03	1.483301E-16	7.897535E-18
6.960000E+03	1.485202E-16	7.971008E-18
6.970000E+03	1.486678E-16	8.040336E-18
6.980000E+03	1.488146E-16	8.107674E-18
6.990000E+03	1.489190E-16	8.170691E-18
7.000000E+03	1.490228E-16	8.231596E-18
7.010000E+03	1.490845E-16	8.288035E-18
7.020000E+03	1.491252E-16	8.341094E-18
7.030000E+03	1.491659E-16	8.391896E-18
7.040000E+03	1.491650E-16	8.438051E-18
7.050000E+03	1.491438E-16	8.480683E-18
7.060000E+03	1.491231E-16	8.520940E-18
7.070000E+03	1.490616E-16	8.556416E-18
7.080000E+03	1.489804E-16	8.588262E-18
7.090000E+03	1.489004E-16	8.617656E-18
7.100000E+03	1.487803E-16	8.642168E-18
7.110000E+03	1.486411E-16	8.662980E-18
7.120000E+03	1.484834E-16	8.680088E-18
7.130000E+03	1.483279E-16	8.694690E-18
7.140000E+03	1.481333E-16	8.704344E-18
7.150000E+03	1.479210E-16	8.710278E-18
7.160000E+03	1.476911E-16	8.712476E-18
7.170000E+03	1.474438E-16	8.710949E-18
7.180000E+03	1.471795E-16	8.705703E-18
7.190000E+03	1.469192E-16	8.697982E-18
7.200000E+03	1.466219E-16	8.685353E-18
7.210000E+03	1.463084E-16	8.669052E-18
7.220000E+03	1.459792E-16	8.649105E-18
7.230000E+03	1.456346E-16	8.625537E-18
7.240000E+03	1.452749E-16	8.598380E-18
7.250000E+03	1.449002E-16	8.567657E-18
7.260000E+03	1.445112E-16	8.533415E-18
7.270000E+03	1.441080E-16	8.495690E-18
7.280000E+03	1.436911E-16	8.454522E-18
7.290000E+03	1.432605E-16	8.409951E-18
7.300000E+03	1.428168E-16	8.362029E-18
7.310000E+03	1.423602E-16	8.310805E-18
7.320000E+03	1.418910E-16	8.256329E-18
7.330000E+03	1.414097E-16	8.198662E-18
7.340000E+03	1.409166E-16	8.137866E-18
7.350000E+03	1.403919E-16	8.072851E-18
7.360000E+03	1.398758E-16	8.005973E-18
7.370000E+03	1.393489E-16	7.936160E-18
7.380000E+03	1.388114E-16	7.863474E-18
7.390000E+03	1.382635E-16	7.787984E-18
7.400000E+03	1.377056E-16	7.709771E-18
7.410000E+03	1.371186E-16	7.627833E-18
7.420000E+03	1.365416E-16	7.544416E-18
7.430000E+03	1.359557E-16	7.458521E-18
7.440000E+03	1.353610E-16	7.370234E-18
7.450000E+03	1.347386E-16	7.278607E-18
7.460000E+03	1.341272E-16	7.185809E-18
7.470000E+03	1.335080E-16	7.090902E-18
7.480000E+03	1.328811E-16	6.993978E-18
7.490000E+03	1.322282E-16	6.894165E-18
7.500000E+03	1.315869E-16	6.793533E-18
7.510000E+03	1.309205E-16	6.690269E-18
7.520000E+03	1.302661E-16	6.586385E-18
7.530000E+03	1.296055E-16	6.481046E-18
7.540000E+03	1.289206E-16	6.373473E-18
7.550000E+03	1.282485E-16	6.265619E-18
7.560000E+03	1.275527E-16	6.155822E-18
7.570000E+03	1.268701E-16	6.045998E-18
7.580000E+03	1.261645E-16	5.934553E-18
7.590000E+03	1.254723E-16	5.823352E-18
7.600000E+03	1.247580E-16	5.710885E-18
7.610000E+03	1.240573E-16	5.598967E-18
7.620000E+03	1.233350E-16	5.486163E-18
7.630000E+03	1.226266E-16	5.374245E-18
7.640000E+03	1.218974E-16	5.261870E-18
7.650000E+03	1.211823E-16	5.150764E-18
7.660000E+03	1.204469E-16	5.039661E-18
7.670000E+03	1.197090E-16	4.929561E-18
7.680000E+03	1.189855E-16	4.821394E-18
7.690000E+03	1.182427E-16	4.714036E-18
7.700000E+03	1.174978E-16	4.608474E-18
7.710000E+03	1.167677E-16	4.505647E-18
7.720000E+03	1.160192E-16	4.404569E-18
7.730000E+03	1.152692E-16	4.306228E-18
7.740000E+03	1.145180E-16	4.210975E-18
7.750000E+03	1.137818E-16	4.119757E-18
7.760000E+03	1.130283E-16	4.031766E-18
