#wls	flux	fluxerr
1.600000E+03	8.508550E-18	3.110215E-18
1.640000E+03	8.756133E-18	3.179742E-18
1.680000E+03	9.014362E-18	3.251558E-18
1.720000E+03	9.282079E-18	3.325134E-18
1.760000E+03	9.559679E-18	3.400503E-18
1.800000E+03	9.847572E-18	3.477696E-18
1.840000E+03	1.014619E-17	3.556742E-18
1.880000E+03	1.045783E-17	3.638317E-18
1.920000E+03	1.077930E-17	3.721171E-18
1.960000E+03	1.111489E-17	3.806640E-18
2.000000E+03	1.146325E-17	3.894108E-18
2.040000E+03	1.182494E-17	3.983601E-18
2.080000E+03	1.220053E-17	4.075145E-18
2.120000E+03	1.259063E-17	4.168766E-18
2.160000E+03	1.299819E-17	4.265243E-18
2.200000E+03	1.341935E-17	4.363105E-18
2.240000E+03	1.385948E-17	4.463897E-18
2.280000E+03	1.431704E-17	4.566885E-18
2.320000E+03	1.479282E-17	4.672085E-18
2.360000E+03	1.528765E-17	4.779509E-18
2.400000E+03	1.580517E-17	4.890027E-18
2.440000E+03	1.634085E-17	5.001947E-18
2.480000E+03	1.690127E-17	5.117001E-18
2.520000E+03	1.748470E-17	5.234332E-18
2.560000E+03	1.809219E-17	5.353924E-18
2.600000E+03	1.872487E-17	5.475765E-18
2.640000E+03	1.938728E-17	5.600802E-18
2.680000E+03	2.007400E-17	5.727068E-18
2.720000E+03	2.079320E-17	5.856493E-18
2.760000E+03	2.154283E-17	5.988040E-18
2.800000E+03	2.232431E-17	6.121640E-18
2.840000E+03	2.313907E-17	6.257200E-18
2.880000E+03	2.398863E-17	6.394621E-18
2.920000E+03	2.487884E-17	6.534902E-18
2.960000E+03	2.580285E-17	6.675661E-18
3.000000E+03	2.677107E-17	6.819003E-18
3.010000E+03	2.701840E-17	6.854748E-18
3.020000E+03	2.726833E-17	6.890565E-18
3.030000E+03	2.752564E-17	6.927642E-18
3.040000E+03	2.778091E-17	6.963600E-18
3.050000E+03	2.803886E-17	6.999617E-18
3.060000E+03	2.829954E-17	7.035693E-18
3.070000E+03	2.856785E-17	7.073033E-18
3.080000E+03	2.883407E-17	7.109216E-18
3.090000E+03	2.910309E-17	7.145444E-18
3.100000E+03	2.937494E-17	7.181711E-18
3.110000E+03	2.965471E-17	7.219250E-18
3.120000E+03	2.993233E-17	7.255588E-18
3.130000E+03	3.021284E-17	7.291951E-18
3.140000E+03	3.050151E-17	7.329589E-18
3.150000E+03	3.078796E-17	7.365993E-18
3.160000E+03	3.107741E-17	7.402408E-18
3.170000E+03	3.136986E-17	7.438824E-18
3.180000E+03	3.167077E-17	7.476517E-18
3.190000E+03	3.196938E-17	7.512930E-18
3.200000E+03	3.227108E-17	7.549327E-18
3.210000E+03	3.258146E-17	7.586999E-18
3.220000E+03	3.288948E-17	7.623354E-18
3.230000E+03	3.320633E-17	7.660980E-18
3.240000E+03	3.352077E-17	7.697265E-18
3.250000E+03	3.383844E-17	7.733502E-18
3.260000E+03	3.416517E-17	7.771003E-18
3.270000E+03	3.448941E-17	7.807126E-18
3.280000E+03	3.481696E-17	7.843177E-18
3.290000E+03	3.515381E-17	7.880487E-18
3.300000E+03	3.548808E-17	7.916375E-18
3.310000E+03	3.583181E-17	7.953518E-18
3.320000E+03	3.617291E-17	7.989211E-18
3.330000E+03	3.651744E-17	8.024790E-18
3.340000E+03	3.687166E-17	8.061611E-18
3.350000E+03	3.722314E-17	8.096938E-18
3.360000E+03	3.758449E-17	8.133501E-18
3.370000E+03	3.794302E-17	8.168538E-18
3.380000E+03	3.831158E-17	8.204801E-18
3.390000E+03	3.867726E-17	8.239508E-18
3.400000E+03	3.905312E-17	8.275430E-18
3.410000E+03	3.942601E-17	8.309763E-18
3.420000E+03	3.980924E-17	8.345299E-18
3.430000E+03	4.018942E-17	8.379209E-18
3.440000E+03	4.057324E-17	8.412893E-18
3.450000E+03	4.096763E-17	8.447758E-18
3.460000E+03	4.135883E-17	8.480950E-18
3.470000E+03	4.176076E-17	8.515311E-18
3.480000E+03	4.215940E-17	8.547959E-18
3.490000E+03	4.256892E-17	8.581760E-18
3.500000E+03	4.297506E-17	8.613815E-18
3.510000E+03	4.339222E-17	8.647004E-18
3.520000E+03	4.380587E-17	8.678407E-18
3.530000E+03	4.423071E-17	8.710928E-18
3.540000E+03	4.465192E-17	8.741623E-18
3.550000E+03	4.508446E-17	8.773414E-18
3.560000E+03	4.551324E-17	8.803341E-18
3.570000E+03	4.595349E-17	8.834344E-18
3.580000E+03	4.638985E-17	8.863440E-18
3.590000E+03	4.683782E-17	8.893590E-18
3.600000E+03	4.728175E-17	8.921791E-18
3.610000E+03	4.773743E-17	8.951020E-18
3.620000E+03	4.819699E-17	8.979766E-18
3.630000E+03	4.865228E-17	9.006503E-18
3.640000E+03	4.911950E-17	9.034225E-18
3.650000E+03	4.958229E-17	9.059896E-18
3.660000E+03	5.005715E-17	9.086525E-18
3.670000E+03	5.052736E-17	9.111056E-18
3.680000E+03	5.100978E-17	9.136518E-18
3.690000E+03	5.148737E-17	9.159836E-18
3.700000E+03	5.197726E-17	9.184053E-18
3.710000E+03	5.246213E-17	9.206083E-18
3.720000E+03	5.295939E-17	9.228977E-18
3.730000E+03	5.345143E-17	9.249639E-18
3.740000E+03	5.395597E-17	9.271134E-18
3.750000E+03	5.446412E-17	9.291898E-18
3.760000E+03	5.496669E-17	9.310360E-18
3.770000E+03	5.548189E-17	9.329600E-18
3.780000E+03	5.599125E-17	9.346490E-18
3.790000E+03	5.651333E-17	9.364124E-18
3.800000E+03	5.702931E-17	9.379360E-18
3.810000E+03	5.755805E-17	9.395300E-18
3.820000E+03	5.808043E-17	9.408798E-18
3.830000E+03	5.861563E-17	9.422960E-18
3.840000E+03	5.914418E-17	9.434634E-18
3.850000E+03	5.968559E-17	9.446933E-18
3.860000E+03	6.022004E-17	9.456695E-18
3.870000E+03	6.076738E-17	9.467042E-18
3.880000E+03	6.130744E-17	9.474807E-18
3.890000E+03	6.186041E-17	9.483116E-18
3.900000E+03	6.241611E-17	9.490372E-18
3.910000E+03	6.296403E-17	9.494982E-18
3.920000E+03	6.352484E-17	9.500070E-18
3.930000E+03	6.407752E-17	9.502469E-18
3.940000E+03	6.464306E-17	9.505302E-18
3.950000E+03	6.520010E-17	9.505406E-18
3.960000E+03	6.576998E-17	9.505901E-18
3.970000E+03	6.633094E-17	9.503625E-18
3.980000E+03	6.690469E-17	9.501700E-18
3.990000E+03	6.746912E-17	9.496966E-18
4.000000E+03	6.804627E-17	9.492540E-18
4.010000E+03	6.861367E-17	9.485269E-18
4.020000E+03	6.919372E-17	9.478265E-18
4.030000E+03	6.976354E-17	9.468383E-18
4.040000E+03	7.034592E-17	9.458728E-18
4.050000E+03	7.091762E-17	9.446163E-18
4.060000E+03	7.150174E-17	9.433786E-18
4.070000E+03	7.207470E-17	9.418474E-18
4.080000E+03	7.264800E-17	9.401765E-18
4.090000E+03	7.323353E-17	9.385191E-18
4.100000E+03	7.380712E-17	9.365646E-18
4.110000E+03	7.439277E-17	9.346201E-18
4.120000E+03	7.496595E-17	9.323767E-18
4.130000E+03	7.555101E-17	9.301402E-18
4.140000E+03	7.612304E-17	9.276036E-18
4.150000E+03	7.670675E-17	9.250710E-18
4.160000E+03	7.727688E-17	9.222377E-18
4.170000E+03	7.784569E-17	9.192551E-18
4.180000E+03	7.842586E-17	9.162730E-18
4.190000E+03	7.899154E-17	9.129901E-18
4.200000E+03	7.956831E-17	9.097057E-18
4.210000E+03	8.013000E-17	9.061212E-18
4.220000E+03	8.068932E-17	9.023864E-18
4.230000E+03	8.125933E-17	8.986482E-18
4.240000E+03	8.181329E-17	8.946124E-18
4.250000E+03	8.236420E-17	8.904272E-18
4.260000E+03	8.292535E-17	8.862381E-18
4.270000E+03	8.346949E-17	8.817556E-18
4.280000E+03	8.400984E-17	8.771264E-18
4.290000E+03	8.455994E-17	8.724940E-18
4.300000E+03	8.509205E-17	8.675746E-18
4.310000E+03	8.561960E-17	8.625127E-18
4.320000E+03	8.615640E-17	8.574503E-18
4.330000E+03	8.667417E-17	8.521090E-18
4.340000E+03	8.718662E-17	8.466319E-18
4.350000E+03	8.770775E-17	8.411584E-18
4.360000E+03	8.820882E-17	8.354166E-18
4.370000E+03	8.870378E-17	8.295478E-18
4.380000E+03	8.919234E-17	8.235551E-18
4.390000E+03	8.968881E-17	8.175752E-18
4.400000E+03	9.016385E-17	8.113452E-18
4.410000E+03	9.063168E-17	8.050034E-18
4.420000E+03	9.109203E-17	7.985541E-18
4.430000E+03	9.155951E-17	7.921311E-18
4.440000E+03	9.200418E-17	7.854811E-18
4.450000E+03	9.244056E-17	7.787393E-18
4.460000E+03	9.286838E-17	7.719114E-18
4.470000E+03	9.328741E-17	7.650038E-18
4.480000E+03	9.369735E-17	7.580228E-18
4.490000E+03	9.411321E-17	7.510969E-18
4.500000E+03	9.450430E-17	7.439889E-18
4.510000E+03	9.488554E-17	7.368288E-18
4.520000E+03	9.525670E-17	7.296249E-18
4.530000E+03	9.561754E-17	7.223851E-18
4.540000E+03	9.596784E-17	7.151181E-18
4.550000E+03	9.630734E-17	7.078326E-18
4.560000E+03	9.663584E-17	7.005380E-18
4.570000E+03	9.695313E-17	6.932440E-18
4.580000E+03	9.725902E-17	6.859603E-18
4.590000E+03	9.755330E-17	6.786973E-18
4.600000E+03	9.785159E-17	6.715738E-18
4.610000E+03	9.812219E-17	6.643829E-18
4.620000E+03	9.838067E-17	6.572452E-18
4.630000E+03	9.862692E-17	6.501721E-18
4.640000E+03	9.886079E-17	6.431753E-18
4.650000E+03	9.908219E-17	6.362667E-18
4.660000E+03	9.927502E-17	6.293570E-18
4.670000E+03	9.947116E-17	6.226622E-18
4.680000E+03	9.965460E-17	6.160922E-18
4.690000E+03	9.982530E-17	6.096594E-18
4.700000E+03	9.998325E-17	6.033762E-18
4.710000E+03	1.001284E-16	5.972552E-18
4.720000E+03	1.002609E-16	5.913084E-18
4.730000E+03	1.003807E-16	5.855482E-18
4.740000E+03	1.004878E-16	5.799863E-18
4.750000E+03	1.005824E-16	5.746345E-18
4.760000E+03	1.006483E-16	5.694123E-18
4.770000E+03	1.007179E-16	5.645140E-18
4.780000E+03	1.007751E-16	5.598568E-18
4.790000E+03	1.008198E-16	5.554495E-18
4.800000E+03	1.008519E-16	5.512994E-18
4.810000E+03	1.008552E-16	5.473184E-18
4.820000E+03	1.008620E-16	5.436760E-18
4.830000E+03	1.008561E-16	5.402763E-18
4.840000E+03	1.008374E-16	5.371111E-18
4.850000E+03	1.007898E-16	5.340860E-18
4.860000E+03	1.007456E-16	5.313633E-18
4.870000E+03	1.006886E-16	5.288471E-18
4.880000E+03	1.006188E-16	5.265273E-18
4.890000E+03	1.005203E-16	5.243094E-18
4.900000E+03	1.004253E-16	5.223507E-18
4.910000E+03	1.003178E-16	5.205561E-18
4.920000E+03	1.001818E-16	5.188315E-18
4.930000E+03	1.000497E-16	5.173318E-18
4.940000E+03	9.988940E-17	5.158804E-18
4.950000E+03	9.973319E-17	5.146310E-18
4.960000E+03	9.956520E-17	5.134901E-18
4.970000E+03	9.936976E-17	5.123650E-18
4.980000E+03	9.917884E-17	5.114088E-18
4.990000E+03	9.896096E-17	5.104477E-18
5.000000E+03	9.874800E-17	5.096346E-18
5.010000E+03	9.850863E-17	5.087969E-18
5.020000E+03	9.827456E-17	5.080877E-18
5.030000E+03	9.801470E-17	5.073357E-18
5.040000E+03	9.776060E-17	5.066941E-18
5.050000E+03	9.748132E-17	5.059931E-18
5.060000E+03	9.720826E-17	5.053862E-18
5.070000E+03	9.691069E-17	5.047050E-18
5.080000E+03	9.660444E-17	5.040231E-18
5.090000E+03	9.630516E-17	5.034143E-18
5.100000E+03	9.598240E-17	5.027121E-18
5.110000E+03	9.566712E-17	5.020713E-18
5.120000E+03	9.532907E-17	5.013268E-18
5.130000E+03	9.498389E-17	5.005540E-18
5.140000E+03	9.464693E-17	4.998284E-18
5.150000E+03	9.428833E-17	4.989869E-18
5.160000E+03	9.392354E-17	4.981061E-18
5.170000E+03	9.355287E-17	4.971830E-18
5.180000E+03	9.319145E-17	4.962940E-18
5.190000E+03	9.280990E-17	4.952792E-18
5.200000E+03	9.242343E-17	4.942159E-18
5.210000E+03	9.203236E-17	4.931028E-18
5.220000E+03	9.165155E-17	4.920170E-18
5.230000E+03	9.125215E-17	4.908015E-18
5.240000E+03	9.084909E-17	4.895343E-18
5.250000E+03	9.044270E-17	4.882153E-18
5.260000E+03	9.003327E-17	4.868449E-18
5.270000E+03	8.962113E-17	4.854235E-18
5.280000E+03	8.922074E-17	4.840290E-18
5.290000E+03	8.880402E-17	4.825083E-18
5.300000E+03	8.838552E-17	4.809400E-18
5.310000E+03	8.796553E-17	4.793254E-18
5.320000E+03	8.754436E-17	4.776664E-18
5.330000E+03	8.712231E-17	4.759648E-18
5.340000E+03	8.669968E-17	4.742228E-18
5.350000E+03	8.627675E-17	4.724424E-18
5.360000E+03	8.585385E-17	4.706262E-18
5.370000E+03	8.543125E-17	4.687765E-18
5.380000E+03	8.500925E-17	4.668962E-18
5.390000E+03	8.458814E-17	4.649878E-18
5.400000E+03	8.416822E-17	4.630543E-18
5.410000E+03	8.374977E-17	4.610986E-18
5.420000E+03	8.333308E-17	4.591235E-18
5.430000E+03	8.291844E-17	4.571323E-18
5.440000E+03	8.250613E-17	4.551279E-18
5.450000E+03	8.209643E-17	4.531134E-18
5.460000E+03	8.167669E-17	4.510206E-18
5.470000E+03	8.127312E-17	4.489935E-18
5.480000E+03	8.087300E-17	4.469591E-18
5.490000E+03	8.047662E-17	4.449161E-18
5.500000E+03	8.008421E-17	4.428630E-18
5.510000E+03	7.969602E-17	4.407984E-18
5.520000E+03	7.929968E-17	4.386513E-18
5.530000E+03	7.892053E-17	4.365593E-18
5.540000E+03	7.854612E-17	4.344512E-18
5.550000E+03	7.817664E-17	4.323258E-18
5.560000E+03	7.779994E-17	4.301137E-18
5.570000E+03	7.744082E-17	4.279500E-18
5.580000E+03	7.708711E-17	4.257655E-18
5.590000E+03	7.673897E-17	4.235592E-18
5.600000E+03	7.638449E-17	4.212637E-18
5.610000E+03	7.604801E-17	4.190116E-18
5.620000E+03	7.571758E-17	4.167355E-18
5.630000E+03	7.538146E-17	4.143694E-18
5.640000E+03	7.506368E-17	4.120441E-18
5.650000E+03	7.474064E-17	4.096288E-18
5.660000E+03	7.443615E-17	4.072530E-18
5.670000E+03	7.413852E-17	4.048514E-18
5.680000E+03	7.383628E-17	4.023605E-18
5.690000E+03	7.355292E-17	3.999077E-18
5.700000E+03	7.326535E-17	3.973664E-18
5.710000E+03	7.299690E-17	3.948626E-18
5.720000E+03	7.272466E-17	3.922716E-18
5.730000E+03	7.247178E-17	3.897178E-18
5.740000E+03	7.221549E-17	3.870782E-18
5.750000E+03	7.197879E-17	3.844758E-18
5.760000E+03	7.173909E-17	3.817893E-18
5.770000E+03	7.151922E-17	3.791402E-18
5.780000E+03	7.129674E-17	3.764091E-18
5.790000E+03	7.109433E-17	3.737156E-18
5.800000E+03	7.088970E-17	3.709425E-18
5.810000E+03	7.069424E-17	3.681496E-18
5.820000E+03	7.051923E-17	3.653955E-18
5.830000E+03	7.034257E-17	3.625655E-18
5.840000E+03	7.018661E-17	3.597752E-18
5.850000E+03	7.002938E-17	3.569119E-18
5.860000E+03	6.988212E-17	3.540337E-18
5.870000E+03	6.975596E-17	3.511971E-18
5.880000E+03	6.962910E-17	3.482923E-18
5.890000E+03	6.951269E-17	3.453764E-18
5.900000E+03	6.941784E-17	3.425046E-18
5.910000E+03	6.932282E-17	3.395701E-18
5.920000E+03	6.923877E-17	3.366289E-18
5.930000E+03	6.916583E-17	3.336825E-18
5.940000E+03	6.911510E-17	3.307850E-18
5.950000E+03	6.906495E-17	3.278335E-18
5.960000E+03	6.902646E-17	3.248826E-18
5.970000E+03	6.899982E-17	3.219344E-18
5.980000E+03	6.899608E-17	3.190415E-18
5.990000E+03	6.899370E-17	3.161053E-18
6.000000E+03	6.900374E-17	3.131794E-18
6.010000E+03	6.902639E-17	3.102663E-18
6.020000E+03	6.906187E-17	3.073693E-18
6.030000E+03	6.911037E-17	3.044915E-18
6.040000E+03	6.918300E-17	3.016840E-18
6.050000E+03	6.925822E-17	2.988551E-18
6.060000E+03	6.934712E-17	2.960567E-18
6.070000E+03	6.944994E-17	2.932934E-18
6.080000E+03	6.956690E-17	2.905697E-18
6.090000E+03	6.969826E-17	2.878908E-18
6.100000E+03	6.984429E-17	2.852621E-18
6.110000E+03	7.000521E-17	2.826895E-18
6.120000E+03	7.018131E-17	2.801792E-18
6.130000E+03	7.037287E-17	2.777381E-18
6.140000E+03	7.058019E-17	2.753735E-18
6.150000E+03	7.080355E-17	2.730931E-18
6.160000E+03	7.104327E-17	2.709052E-18
6.170000E+03	7.129966E-17	2.688188E-18
6.180000E+03	7.157307E-17	2.668433E-18
6.190000E+03	7.186383E-17	2.649887E-18
6.200000E+03	7.217227E-17	2.632657E-18
6.210000E+03	7.249876E-17	2.616855E-18
6.220000E+03	7.284361E-17	2.602596E-18
6.230000E+03	7.320713E-17	2.590003E-18
6.240000E+03	7.358955E-17	2.579200E-18
6.250000E+03	7.399106E-17	2.570313E-18
6.260000E+03	7.441174E-17	2.563471E-18
6.270000E+03	7.485162E-17	2.558805E-18
6.280000E+03	7.531058E-17	2.556442E-18
6.290000E+03	7.577634E-17	2.556105E-18
6.300000E+03	7.627212E-17	2.558677E-18
6.310000E+03	7.678536E-17	2.563753E-18
6.320000E+03	7.731533E-17	2.571313E-18
6.330000E+03	7.786128E-17	2.581338E-18
6.340000E+03	7.842246E-17	2.593804E-18
6.350000E+03	7.898565E-17	2.608276E-18
6.360000E+03	7.957486E-17	2.625544E-18
6.370000E+03	8.017694E-17	2.645171E-18
6.380000E+03	8.079106E-17	2.667123E-18
6.390000E+03	8.141640E-17	2.691370E-18
6.400000E+03	8.203920E-17	2.717447E-18
6.410000E+03	8.268433E-17	2.746172E-18
6.420000E+03	8.333810E-17	2.777083E-18
6.430000E+03	8.399963E-17	2.810145E-18
6.440000E+03	8.465468E-17	2.844872E-18
6.450000E+03	8.532891E-17	2.882117E-18
6.460000E+03	8.600817E-17	2.921401E-18
6.470000E+03	8.667790E-17	2.962221E-18
6.480000E+03	8.736436E-17	3.005467E-18
6.490000E+03	8.805306E-17	3.050644E-18
6.500000E+03	8.872910E-17	3.097227E-18
6.510000E+03	8.941935E-17	3.146151E-18
6.520000E+03	9.010896E-17	3.196900E-18
6.530000E+03	9.078262E-17	3.248927E-18
6.540000E+03	9.146774E-17	3.303208E-18
6.550000E+03	9.214906E-17	3.359202E-18
6.560000E+03	9.281075E-17	3.416330E-18
6.570000E+03	9.348090E-17	3.475620E-18
6.580000E+03	9.414401E-17	3.536509E-18
6.590000E+03	9.478428E-17	3.598398E-18
6.600000E+03	9.543085E-17	3.662379E-18
6.610000E+03	9.605320E-17	3.727215E-18
6.620000E+03	9.668109E-17	3.793949E-18
6.630000E+03	9.728370E-17	3.861273E-18
6.640000E+03	9.789121E-17	3.930270E-18
6.650000E+03	9.847243E-17	3.999586E-18
6.660000E+03	9.905799E-17	4.070349E-18
6.670000E+03	9.963209E-17	4.141814E-18
6.680000E+03	1.001786E-16	4.213195E-18
6.690000E+03	1.007287E-16	4.285687E-18
6.700000E+03	1.012505E-16	4.357830E-18
6.710000E+03	1.017756E-16	4.430867E-18
6.720000E+03	1.022715E-16	4.503296E-18
6.730000E+03	1.027542E-16	4.575688E-18
6.740000E+03	1.032397E-16	4.648664E-18
6.750000E+03	1.036952E-16	4.720657E-18
6.760000E+03	1.041532E-16	4.793039E-18
6.770000E+03	1.045808E-16	4.864199E-18
6.780000E+03	1.050108E-16	4.935562E-18
6.790000E+03	1.054098E-16	5.005477E-18
6.800000E+03	1.058111E-16	5.075416E-18
6.810000E+03	1.061811E-16	5.143693E-18
6.820000E+03	1.065363E-16	5.211003E-18
6.830000E+03	1.068937E-16	5.278093E-18
6.840000E+03	1.072193E-16	5.343216E-18
6.850000E+03	1.075299E-16	5.407114E-18
6.860000E+03	1.078426E-16	5.470568E-18
6.870000E+03	1.081232E-16	5.531781E-18
6.880000E+03	1.084058E-16	5.592417E-18
6.890000E+03	1.086563E-16	5.650644E-18
6.900000E+03	1.088916E-16	5.707267E-18
6.910000E+03	1.091290E-16	5.763130E-18
6.920000E+03	1.093341E-16	5.816355E-18
6.930000E+03	1.095241E-16	5.867785E-18
6.940000E+03	1.097163E-16	5.918297E-18
6.950000E+03	1.098762E-16	5.965972E-18
6.960000E+03	1.100211E-16	6.011685E-18
6.970000E+03	1.101510E-16	6.055388E-18
6.980000E+03	1.102834E-16	6.097998E-18
6.990000E+03	1.103837E-16	6.137550E-18
7.000000E+03	1.104691E-16	6.174960E-18
7.010000E+03	1.105399E-16	6.210189E-18
7.020000E+03	1.106136E-16	6.244193E-18
7.030000E+03	1.106553E-16	6.274966E-18
7.040000E+03	1.106827E-16	6.303462E-18
7.050000E+03	1.106957E-16	6.329655E-18
7.060000E+03	1.107122E-16	6.354526E-18
7.070000E+03	1.106970E-16	6.376045E-18
7.080000E+03	1.106680E-16	6.395196E-18
7.090000E+03	1.106251E-16	6.411962E-18
7.100000E+03	1.105686E-16	6.426332E-18
7.110000E+03	1.104986E-16	6.438292E-18
7.120000E+03	1.104328E-16	6.448858E-18
7.130000E+03	1.103362E-16	6.455981E-18
7.140000E+03	1.102265E-16	6.460677E-18
7.150000E+03	1.101040E-16	6.462947E-18
7.160000E+03	1.099687E-16	6.462792E-18
7.170000E+03	1.098208E-16	6.460216E-18
7.180000E+03	1.096605E-16	6.455226E-18
7.190000E+03	1.095054E-16	6.448854E-18
7.200000E+03	1.093208E-16	6.439064E-18
7.210000E+03	1.091243E-16	6.426893E-18
7.220000E+03	1.089161E-16	6.412357E-18
7.230000E+03	1.086964E-16	6.395474E-18
7.240000E+03	1.084653E-16	6.376266E-18
7.250000E+03	1.082231E-16	6.354753E-18
7.260000E+03	1.079699E-16	6.330962E-18
7.270000E+03	1.077059E-16	6.304919E-18
7.280000E+03	1.074313E-16	6.276654E-18
7.290000E+03	1.071463E-16	6.246197E-18
7.300000E+03	1.068511E-16	6.213583E-18
7.310000E+03	1.065459E-16	6.178845E-18
7.320000E+03	1.062309E-16	6.142023E-18
7.330000E+03	1.059062E-16	6.103156E-18
7.340000E+03	1.055721E-16	6.062286E-18
7.350000E+03	1.052288E-16	6.019455E-18
7.360000E+03	1.048764E-16	5.974713E-18
7.370000E+03	1.045152E-16	5.928104E-18
7.380000E+03	1.041453E-16	5.879680E-18
7.390000E+03	1.037669E-16	5.829494E-18
7.400000E+03	1.033803E-16	5.777599E-18
7.410000E+03	1.029856E-16	5.724053E-18
7.420000E+03	1.025831E-16	5.668914E-18
7.430000E+03	1.021728E-16	5.612244E-18
7.440000E+03	1.017551E-16	5.554106E-18
7.450000E+03	1.013300E-16	5.494566E-18
7.460000E+03	1.008979E-16	5.433692E-18
7.470000E+03	1.004428E-16	5.370699E-18
7.480000E+03	9.999709E-17	5.307383E-18
7.490000E+03	9.954482E-17	5.242953E-18
7.500000E+03	9.908621E-17	5.177489E-18
7.510000E+03	9.862144E-17	5.111071E-18
7.520000E+03	9.815068E-17	5.043785E-18
7.530000E+03	9.767414E-17	4.975718E-18
7.540000E+03	9.719198E-17	4.906961E-18
7.550000E+03	9.668895E-17	4.836837E-18
7.560000E+03	9.619619E-17	4.766999E-18
7.570000E+03	9.569837E-17	4.696765E-18
7.580000E+03	9.519565E-17	4.626240E-18
7.590000E+03	9.468821E-17	4.555534E-18
7.600000E+03	9.416118E-17	4.484043E-18
7.610000E+03	9.364491E-17	4.413332E-18
7.620000E+03	9.312445E-17	4.342793E-18
7.630000E+03	9.259998E-17	4.272555E-18
7.640000E+03	9.205693E-17	4.202078E-18
7.650000E+03	9.152500E-17	4.132854E-18
7.660000E+03	9.098955E-17	4.064342E-18
7.670000E+03	9.045077E-17	3.996690E-18
7.680000E+03	8.989441E-17	3.929422E-18
7.690000E+03	8.934950E-17	3.863963E-18
7.700000E+03	8.880176E-17	3.799838E-18
7.710000E+03	8.825132E-17	3.737215E-18
7.720000E+03	8.768431E-17	3.675676E-18
7.730000E+03	8.712906E-17	3.616584E-18
7.740000E+03	8.657162E-17	3.559523E-18
7.750000E+03	8.599836E-17	3.504112E-18
7.760000E+03	8.543708E-17	3.451667E-18
