#wls	flux	fluxerr
1.600000E+03	9.572531E-18	3.726811E-18
1.640000E+03	9.854494E-18	3.810716E-18
1.680000E+03	1.014826E-17	3.897227E-18
1.720000E+03	1.045249E-17	3.985702E-18
1.760000E+03	1.076951E-17	4.076882E-18
1.800000E+03	1.109598E-17	4.169363E-18
1.840000E+03	1.143620E-17	4.264619E-18
1.880000E+03	1.178873E-17	4.361947E-18
1.920000E+03	1.215408E-17	4.461368E-18
1.960000E+03	1.253273E-17	4.562892E-18
2.000000E+03	1.292749E-17	4.667354E-18
2.040000E+03	1.333446E-17	4.773142E-18
2.080000E+03	1.375883E-17	4.881927E-18
2.120000E+03	1.419896E-17	4.992897E-18
2.160000E+03	1.465807E-17	5.106950E-18
2.200000E+03	1.513180E-17	5.222323E-18
2.240000E+03	1.562608E-17	5.340826E-18
2.280000E+03	1.613912E-17	5.461562E-18
2.320000E+03	1.667174E-17	5.584529E-18
2.360000E+03	1.722779E-17	5.710714E-18
2.400000E+03	1.780535E-17	5.839153E-18
2.440000E+03	1.840538E-17	5.969830E-18
2.480000E+03	1.902890E-17	6.102726E-18
2.520000E+03	1.968037E-17	6.238897E-18
2.560000E+03	2.035421E-17	6.376172E-18
2.600000E+03	2.105852E-17	6.516695E-18
2.640000E+03	2.179114E-17	6.659338E-18
2.680000E+03	2.255727E-17	6.805218E-18
2.720000E+03	2.335465E-17	6.953140E-18
2.760000E+03	2.418062E-17	7.101817E-18
2.800000E+03	2.504911E-17	7.254799E-18
2.840000E+03	2.594931E-17	7.408331E-18
2.880000E+03	2.689159E-17	7.564791E-18
2.920000E+03	2.786870E-17	7.721482E-18
2.960000E+03	2.889175E-17	7.880831E-18
3.000000E+03	2.996311E-17	8.042716E-18
3.010000E+03	3.023671E-17	8.083012E-18
3.020000E+03	3.051316E-17	8.123363E-18
3.030000E+03	3.079251E-17	8.163767E-18
3.040000E+03	3.107477E-17	8.204218E-18
3.050000E+03	3.135998E-17	8.244711E-18
3.060000E+03	3.165351E-17	8.286642E-18
3.070000E+03	3.194475E-17	8.327215E-18
3.080000E+03	3.223905E-17	8.367820E-18
3.090000E+03	3.253642E-17	8.408447E-18
3.100000E+03	3.283690E-17	8.449095E-18
3.110000E+03	3.314609E-17	8.491186E-18
3.120000E+03	3.345294E-17	8.531866E-18
3.130000E+03	3.376299E-17	8.572549E-18
3.140000E+03	3.407628E-17	8.613229E-18
3.150000E+03	3.439862E-17	8.655354E-18
3.160000E+03	3.471854E-17	8.696020E-18
3.170000E+03	3.504180E-17	8.736667E-18
3.180000E+03	3.536844E-17	8.777286E-18
3.190000E+03	3.570444E-17	8.819347E-18
3.200000E+03	3.603797E-17	8.859900E-18
3.210000E+03	3.637497E-17	8.900404E-18
3.220000E+03	3.672160E-17	8.942349E-18
3.230000E+03	3.706570E-17	8.982745E-18
3.240000E+03	3.741335E-17	9.023069E-18
3.250000E+03	3.777092E-17	9.064829E-18
3.260000E+03	3.812587E-17	9.104998E-18
3.270000E+03	3.849091E-17	9.146596E-18
3.280000E+03	3.885328E-17	9.186572E-18
3.290000E+03	3.921939E-17	9.226436E-18
3.300000E+03	3.959585E-17	9.267722E-18
3.310000E+03	3.996956E-17	9.307340E-18
3.320000E+03	4.035382E-17	9.348372E-18
3.330000E+03	4.073528E-17	9.387705E-18
3.340000E+03	4.112746E-17	9.428443E-18
3.350000E+03	4.151679E-17	9.467450E-18
3.360000E+03	4.191702E-17	9.507853E-18
3.370000E+03	4.231433E-17	9.546490E-18
3.380000E+03	4.272273E-17	9.586511E-18
3.390000E+03	4.312815E-17	9.624733E-18
3.400000E+03	4.354482E-17	9.664324E-18
3.410000E+03	4.395845E-17	9.702083E-18
3.420000E+03	4.438353E-17	9.741197E-18
3.430000E+03	4.480548E-17	9.778440E-18
3.440000E+03	4.523906E-17	9.817024E-18
3.450000E+03	4.566943E-17	9.853698E-18
3.460000E+03	4.611162E-17	9.891696E-18
3.470000E+03	4.655051E-17	9.927748E-18
3.480000E+03	4.700138E-17	9.965102E-18
3.490000E+03	4.745667E-17	1.000211E-17
3.500000E+03	4.790853E-17	1.003712E-17
3.510000E+03	4.837264E-17	1.007340E-17
3.520000E+03	4.883321E-17	1.010763E-17
3.530000E+03	4.930621E-17	1.014310E-17
3.540000E+03	4.978373E-17	1.017816E-17
3.550000E+03	5.025753E-17	1.021110E-17
3.560000E+03	5.074402E-17	1.024526E-17
3.570000E+03	5.122666E-17	1.027725E-17
3.580000E+03	5.172219E-17	1.031043E-17
3.590000E+03	5.222226E-17	1.034310E-17
3.600000E+03	5.271831E-17	1.037354E-17
3.610000E+03	5.322745E-17	1.040511E-17
3.620000E+03	5.374118E-17	1.043612E-17
3.630000E+03	5.425063E-17	1.046483E-17
3.640000E+03	5.477344E-17	1.049463E-17
3.650000E+03	5.529180E-17	1.052208E-17
3.660000E+03	5.582367E-17	1.055059E-17
3.670000E+03	5.636011E-17	1.057842E-17
3.680000E+03	5.689183E-17	1.060383E-17
3.690000E+03	5.743727E-17	1.063024E-17
3.700000E+03	5.798724E-17	1.065591E-17
3.710000E+03	5.853221E-17	1.067908E-17
3.720000E+03	5.909109E-17	1.070319E-17
3.730000E+03	5.965443E-17	1.072648E-17
3.740000E+03	6.021246E-17	1.074720E-17
3.750000E+03	6.078457E-17	1.076879E-17
3.760000E+03	6.136106E-17	1.078950E-17
3.770000E+03	6.193188E-17	1.080755E-17
3.780000E+03	6.251694E-17	1.082640E-17
3.790000E+03	6.310627E-17	1.084430E-17
3.800000E+03	6.368953E-17	1.085946E-17
3.810000E+03	6.428716E-17	1.087535E-17
3.820000E+03	6.488892E-17	1.089021E-17
3.830000E+03	6.548419E-17	1.090225E-17
3.840000E+03	6.609393E-17	1.091495E-17
3.850000E+03	6.670762E-17	1.092653E-17
3.860000E+03	6.731435E-17	1.093521E-17
3.870000E+03	6.793563E-17	1.094448E-17
3.880000E+03	6.856066E-17	1.095255E-17
3.890000E+03	6.917821E-17	1.095763E-17
3.900000E+03	6.981035E-17	1.096323E-17
3.910000E+03	7.044598E-17	1.096754E-17
3.920000E+03	7.107360E-17	1.096879E-17
3.930000E+03	7.171582E-17	1.097048E-17
3.940000E+03	7.236122E-17	1.097080E-17
3.950000E+03	7.299803E-17	1.096798E-17
3.960000E+03	7.364939E-17	1.096551E-17
3.970000E+03	7.430360E-17	1.096160E-17
3.980000E+03	7.494858E-17	1.095449E-17
3.990000E+03	7.560805E-17	1.094763E-17
4.000000E+03	7.626999E-17	1.093926E-17
4.010000E+03	7.692199E-17	1.092762E-17
4.020000E+03	7.758839E-17	1.091616E-17
4.030000E+03	7.824434E-17	1.090137E-17
4.040000E+03	7.891457E-17	1.088672E-17
4.050000E+03	7.958654E-17	1.087044E-17
4.060000E+03	8.024733E-17	1.085077E-17
4.070000E+03	8.092218E-17	1.083117E-17
4.080000E+03	8.158531E-17	1.080815E-17
4.090000E+03	8.226234E-17	1.078514E-17
4.100000E+03	8.292709E-17	1.075870E-17
4.110000E+03	8.360559E-17	1.073221E-17
4.120000E+03	8.428455E-17	1.070396E-17
4.130000E+03	8.495035E-17	1.067224E-17
4.140000E+03	8.562958E-17	1.064042E-17
4.150000E+03	8.629499E-17	1.060511E-17
4.160000E+03	8.697362E-17	1.056966E-17
4.170000E+03	8.763781E-17	1.053072E-17
4.180000E+03	8.831494E-17	1.049161E-17
4.190000E+03	8.897699E-17	1.044900E-17
4.200000E+03	8.965169E-17	1.040620E-17
4.210000E+03	9.031063E-17	1.035991E-17
4.220000E+03	9.098195E-17	1.031340E-17
4.230000E+03	9.163679E-17	1.026341E-17
4.240000E+03	9.228914E-17	1.021159E-17
4.250000E+03	9.295340E-17	1.015953E-17
4.260000E+03	9.360010E-17	1.010404E-17
4.270000E+03	9.425836E-17	1.004830E-17
4.280000E+03	9.489833E-17	9.989173E-18
4.290000E+03	9.554948E-17	9.929811E-18
4.300000E+03	9.618160E-17	9.867102E-18
4.310000E+03	9.680933E-17	9.802638E-18
4.320000E+03	9.744765E-17	9.737966E-18
4.330000E+03	9.806581E-17	9.670046E-18
4.340000E+03	9.867870E-17	9.600444E-18
4.350000E+03	9.930157E-17	9.530687E-18
4.360000E+03	9.990313E-17	9.457809E-18
4.370000E+03	1.004985E-16	9.383353E-18
4.380000E+03	1.010874E-16	9.307363E-18
4.390000E+03	1.016855E-16	9.231325E-18
4.400000E+03	1.022607E-16	9.152389E-18
4.410000E+03	1.028285E-16	9.072063E-18
4.420000E+03	1.033886E-16	8.990404E-18
4.430000E+03	1.039570E-16	8.908863E-18
4.440000E+03	1.045010E-16	8.824711E-18
4.450000E+03	1.050364E-16	8.739420E-18
4.460000E+03	1.055629E-16	8.653064E-18
4.470000E+03	1.060803E-16	8.565721E-18
4.480000E+03	1.066047E-16	8.478790E-18
4.490000E+03	1.071029E-16	8.389710E-18
4.500000E+03	1.075910E-16	8.299902E-18
4.510000E+03	1.080688E-16	8.209464E-18
4.520000E+03	1.085359E-16	8.118499E-18
4.530000E+03	1.089922E-16	8.027112E-18
4.540000E+03	1.094372E-16	7.935415E-18
4.550000E+03	1.098709E-16	7.843524E-18
4.560000E+03	1.102928E-16	7.751561E-18
4.570000E+03	1.107028E-16	7.659655E-18
4.580000E+03	1.111004E-16	7.567930E-18
4.590000E+03	1.114857E-16	7.476530E-18
4.600000E+03	1.118582E-16	7.385591E-18
4.610000E+03	1.122177E-16	7.295261E-18
4.620000E+03	1.125641E-16	7.205691E-18
4.630000E+03	1.128970E-16	7.117030E-18
4.640000E+03	1.132163E-16	7.029443E-18
4.650000E+03	1.135041E-16	6.942010E-18
4.660000E+03	1.137954E-16	6.857064E-18
4.670000E+03	1.140725E-16	6.773680E-18
4.680000E+03	1.143350E-16	6.692027E-18
4.690000E+03	1.145829E-16	6.612276E-18
4.700000E+03	1.148158E-16	6.534590E-18
4.710000E+03	1.150160E-16	6.458160E-18
4.720000E+03	1.152185E-16	6.385134E-18
4.730000E+03	1.154055E-16	6.314687E-18
4.740000E+03	1.155590E-16	6.246012E-18
4.750000E+03	1.157143E-16	6.181198E-18
4.760000E+03	1.158534E-16	6.119423E-18
4.770000E+03	1.159583E-16	6.059901E-18
4.780000E+03	1.160643E-16	6.004633E-18
4.790000E+03	1.161532E-16	5.952797E-18
4.800000E+03	1.162076E-16	5.903627E-18
4.810000E+03	1.162631E-16	5.858993E-18
4.820000E+03	1.162840E-16	5.817018E-18
4.830000E+03	1.163065E-16	5.779409E-18
4.840000E+03	1.162950E-16	5.744274E-18
4.850000E+03	1.162852E-16	5.713257E-18
4.860000E+03	1.162420E-16	5.684479E-18
4.870000E+03	1.162008E-16	5.659537E-18
4.880000E+03	1.161266E-16	5.636555E-18
4.890000E+03	1.160549E-16	5.617100E-18
4.900000E+03	1.159504E-16	5.599291E-18
4.910000E+03	1.158312E-16	5.583827E-18
4.920000E+03	1.157151E-16	5.571384E-18
4.930000E+03	1.155669E-16	5.560091E-18
4.940000E+03	1.154045E-16	5.550629E-18
4.950000E+03	1.152458E-16	5.543678E-18
4.960000E+03	1.150558E-16	5.537369E-18
4.970000E+03	1.148523E-16	5.532392E-18
4.980000E+03	1.146356E-16	5.528579E-18
4.990000E+03	1.144233E-16	5.526616E-18
5.000000E+03	1.141809E-16	5.524667E-18
5.010000E+03	1.139261E-16	5.523427E-18
5.020000E+03	1.136589E-16	5.522750E-18
5.030000E+03	1.133801E-16	5.522515E-18
5.040000E+03	1.130895E-16	5.522578E-18
5.050000E+03	1.127878E-16	5.522833E-18
5.060000E+03	1.124750E-16	5.523160E-18
5.070000E+03	1.121515E-16	5.523451E-18
5.080000E+03	1.118176E-16	5.523610E-18
5.090000E+03	1.114737E-16	5.523549E-18
5.100000E+03	1.111199E-16	5.523175E-18
5.110000E+03	1.107569E-16	5.522426E-18
5.120000E+03	1.103847E-16	5.521222E-18
5.130000E+03	1.100038E-16	5.519503E-18
5.140000E+03	1.096144E-16	5.517215E-18
5.150000E+03	1.092170E-16	5.514306E-18
5.160000E+03	1.088118E-16	5.510738E-18
5.170000E+03	1.083993E-16	5.506477E-18
5.180000E+03	1.079635E-16	5.500659E-18
5.190000E+03	1.075373E-16	5.494921E-18
5.200000E+03	1.071047E-16	5.488413E-18
5.210000E+03	1.066662E-16	5.481126E-18
5.220000E+03	1.062060E-16	5.472220E-18
5.230000E+03	1.057565E-16	5.463348E-18
5.240000E+03	1.053022E-16	5.453684E-18
5.250000E+03	1.048273E-16	5.442408E-18
5.260000E+03	1.043642E-16	5.431184E-18
5.270000E+03	1.038971E-16	5.419189E-18
5.280000E+03	1.034107E-16	5.405629E-18
5.290000E+03	1.029369E-16	5.392163E-18
5.300000E+03	1.024447E-16	5.377178E-18
5.310000E+03	1.019654E-16	5.362322E-18
5.320000E+03	1.014685E-16	5.346005E-18
5.330000E+03	1.009851E-16	5.329879E-18
5.340000E+03	1.004849E-16	5.312359E-18
5.350000E+03	9.999870E-17	5.295089E-18
5.360000E+03	9.949650E-17	5.276504E-18
5.370000E+03	9.900860E-17	5.258230E-18
5.380000E+03	9.850548E-17	5.238723E-18
5.390000E+03	9.800241E-17	5.218816E-18
5.400000E+03	9.751434E-17	5.199331E-18
5.410000E+03	9.701212E-17	5.178741E-18
5.420000E+03	9.651076E-17	5.157871E-18
5.430000E+03	9.602498E-17	5.137536E-18
5.440000E+03	9.552604E-17	5.116226E-18
5.450000E+03	9.502872E-17	5.094759E-18
5.460000E+03	9.453324E-17	5.073170E-18
5.470000E+03	9.403985E-17	5.051463E-18
5.480000E+03	9.356293E-17	5.030370E-18
5.490000E+03	9.307453E-17	5.008347E-18
5.500000E+03	9.258910E-17	4.986130E-18
5.510000E+03	9.210706E-17	4.963703E-18
5.520000E+03	9.162881E-17	4.941050E-18
5.530000E+03	9.115473E-17	4.918157E-18
5.540000E+03	9.068520E-17	4.895009E-18
5.550000E+03	9.022058E-17	4.871593E-18
5.560000E+03	8.976122E-17	4.847897E-18
5.570000E+03	8.930745E-17	4.823909E-18
5.580000E+03	8.885959E-17	4.799619E-18
5.590000E+03	8.841797E-17	4.775016E-18
5.600000E+03	8.798288E-17	4.750092E-18
5.610000E+03	8.755461E-17	4.724840E-18
5.620000E+03	8.713345E-17	4.699252E-18
5.630000E+03	8.671969E-17	4.673322E-18
5.640000E+03	8.631358E-17	4.647047E-18
5.650000E+03	8.590251E-17	4.619728E-18
5.660000E+03	8.551258E-17	4.592754E-18
5.670000E+03	8.513108E-17	4.565424E-18
5.680000E+03	8.475827E-17	4.537739E-18
5.690000E+03	8.439437E-17	4.509696E-18
5.700000E+03	8.402704E-17	4.480626E-18
5.710000E+03	8.368176E-17	4.451878E-18
5.720000E+03	8.334611E-17	4.422778E-18
5.730000E+03	8.300786E-17	4.392669E-18
5.740000E+03	8.269219E-17	4.362878E-18
5.750000E+03	8.238680E-17	4.332745E-18
5.760000E+03	8.207964E-17	4.301631E-18
5.770000E+03	8.179555E-17	4.270835E-18
5.780000E+03	8.152240E-17	4.239715E-18
5.790000E+03	8.124824E-17	4.207646E-18
5.800000E+03	8.099768E-17	4.175903E-18
5.810000E+03	8.074659E-17	4.143236E-18
5.820000E+03	8.051943E-17	4.110902E-18
5.830000E+03	8.029224E-17	4.077673E-18
5.840000E+03	8.008933E-17	4.044786E-18
5.850000E+03	7.988688E-17	4.011034E-18
5.860000E+03	7.970905E-17	3.977636E-18
5.870000E+03	7.953216E-17	3.943408E-18
5.880000E+03	7.936838E-17	3.908962E-18
5.890000E+03	7.922980E-17	3.874893E-18
5.900000E+03	7.909285E-17	3.840049E-18
5.910000E+03	7.898149E-17	3.805602E-18
5.920000E+03	7.887224E-17	3.770421E-18
5.930000E+03	7.877718E-17	3.735099E-18
5.940000E+03	7.870831E-17	3.700210E-18
5.950000E+03	7.864226E-17	3.664658E-18
5.960000E+03	7.859108E-17	3.629025E-18
5.970000E+03	7.855499E-17	3.593333E-18
5.980000E+03	7.854597E-17	3.558139E-18
5.990000E+03	7.854074E-17	3.522398E-18
6.000000E+03	7.855132E-17	3.486676E-18
6.010000E+03	7.857793E-17	3.451004E-18
6.020000E+03	7.862083E-17	3.415413E-18
6.030000E+03	7.869204E-17	3.380445E-18
6.040000E+03	7.876828E-17	3.345122E-18
6.050000E+03	7.886156E-17	3.309996E-18
6.060000E+03	7.897216E-17	3.275112E-18
6.070000E+03	7.910032E-17	3.240519E-18
6.080000E+03	7.924631E-17	3.206269E-18
6.090000E+03	7.941040E-17	3.172420E-18
6.100000E+03	7.959285E-17	3.139035E-18
6.110000E+03	7.979393E-17	3.106182E-18
6.120000E+03	8.001390E-17	3.073934E-18
6.130000E+03	8.025303E-17	3.042370E-18
6.140000E+03	8.051156E-17	3.011578E-18
6.150000E+03	8.078975E-17	2.981649E-18
6.160000E+03	8.108782E-17	2.952684E-18
6.170000E+03	8.140602E-17	2.924792E-18
6.180000E+03	8.174455E-17	2.898087E-18
6.190000E+03	8.210361E-17	2.872695E-18
6.200000E+03	8.248335E-17	2.848747E-18
6.210000E+03	8.288392E-17	2.826383E-18
6.220000E+03	8.330543E-17	2.805752E-18
6.230000E+03	8.373541E-17	2.786593E-18
6.240000E+03	8.419892E-17	2.769907E-18
6.250000E+03	8.468364E-17	2.755451E-18
6.260000E+03	8.518998E-17	2.743415E-18
6.270000E+03	8.571835E-17	2.733995E-18
6.280000E+03	8.626895E-17	2.727389E-18
6.290000E+03	8.682874E-17	2.723377E-18
6.300000E+03	8.742326E-17	2.722926E-18
6.310000E+03	8.803900E-17	2.725650E-18
6.320000E+03	8.867532E-17	2.731534E-18
6.330000E+03	8.931814E-17	2.740147E-18
6.340000E+03	8.999334E-17	2.752282E-18
6.350000E+03	9.068689E-17	2.767500E-18
6.360000E+03	9.138424E-17	2.785348E-18
6.370000E+03	9.211178E-17	2.806621E-18
6.380000E+03	9.285503E-17	2.830861E-18
6.390000E+03	9.359901E-17	2.857597E-18
6.400000E+03	9.437061E-17	2.887633E-18
6.410000E+03	9.515491E-17	2.920501E-18
6.420000E+03	9.593645E-17	2.955707E-18
6.430000E+03	9.674269E-17	2.994083E-18
6.440000E+03	9.754360E-17	3.034689E-18
6.450000E+03	9.836706E-17	3.078377E-18
6.460000E+03	9.918244E-17	3.124184E-18
6.470000E+03	1.000180E-16	3.172992E-18
6.480000E+03	1.008426E-16	3.223810E-18
6.490000E+03	1.016848E-16	3.277546E-18
6.500000E+03	1.025282E-16	3.333683E-18
6.510000E+03	1.033559E-16	3.391669E-18
6.520000E+03	1.041813E-16	3.451944E-18
6.530000E+03	1.050187E-16	3.514991E-18
6.540000E+03	1.058353E-16	3.579727E-18
6.550000E+03	1.066613E-16	3.647180E-18
6.560000E+03	1.074638E-16	3.716245E-18
6.570000E+03	1.082737E-16	3.787992E-18
6.580000E+03	1.090576E-16	3.861277E-18
6.590000E+03	1.098308E-16	3.936642E-18
6.600000E+03	1.106093E-16	4.014674E-18
6.610000E+03	1.113595E-16	4.094095E-18
6.620000E+03	1.121144E-16	4.175971E-18
6.630000E+03	1.128399E-16	4.258900E-18
6.640000E+03	1.135526E-16	4.343346E-18
6.650000E+03	1.142691E-16	4.429807E-18
6.660000E+03	1.149550E-16	4.516809E-18
6.670000E+03	1.156267E-16	4.604841E-18
6.680000E+03	1.162842E-16	4.693747E-18
6.690000E+03	1.169445E-16	4.784085E-18
6.700000E+03	1.175723E-16	4.874272E-18
6.710000E+03	1.181848E-16	4.964864E-18
6.720000E+03	1.187996E-16	5.056461E-18
6.730000E+03	1.193808E-16	5.147413E-18
6.740000E+03	1.199458E-16	5.238314E-18
6.750000E+03	1.204944E-16	5.329022E-18
6.760000E+03	1.210264E-16	5.419391E-18
6.770000E+03	1.215598E-16	5.510110E-18
6.780000E+03	1.220580E-16	5.599407E-18
6.790000E+03	1.225389E-16	5.687956E-18
6.800000E+03	1.230024E-16	5.775631E-18
6.810000E+03	1.234485E-16	5.862313E-18
6.820000E+03	1.238766E-16	5.947868E-18
6.830000E+03	1.242870E-16	6.032186E-18
6.840000E+03	1.246982E-16	6.116069E-18
6.850000E+03	1.250726E-16	6.197583E-18
6.860000E+03	1.254288E-16	6.277519E-18
6.870000E+03	1.257668E-16	6.355782E-18
6.880000E+03	1.260865E-16	6.432267E-18
6.890000E+03	1.263879E-16	6.506886E-18
6.900000E+03	1.266709E-16	6.579536E-18
6.910000E+03	1.269356E-16	6.650134E-18
6.920000E+03	1.271819E-16	6.718595E-18
6.930000E+03	1.274098E-16	6.784838E-18
6.940000E+03	1.276194E-16	6.848786E-18
6.950000E+03	1.278106E-16	6.910363E-18
6.960000E+03	1.279835E-16	6.969499E-18
6.970000E+03	1.281382E-16	7.026131E-18
6.980000E+03	1.282749E-16	7.080202E-18
6.990000E+03	1.283935E-16	7.131645E-18
7.000000E+03	1.284941E-16	7.180407E-18
7.010000E+03	1.285768E-16	7.226442E-18
7.020000E+03	1.286417E-16	7.269691E-18
7.030000E+03	1.286891E-16	7.310127E-18
7.040000E+03	1.287190E-16	7.347698E-18
7.050000E+03	1.287120E-16	7.381257E-18
7.060000E+03	1.287073E-16	7.412993E-18
7.070000E+03	1.286855E-16	7.441772E-18
7.080000E+03	1.286468E-16	7.467562E-18
7.090000E+03	1.285913E-16	7.490341E-18
7.100000E+03	1.285194E-16	7.510099E-18
7.110000E+03	1.284310E-16	7.526805E-18
7.120000E+03	1.283071E-16	7.539320E-18
7.130000E+03	1.281867E-16	7.549910E-18
7.140000E+03	1.280505E-16	7.557431E-18
7.150000E+03	1.278986E-16	7.561872E-18
7.160000E+03	1.277315E-16	7.563248E-18
7.170000E+03	1.275299E-16	7.560401E-18
7.180000E+03	1.273328E-16	7.555644E-18
7.190000E+03	1.271210E-16	7.547835E-18
7.200000E+03	1.268755E-16	7.535842E-18
7.210000E+03	1.266350E-16	7.521965E-18
7.220000E+03	1.263806E-16	7.505087E-18
7.230000E+03	1.261125E-16	7.485228E-18
7.240000E+03	1.258117E-16	7.461274E-18
7.250000E+03	1.255168E-16	7.435520E-18
7.260000E+03	1.252090E-16	7.406864E-18
7.270000E+03	1.248694E-16	7.374218E-18
7.280000E+03	1.245363E-16	7.339856E-18
7.290000E+03	1.241909E-16	7.302700E-18
7.300000E+03	1.238149E-16	7.261687E-18
7.310000E+03	1.234458E-16	7.219059E-18
7.320000E+03	1.230467E-16	7.172676E-18
7.330000E+03	1.226551E-16	7.124769E-18
7.340000E+03	1.222524E-16	7.074289E-18
7.350000E+03	1.218206E-16	7.020224E-18
7.360000E+03	1.213968E-16	6.964769E-18
7.370000E+03	1.209446E-16	6.905865E-18
7.380000E+03	1.205007E-16	6.845663E-18
7.390000E+03	1.200290E-16	6.782160E-18
7.400000E+03	1.195661E-16	6.717475E-18
7.410000E+03	1.190759E-16	6.649633E-18
7.420000E+03	1.185950E-16	6.580740E-18
7.430000E+03	1.180875E-16	6.508848E-18
7.440000E+03	1.175895E-16	6.436031E-18
7.450000E+03	1.170656E-16	6.360399E-18
7.460000E+03	1.165516E-16	6.283980E-18
7.470000E+03	1.160123E-16	6.204934E-18
7.480000E+03	1.154833E-16	6.125256E-18
7.490000E+03	1.149295E-16	6.043149E-18
7.500000E+03	1.143692E-16	5.959671E-18
7.510000E+03	1.138194E-16	5.875797E-18
7.520000E+03	1.132461E-16	5.789841E-18
7.530000E+03	1.126837E-16	5.703671E-18
7.540000E+03	1.120984E-16	5.615664E-18
7.550000E+03	1.115074E-16	5.526806E-18
7.560000E+03	1.109280E-16	5.438048E-18
7.570000E+03	1.103265E-16	5.347843E-18
7.580000E+03	1.097200E-16	5.257163E-18
7.590000E+03	1.091256E-16	5.166932E-18
7.600000E+03	1.085100E-16	5.075700E-18
7.610000E+03	1.078901E-16	4.984418E-18
7.620000E+03	1.072827E-16	4.893985E-18
7.630000E+03	1.066549E-16	4.803056E-18
7.640000E+03	1.060236E-16	4.712561E-18
7.650000E+03	1.053890E-16	4.622675E-18
7.660000E+03	1.047672E-16	4.534278E-18
7.670000E+03	1.041264E-16	4.446163E-18
7.680000E+03	1.034828E-16	4.359239E-18
7.690000E+03	1.028368E-16	4.273719E-18
7.700000E+03	1.021884E-16	4.189825E-18
7.710000E+03	1.015534E-16	4.108416E-18
7.720000E+03	1.009009E-16	4.028464E-18
7.730000E+03	1.002466E-16	3.950858E-18
7.740000E+03	9.959076E-17	3.875858E-18
7.750000E+03	9.893359E-17	3.803729E-18
7.760000E+03	9.827524E-17	3.734744E-18
