#wls	flux	fluxerr
1.600000E+03	8.139223E-18	2.840377E-18
1.640000E+03	8.373373E-18	2.903364E-18
1.680000E+03	8.616131E-18	2.967940E-18
1.720000E+03	8.867856E-18	3.034135E-18
1.760000E+03	9.130544E-18	3.102532E-18
1.800000E+03	9.401385E-18	3.172070E-18
1.840000E+03	9.684093E-18	3.243898E-18
1.880000E+03	9.977484E-18	3.317497E-18
1.920000E+03	1.028018E-17	3.392291E-18
1.960000E+03	1.059627E-17	3.469511E-18
2.000000E+03	1.092644E-17	3.549225E-18
2.040000E+03	1.126737E-17	3.630215E-18
2.080000E+03	1.162152E-17	3.713129E-18
2.120000E+03	1.199161E-17	3.798671E-18
2.160000E+03	1.237405E-17	3.885531E-18
2.200000E+03	1.277383E-17	3.975103E-18
2.240000E+03	1.318950E-17	4.066736E-18
2.280000E+03	1.362177E-17	4.160452E-18
2.320000E+03	1.407142E-17	4.256272E-18
2.360000E+03	1.453924E-17	4.354216E-18
2.400000E+03	1.502606E-17	4.454298E-18
2.440000E+03	1.553548E-17	4.557328E-18
2.480000E+03	1.606306E-17	4.661729E-18
2.520000E+03	1.661532E-17	4.769122E-18
2.560000E+03	1.719053E-17	4.878700E-18
2.600000E+03	1.778976E-17	4.990454E-18
2.640000E+03	1.841413E-17	5.104366E-18
2.680000E+03	1.906479E-17	5.220404E-18
2.720000E+03	1.974639E-17	5.339463E-18
2.760000E+03	2.045341E-17	5.459650E-18
2.800000E+03	2.119418E-17	5.582787E-18
2.840000E+03	2.196660E-17	5.707862E-18
2.880000E+03	2.276812E-17	5.833763E-18
2.920000E+03	2.360798E-17	5.962392E-18
2.960000E+03	2.448382E-17	6.092614E-18
3.000000E+03	2.540157E-17	6.225352E-18
3.010000E+03	2.563265E-17	6.257662E-18
3.020000E+03	2.587062E-17	6.291129E-18
3.030000E+03	2.611110E-17	6.324671E-18
3.040000E+03	2.635411E-17	6.358284E-18
3.050000E+03	2.659969E-17	6.391967E-18
3.060000E+03	2.684320E-17	6.424600E-18
3.070000E+03	2.709391E-17	6.458399E-18
3.080000E+03	2.734728E-17	6.492257E-18
3.090000E+03	2.760329E-17	6.526166E-18
3.100000E+03	2.786198E-17	6.560124E-18
3.110000E+03	2.812338E-17	6.594124E-18
3.120000E+03	2.838751E-17	6.628165E-18
3.130000E+03	2.865440E-17	6.662241E-18
3.140000E+03	2.891908E-17	6.695192E-18
3.150000E+03	2.919152E-17	6.729319E-18
3.160000E+03	2.946679E-17	6.763465E-18
3.170000E+03	2.974491E-17	6.797627E-18
3.180000E+03	3.002591E-17	6.831799E-18
3.190000E+03	3.030981E-17	6.865974E-18
3.200000E+03	3.059663E-17	6.900146E-18
3.210000E+03	3.088642E-17	6.934314E-18
3.220000E+03	3.117917E-17	6.968466E-18
3.230000E+03	3.147492E-17	7.002598E-18
3.240000E+03	3.177370E-17	7.036706E-18
3.250000E+03	3.207553E-17	7.070780E-18
3.260000E+03	3.237485E-17	7.103593E-18
3.270000E+03	3.268278E-17	7.137576E-18
3.280000E+03	3.299381E-17	7.171503E-18
3.290000E+03	3.330799E-17	7.205372E-18
3.300000E+03	3.362532E-17	7.239170E-18
3.310000E+03	3.394582E-17	7.272891E-18
3.320000E+03	3.426953E-17	7.306530E-18
3.330000E+03	3.459645E-17	7.340075E-18
3.340000E+03	3.492660E-17	7.373518E-18
3.350000E+03	3.526001E-17	7.406852E-18
3.360000E+03	3.559670E-17	7.440068E-18
3.370000E+03	3.593668E-17	7.473157E-18
3.380000E+03	3.627997E-17	7.506106E-18
3.390000E+03	3.662659E-17	7.538911E-18
3.400000E+03	3.697655E-17	7.571558E-18
3.410000E+03	3.732986E-17	7.604038E-18
3.420000E+03	3.768656E-17	7.636343E-18
3.430000E+03	3.804664E-17	7.668460E-18
3.440000E+03	3.841012E-17	7.700380E-18
3.450000E+03	3.877701E-17	7.732090E-18
3.460000E+03	3.914733E-17	7.763581E-18
3.470000E+03	3.952109E-17	7.794840E-18
3.480000E+03	3.989830E-17	7.825856E-18
3.490000E+03	4.027895E-17	7.856616E-18
3.500000E+03	4.066307E-17	7.887110E-18
3.510000E+03	4.105065E-17	7.917323E-18
3.520000E+03	4.144170E-17	7.947244E-18
3.530000E+03	4.183624E-17	7.976859E-18
3.540000E+03	4.224145E-17	8.007519E-18
3.550000E+03	4.264301E-17	8.036489E-18
3.560000E+03	4.304805E-17	8.065112E-18
3.570000E+03	4.345658E-17	8.093375E-18
3.580000E+03	4.386859E-17	8.121265E-18
3.590000E+03	4.428408E-17	8.148766E-18
3.600000E+03	4.470302E-17	8.175863E-18
3.610000E+03	4.512544E-17	8.202543E-18
3.620000E+03	4.555131E-17	8.228789E-18
3.630000E+03	4.598063E-17	8.254588E-18
3.640000E+03	4.641338E-17	8.279921E-18
3.650000E+03	4.684954E-17	8.304774E-18
3.660000E+03	4.728911E-17	8.329131E-18
3.670000E+03	4.773206E-17	8.352977E-18
3.680000E+03	4.817838E-17	8.376292E-18
3.690000E+03	4.862803E-17	8.399060E-18
3.700000E+03	4.908101E-17	8.421267E-18
3.710000E+03	4.953729E-17	8.442894E-18
3.720000E+03	5.000528E-17	8.465355E-18
3.730000E+03	5.046813E-17	8.485773E-18
3.740000E+03	5.093418E-17	8.505557E-18
3.750000E+03	5.140340E-17	8.524693E-18
3.760000E+03	5.187574E-17	8.543158E-18
3.770000E+03	5.235117E-17	8.560937E-18
3.780000E+03	5.282965E-17	8.578011E-18
3.790000E+03	5.331113E-17	8.594362E-18
3.800000E+03	5.379556E-17	8.609971E-18
3.810000E+03	5.428290E-17	8.624820E-18
3.820000E+03	5.477307E-17	8.638889E-18
3.830000E+03	5.526603E-17	8.652159E-18
3.840000E+03	5.576173E-17	8.664613E-18
3.850000E+03	5.626010E-17	8.676231E-18
3.860000E+03	5.676106E-17	8.686996E-18
3.870000E+03	5.726457E-17	8.696887E-18
3.880000E+03	5.777052E-17	8.705884E-18
3.890000E+03	5.827887E-17	8.713972E-18
3.900000E+03	5.879939E-17	8.722595E-18
3.910000E+03	5.931234E-17	8.728804E-18
3.920000E+03	5.982743E-17	8.734045E-18
3.930000E+03	6.034456E-17	8.738301E-18
3.940000E+03	6.086365E-17	8.741553E-18
3.950000E+03	6.138460E-17	8.743784E-18
3.960000E+03	6.190730E-17	8.744973E-18
3.970000E+03	6.243165E-17	8.745104E-18
3.980000E+03	6.295754E-17	8.744160E-18
3.990000E+03	6.348488E-17	8.742125E-18
4.000000E+03	6.401353E-17	8.738981E-18
4.010000E+03	6.454338E-17	8.734709E-18
4.020000E+03	6.507430E-17	8.729297E-18
4.030000E+03	6.560617E-17	8.722728E-18
4.040000E+03	6.613886E-17	8.714985E-18
4.050000E+03	6.667223E-17	8.706056E-18
4.060000E+03	6.720613E-17	8.695926E-18
4.070000E+03	6.774044E-17	8.684580E-18
4.080000E+03	6.827499E-17	8.672006E-18
4.090000E+03	6.880964E-17	8.658191E-18
4.100000E+03	6.934424E-17	8.643126E-18
4.110000E+03	6.987862E-17	8.626798E-18
4.120000E+03	7.041261E-17	8.609195E-18
4.130000E+03	7.094607E-17	8.590311E-18
4.140000E+03	7.147880E-17	8.570137E-18
4.150000E+03	7.201062E-17	8.548664E-18
4.160000E+03	7.254137E-17	8.525886E-18
4.170000E+03	7.307086E-17	8.501799E-18
4.180000E+03	7.359890E-17	8.476396E-18
4.190000E+03	7.412530E-17	8.449676E-18
4.200000E+03	7.463743E-17	8.420234E-18
4.210000E+03	7.515987E-17	8.390877E-18
4.220000E+03	7.568006E-17	8.360201E-18
4.230000E+03	7.619781E-17	8.328207E-18
4.240000E+03	7.671290E-17	8.294896E-18
4.250000E+03	7.722510E-17	8.260274E-18
4.260000E+03	7.773422E-17	8.224347E-18
4.270000E+03	7.824003E-17	8.187123E-18
4.280000E+03	7.874230E-17	8.148611E-18
4.290000E+03	7.924079E-17	8.108822E-18
4.300000E+03	7.973530E-17	8.067769E-18
4.310000E+03	8.021227E-17	8.024135E-18
4.320000E+03	8.069802E-17	7.980607E-18
4.330000E+03	8.117905E-17	7.935863E-18
4.340000E+03	8.165514E-17	7.889926E-18
4.350000E+03	8.212606E-17	7.842816E-18
4.360000E+03	8.259154E-17	7.794559E-18
4.370000E+03	8.303760E-17	7.743899E-18
4.380000E+03	8.349141E-17	7.693437E-18
4.390000E+03	8.393905E-17	7.641916E-18
4.400000E+03	8.438028E-17	7.589367E-18
4.410000E+03	8.481484E-17	7.535828E-18
4.420000E+03	8.524248E-17	7.481336E-18
4.430000E+03	8.564879E-17	7.424705E-18
4.440000E+03	8.606178E-17	7.368444E-18
4.450000E+03	8.646711E-17	7.311360E-18
4.460000E+03	8.686452E-17	7.253504E-18
4.470000E+03	8.723937E-17	7.193738E-18
4.480000E+03	8.762015E-17	7.134502E-18
4.490000E+03	8.799230E-17	7.074656E-18
4.500000E+03	8.835557E-17	7.014260E-18
4.510000E+03	8.869509E-17	6.952228E-18
4.520000E+03	8.903983E-17	6.890931E-18
4.530000E+03	8.937500E-17	6.829278E-18
4.540000E+03	8.970038E-17	6.767341E-18
4.550000E+03	9.000092E-17	6.704089E-18
4.560000E+03	9.030601E-17	6.641817E-18
4.570000E+03	9.060069E-17	6.579490E-18
4.580000E+03	9.086979E-17	6.516116E-18
4.590000E+03	9.114301E-17	6.453935E-18
4.600000E+03	9.140526E-17	6.391951E-18
4.610000E+03	9.164130E-17	6.329211E-18
4.620000E+03	9.188107E-17	6.267898E-18
4.630000E+03	9.209426E-17	6.206034E-18
4.640000E+03	9.231098E-17	6.145763E-18
4.650000E+03	9.251601E-17	6.086151E-18
4.660000E+03	9.269402E-17	6.026307E-18
4.670000E+03	9.287534E-17	5.968317E-18
4.680000E+03	9.302941E-17	5.910312E-18
4.690000E+03	9.318669E-17	5.854340E-18
4.700000E+03	9.331658E-17	5.798570E-18
4.710000E+03	9.344965E-17	5.745012E-18
4.720000E+03	9.357055E-17	5.692804E-18
4.730000E+03	9.366396E-17	5.641118E-18
4.740000E+03	9.376052E-17	5.591904E-18
4.750000E+03	9.382958E-17	5.543416E-18
4.760000E+03	9.390185E-17	5.497564E-18
4.770000E+03	9.394663E-17	5.452625E-18
4.780000E+03	9.399471E-17	5.410473E-18
4.790000E+03	9.401533E-17	5.369402E-18
4.800000E+03	9.403916E-17	5.331232E-18
4.810000E+03	9.403535E-17	5.294201E-18
4.820000E+03	9.401929E-17	5.259136E-18
4.830000E+03	9.400640E-17	5.226835E-18
4.840000E+03	9.396596E-17	5.195524E-18
4.850000E+03	9.392876E-17	5.166840E-18
4.860000E+03	9.386414E-17	5.139021E-18
4.870000E+03	9.378754E-17	5.112842E-18
4.880000E+03	9.371438E-17	5.089059E-18
4.890000E+03	9.361409E-17	5.065925E-18
4.900000E+03	9.350214E-17	5.044195E-18
4.910000E+03	9.339391E-17	5.024608E-18
4.920000E+03	9.325901E-17	5.005433E-18
4.930000E+03	9.311288E-17	4.987413E-18
4.940000E+03	9.297086E-17	4.971272E-18
4.950000E+03	9.280276E-17	4.955301E-18
4.960000E+03	9.262397E-17	4.940229E-18
4.970000E+03	9.244978E-17	4.926779E-18
4.980000E+03	9.225022E-17	4.913259E-18
4.990000E+03	9.204063E-17	4.900395E-18
5.000000E+03	9.182125E-17	4.888109E-18
5.010000E+03	9.160723E-17	4.877120E-18
5.020000E+03	9.136894E-17	4.865764E-18
5.030000E+03	9.112161E-17	4.854767E-18
5.040000E+03	9.086549E-17	4.844061E-18
5.050000E+03	9.060088E-17	4.833583E-18
5.060000E+03	9.034273E-17	4.824054E-18
5.070000E+03	9.006188E-17	4.813846E-18
5.080000E+03	8.977336E-17	4.803690E-18
5.090000E+03	8.947745E-17	4.793535E-18
5.100000E+03	8.917445E-17	4.783333E-18
5.110000E+03	8.886465E-17	4.773039E-18
5.120000E+03	8.854834E-17	4.762612E-18
5.130000E+03	8.824016E-17	4.752788E-18
5.140000E+03	8.791168E-17	4.741984E-18
5.150000E+03	8.757757E-17	4.730945E-18
5.160000E+03	8.723814E-17	4.719641E-18
5.170000E+03	8.689370E-17	4.708051E-18
5.180000E+03	8.654453E-17	4.696151E-18
5.190000E+03	8.619094E-17	4.683924E-18
5.200000E+03	8.583323E-17	4.671355E-18
5.210000E+03	8.547168E-17	4.658430E-18
5.220000E+03	8.510660E-17	4.645142E-18
5.230000E+03	8.473827E-17	4.631482E-18
5.240000E+03	8.436699E-17	4.617446E-18
5.250000E+03	8.399306E-17	4.603034E-18
5.260000E+03	8.361677E-17	4.588245E-18
5.270000E+03	8.323838E-17	4.573081E-18
5.280000E+03	8.285821E-17	4.557549E-18
5.290000E+03	8.247653E-17	4.541654E-18
5.300000E+03	8.208031E-17	4.524672E-18
5.310000E+03	8.169653E-17	4.508085E-18
5.320000E+03	8.131208E-17	4.491166E-18
5.330000E+03	8.092724E-17	4.473932E-18
5.340000E+03	8.054227E-17	4.456396E-18
5.350000E+03	8.015747E-17	4.438576E-18
5.360000E+03	7.977309E-17	4.420489E-18
5.370000E+03	7.937655E-17	4.401442E-18
5.380000E+03	7.899390E-17	4.382884E-18
5.390000E+03	7.861246E-17	4.364118E-18
5.400000E+03	7.823250E-17	4.345168E-18
5.410000E+03	7.785428E-17	4.326056E-18
5.420000E+03	7.746552E-17	4.306107E-18
5.430000E+03	7.709160E-17	4.286742E-18
5.440000E+03	7.672015E-17	4.267284E-18
5.450000E+03	7.635143E-17	4.247758E-18
5.460000E+03	7.597338E-17	4.227502E-18
5.470000E+03	7.561087E-17	4.207898E-18
5.480000E+03	7.525179E-17	4.188248E-18
5.490000E+03	7.488428E-17	4.167867E-18
5.500000E+03	7.453283E-17	4.148095E-18
5.510000E+03	7.418543E-17	4.128242E-18
5.520000E+03	7.383033E-17	4.107630E-18
5.530000E+03	7.349159E-17	4.087579E-18
5.540000E+03	7.315737E-17	4.067409E-18
5.550000E+03	7.281605E-17	4.046457E-18
5.560000E+03	7.249138E-17	4.026023E-18
5.570000E+03	7.217166E-17	4.005441E-18
5.580000E+03	7.184542E-17	3.984059E-18
5.590000E+03	7.153606E-17	3.963159E-18
5.600000E+03	7.122057E-17	3.941452E-18
5.610000E+03	7.092212E-17	3.920207E-18
5.620000E+03	7.061789E-17	3.898150E-18
5.630000E+03	7.033088E-17	3.876540E-18
5.640000E+03	7.004975E-17	3.854739E-18
5.650000E+03	6.976339E-17	3.832126E-18
5.660000E+03	6.949449E-17	3.809941E-18
5.670000E+03	6.922071E-17	3.786947E-18
5.680000E+03	6.895344E-17	3.763763E-18
5.690000E+03	6.870389E-17	3.740994E-18
5.700000E+03	6.844997E-17	3.717428E-18
5.710000E+03	6.821397E-17	3.694271E-18
5.720000E+03	6.797394E-17	3.670329E-18
5.730000E+03	6.775201E-17	3.646792E-18
5.740000E+03	6.752640E-17	3.622484E-18
5.750000E+03	6.731908E-17	3.598582E-18
5.760000E+03	6.710841E-17	3.573925E-18
5.770000E+03	6.690543E-17	3.549103E-18
5.780000E+03	6.672103E-17	3.524689E-18
5.790000E+03	6.653379E-17	3.499549E-18
5.800000E+03	6.635464E-17	3.474263E-18
5.810000E+03	6.619439E-17	3.449394E-18
5.820000E+03	6.603179E-17	3.423833E-18
5.830000E+03	6.587769E-17	3.398149E-18
5.840000E+03	6.574282E-17	3.372896E-18
5.850000E+03	6.560610E-17	3.346992E-18
5.860000E+03	6.547830E-17	3.320994E-18
5.870000E+03	6.537009E-17	3.295445E-18
5.880000E+03	6.526053E-17	3.269291E-18
5.890000E+03	6.516031E-17	3.243079E-18
5.900000E+03	6.508009E-17	3.217342E-18
5.910000E+03	6.499900E-17	3.191051E-18
5.920000E+03	6.492771E-17	3.164746E-18
5.930000E+03	6.486639E-17	3.138441E-18
5.940000E+03	6.481518E-17	3.112155E-18
5.950000E+03	6.478470E-17	3.086403E-18
5.960000E+03	6.475422E-17	3.060205E-18
5.970000E+03	6.473435E-17	3.034084E-18
5.980000E+03	6.472529E-17	3.008062E-18
5.990000E+03	6.472718E-17	2.982162E-18
6.000000E+03	6.475067E-17	2.956886E-18
6.010000E+03	6.477507E-17	2.931303E-18
6.020000E+03	6.481100E-17	2.905924E-18
6.030000E+03	6.485868E-17	2.880779E-18
6.040000E+03	6.491828E-17	2.855901E-18
6.050000E+03	6.499003E-17	2.831325E-18
6.060000E+03	6.507414E-17	2.807089E-18
6.070000E+03	6.517084E-17	2.783234E-18
6.080000E+03	6.529086E-17	2.760247E-18
6.090000E+03	6.541343E-17	2.737281E-18
6.100000E+03	6.554929E-17	2.714835E-18
6.110000E+03	6.569867E-17	2.692960E-18
6.120000E+03	6.586183E-17	2.671714E-18
6.130000E+03	6.603904E-17	2.651156E-18
6.140000E+03	6.623054E-17	2.631349E-18
6.150000E+03	6.643660E-17	2.612362E-18
6.160000E+03	6.665750E-17	2.594267E-18
6.170000E+03	6.689347E-17	2.577138E-18
6.180000E+03	6.714481E-17	2.561056E-18
6.190000E+03	6.741176E-17	2.546106E-18
6.200000E+03	6.769459E-17	2.532375E-18
6.210000E+03	6.799352E-17	2.519956E-18
6.220000E+03	6.830881E-17	2.508944E-18
6.230000E+03	6.864066E-17	2.499440E-18
6.240000E+03	6.898928E-17	2.491547E-18
6.250000E+03	6.935480E-17	2.485370E-18
6.260000E+03	6.973727E-17	2.481012E-18
6.270000E+03	7.013670E-17	2.478580E-18
6.280000E+03	7.054160E-17	2.477780E-18
6.290000E+03	7.097437E-17	2.479510E-18
6.300000E+03	7.142322E-17	2.483423E-18
6.310000E+03	7.188754E-17	2.489510E-18
6.320000E+03	7.236671E-17	2.497755E-18
6.330000E+03	7.286009E-17	2.508141E-18
6.340000E+03	7.336701E-17	2.520647E-18
6.350000E+03	7.388678E-17	2.535251E-18
6.360000E+03	7.440668E-17	2.551517E-18
6.370000E+03	7.494990E-17	2.570239E-18
6.380000E+03	7.550377E-17	2.590980E-18
6.390000E+03	7.606752E-17	2.613710E-18
6.400000E+03	7.664038E-17	2.638401E-18
6.410000E+03	7.722155E-17	2.665018E-18
6.420000E+03	7.779765E-17	2.693097E-18
6.430000E+03	7.839286E-17	2.723465E-18
6.440000E+03	7.899389E-17	2.755661E-18
6.450000E+03	7.959988E-17	2.789648E-18
6.460000E+03	8.020995E-17	2.825392E-18
6.470000E+03	8.081019E-17	2.862395E-18
6.480000E+03	8.142569E-17	2.901539E-18
6.490000E+03	8.204259E-17	2.942331E-18
6.500000E+03	8.265997E-17	2.984734E-18
6.510000E+03	8.326350E-17	3.028225E-18
6.520000E+03	8.387899E-17	3.073734E-18
6.530000E+03	8.449215E-17	3.120743E-18
6.540000E+03	8.508833E-17	3.168703E-18
6.550000E+03	8.569391E-17	3.218589E-18
6.560000E+03	8.629432E-17	3.269859E-18
6.570000E+03	8.687464E-17	3.321940E-18
6.580000E+03	8.746200E-17	3.375860E-18
6.590000E+03	8.804182E-17	3.431063E-18
6.600000E+03	8.859934E-17	3.486948E-18
6.610000E+03	8.916263E-17	3.544541E-18
6.620000E+03	8.971713E-17	3.603187E-18
6.630000E+03	9.024795E-17	3.662191E-18
6.640000E+03	9.078379E-17	3.722622E-18
6.650000E+03	9.130986E-17	3.783792E-18
6.660000E+03	9.181104E-17	3.844978E-18
6.670000E+03	9.231661E-17	3.907305E-18
6.680000E+03	9.281156E-17	3.970061E-18
6.690000E+03	9.328058E-17	4.032490E-18
6.700000E+03	9.375348E-17	4.095784E-18
6.710000E+03	9.419983E-17	4.158531E-18
6.720000E+03	9.464978E-17	4.221963E-18
6.730000E+03	9.507266E-17	4.284633E-18
6.740000E+03	9.549889E-17	4.347816E-18
6.750000E+03	9.591306E-17	4.410739E-18
6.760000E+03	9.629944E-17	4.472589E-18
6.770000E+03	9.668893E-17	4.534709E-18
6.780000E+03	9.705025E-17	4.595560E-18
6.790000E+03	9.741456E-17	4.656530E-18
6.800000E+03	9.775036E-17	4.716042E-18
6.810000E+03	9.808907E-17	4.775532E-18
6.820000E+03	9.839898E-17	4.833386E-18
6.830000E+03	9.871176E-17	4.891082E-18
6.840000E+03	9.899549E-17	4.946976E-18
6.850000E+03	9.928208E-17	5.002586E-18
6.860000E+03	9.953944E-17	5.056236E-18
6.870000E+03	9.979967E-17	5.109487E-18
6.880000E+03	1.000305E-16	5.160632E-18
6.890000E+03	1.002643E-16	5.211269E-18
6.900000E+03	1.004686E-16	5.259664E-18
6.910000E+03	1.006759E-16	5.307452E-18
6.920000E+03	1.008536E-16	5.352874E-18
6.930000E+03	1.010344E-16	5.397599E-18
6.940000E+03	1.011856E-16	5.439843E-18
6.950000E+03	1.013237E-16	5.480424E-18
6.960000E+03	1.014649E-16	5.520191E-18
6.970000E+03	1.015767E-16	5.557325E-18
6.980000E+03	1.016918E-16	5.593577E-18
6.990000E+03	1.017775E-16	5.627109E-18
7.000000E+03	1.018503E-16	5.658784E-18
7.010000E+03	1.019266E-16	5.689491E-18
7.020000E+03	1.019737E-16	5.717367E-18
7.030000E+03	1.020246E-16	5.744229E-18
7.040000E+03	1.020463E-16	5.768197E-18
7.050000E+03	1.020555E-16	5.790176E-18
7.060000E+03	1.020688E-16	5.811085E-18
7.070000E+03	1.020532E-16	5.829029E-18
7.080000E+03	1.020254E-16	5.844931E-18
7.090000E+03	1.020020E-16	5.859726E-18
7.100000E+03	1.019500E-16	5.871508E-18
7.110000E+03	1.018862E-16	5.881216E-18
7.120000E+03	1.018271E-16	5.889796E-18
7.130000E+03	1.017398E-16	5.895338E-18
7.140000E+03	1.016411E-16	5.898792E-18
7.150000E+03	1.015310E-16	5.900160E-18
7.160000E+03	1.014261E-16	5.900398E-18
7.170000E+03	1.012936E-16	5.897598E-18
7.180000E+03	1.011501E-16	5.892723E-18
7.190000E+03	1.010123E-16	5.886737E-18
7.200000E+03	1.008473E-16	5.877739E-18
7.210000E+03	1.006719E-16	5.866697E-18
7.220000E+03	1.004860E-16	5.853625E-18
7.230000E+03	1.003062E-16	5.839487E-18
7.240000E+03	1.001001E-16	5.822404E-18
7.250000E+03	9.988404E-17	5.803346E-18
7.260000E+03	9.965824E-17	5.782334E-18
7.270000E+03	9.942285E-17	5.759393E-18
7.280000E+03	9.919412E-17	5.735479E-18
7.290000E+03	9.894000E-17	5.708755E-18
7.300000E+03	9.867675E-17	5.680184E-18
7.310000E+03	9.840456E-17	5.649797E-18
7.320000E+03	9.812360E-17	5.617628E-18
7.330000E+03	9.784991E-17	5.584620E-18
7.340000E+03	9.755182E-17	5.548988E-18
7.350000E+03	9.724545E-17	5.511685E-18
7.360000E+03	9.693095E-17	5.472750E-18
7.370000E+03	9.660849E-17	5.432226E-18
7.380000E+03	9.627825E-17	5.390159E-18
7.390000E+03	9.595597E-17	5.347462E-18
7.400000E+03	9.561058E-17	5.302438E-18
7.410000E+03	9.525789E-17	5.256014E-18
7.420000E+03	9.489807E-17	5.208240E-18
7.430000E+03	9.453128E-17	5.159173E-18
7.440000E+03	9.415768E-17	5.108866E-18
7.450000E+03	9.377745E-17	5.057379E-18
7.460000E+03	9.339073E-17	5.004771E-18
7.470000E+03	9.299771E-17	4.951105E-18
7.480000E+03	9.261361E-17	4.897242E-18
7.490000E+03	9.220837E-17	4.841646E-18
7.500000E+03	9.179730E-17	4.785193E-18
7.510000E+03	9.138056E-17	4.727953E-18
7.520000E+03	9.095832E-17	4.670002E-18
7.530000E+03	9.053071E-17	4.611414E-18
7.540000E+03	9.009790E-17	4.552272E-18
7.550000E+03	8.966006E-17	4.492657E-18
7.560000E+03	8.921732E-17	4.432653E-18
7.570000E+03	8.876986E-17	4.372350E-18
7.580000E+03	8.831781E-17	4.311838E-18
7.590000E+03	8.786133E-17	4.251212E-18
7.600000E+03	8.740058E-17	4.190571E-18
7.610000E+03	8.693571E-17	4.130015E-18
7.620000E+03	8.646686E-17	4.069649E-18
7.630000E+03	8.599417E-17	4.009583E-18
7.640000E+03	8.551782E-17	3.949927E-18
7.650000E+03	8.503793E-17	3.890799E-18
7.660000E+03	8.455465E-17	3.832317E-18
7.670000E+03	8.406815E-17	3.774606E-18
7.680000E+03	8.357854E-17	3.717791E-18
7.690000E+03	8.308598E-17	3.662004E-18
7.700000E+03	8.259062E-17	3.607378E-18
7.710000E+03	8.209259E-17	3.554051E-18
7.720000E+03	8.159205E-17	3.502162E-18
7.730000E+03	8.108913E-17	3.451853E-18
7.740000E+03	8.057082E-17	3.402712E-18
7.750000E+03	8.006367E-17	3.356005E-18
7.760000E+03	7.955458E-17	3.311313E-18
