#wls	flux	fluxerr
1.600000E+03	7.885530E-18	2.168140E-18
1.640000E+03	8.086358E-18	2.211036E-18
1.680000E+03	8.295790E-18	2.255420E-18
1.720000E+03	8.512695E-18	2.300922E-18
1.760000E+03	8.737401E-18	2.347574E-18
1.800000E+03	8.970221E-18	2.395396E-18
1.840000E+03	9.211503E-18	2.444416E-18
1.880000E+03	9.461607E-18	2.494661E-18
1.920000E+03	9.720904E-18	2.546156E-18
1.960000E+03	9.989798E-18	2.598928E-18
2.000000E+03	1.026869E-17	2.653001E-18
2.040000E+03	1.055991E-17	2.708886E-18
2.080000E+03	1.086018E-17	2.765648E-18
2.120000E+03	1.117181E-17	2.823787E-18
2.160000E+03	1.149735E-17	2.883841E-18
2.200000E+03	1.183327E-17	2.944813E-18
2.240000E+03	1.218428E-17	3.007767E-18
2.280000E+03	1.254667E-17	3.071658E-18
2.320000E+03	1.292543E-17	3.137590E-18
2.360000E+03	1.331903E-17	3.205047E-18
2.400000E+03	1.372811E-17	3.274037E-18
2.440000E+03	1.415335E-17	3.344575E-18
2.480000E+03	1.459284E-17	3.416058E-18
2.520000E+03	1.505245E-17	3.489695E-18
2.560000E+03	1.553042E-17	3.564891E-18
2.600000E+03	1.603038E-17	3.642288E-18
2.640000E+03	1.654753E-17	3.720590E-18
2.680000E+03	1.708549E-17	3.800417E-18
2.720000E+03	1.764511E-17	3.881741E-18
2.760000E+03	1.822729E-17	3.964529E-18
2.800000E+03	1.883629E-17	4.049459E-18
2.840000E+03	1.946647E-17	4.135054E-18
2.880000E+03	2.012556E-17	4.222699E-18
2.920000E+03	2.080755E-17	4.310839E-18
2.960000E+03	2.152064E-17	4.400893E-18
3.000000E+03	2.225834E-17	4.491213E-18
3.010000E+03	2.244829E-17	4.514139E-18
3.020000E+03	2.264011E-17	4.537123E-18
3.030000E+03	2.283380E-17	4.560159E-18
3.040000E+03	2.302938E-17	4.583249E-18
3.050000E+03	2.322687E-17	4.606388E-18
3.060000E+03	2.342628E-17	4.629575E-18
3.070000E+03	2.362763E-17	4.652806E-18
3.080000E+03	2.383093E-17	4.676080E-18
3.090000E+03	2.403620E-17	4.699392E-18
3.100000E+03	2.424344E-17	4.722742E-18
3.110000E+03	2.444839E-17	4.745291E-18
3.120000E+03	2.465960E-17	4.768701E-18
3.130000E+03	2.487286E-17	4.792143E-18
3.140000E+03	2.508815E-17	4.815608E-18
3.150000E+03	2.530549E-17	4.839095E-18
3.160000E+03	2.552490E-17	4.862600E-18
3.170000E+03	2.574640E-17	4.886122E-18
3.180000E+03	2.596999E-17	4.909656E-18
3.190000E+03	2.619570E-17	4.933198E-18
3.200000E+03	2.642352E-17	4.956744E-18
3.210000E+03	2.665348E-17	4.980291E-18
3.220000E+03	2.688559E-17	5.003836E-18
3.230000E+03	2.711987E-17	5.027374E-18
3.240000E+03	2.735631E-17	5.050899E-18
3.250000E+03	2.759495E-17	5.074412E-18
3.260000E+03	2.783578E-17	5.097905E-18
3.270000E+03	2.807882E-17	5.121373E-18
3.280000E+03	2.832409E-17	5.144813E-18
3.290000E+03	2.857157E-17	5.168219E-18
3.300000E+03	2.882131E-17	5.191589E-18
3.310000E+03	2.907330E-17	5.214917E-18
3.320000E+03	2.932754E-17	5.238195E-18
3.330000E+03	2.958406E-17	5.261422E-18
3.340000E+03	2.983762E-17	5.283662E-18
3.350000E+03	3.009866E-17	5.306764E-18
3.360000E+03	3.036200E-17	5.329798E-18
3.370000E+03	3.062763E-17	5.352757E-18
3.380000E+03	3.089558E-17	5.375636E-18
3.390000E+03	3.116584E-17	5.398429E-18
3.400000E+03	3.143842E-17	5.421132E-18
3.410000E+03	3.171334E-17	5.443738E-18
3.420000E+03	3.199058E-17	5.466237E-18
3.430000E+03	3.227015E-17	5.488627E-18
3.440000E+03	3.255207E-17	5.510902E-18
3.450000E+03	3.283633E-17	5.533053E-18
3.460000E+03	3.312292E-17	5.555074E-18
3.470000E+03	3.341186E-17	5.576957E-18
3.480000E+03	3.370315E-17	5.598698E-18
3.490000E+03	3.399678E-17	5.620288E-18
3.500000E+03	3.429275E-17	5.641719E-18
3.510000E+03	3.459106E-17	5.662985E-18
3.520000E+03	3.489172E-17	5.684080E-18
3.530000E+03	3.519470E-17	5.704993E-18
3.540000E+03	3.550001E-17	5.725717E-18
3.550000E+03	3.580766E-17	5.746248E-18
3.560000E+03	3.611761E-17	5.766572E-18
3.570000E+03	3.642988E-17	5.786686E-18
3.580000E+03	3.674444E-17	5.806579E-18
3.590000E+03	3.706131E-17	5.826245E-18
3.600000E+03	3.738045E-17	5.845672E-18
3.610000E+03	3.770187E-17	5.864855E-18
3.620000E+03	3.802554E-17	5.883784E-18
3.630000E+03	3.835145E-17	5.902449E-18
3.640000E+03	3.867959E-17	5.920842E-18
3.650000E+03	3.900995E-17	5.938956E-18
3.660000E+03	3.934249E-17	5.956778E-18
3.670000E+03	3.967722E-17	5.974303E-18
3.680000E+03	4.001409E-17	5.991519E-18
3.690000E+03	4.035310E-17	6.008417E-18
3.700000E+03	4.069422E-17	6.024989E-18
3.710000E+03	4.103743E-17	6.041224E-18
3.720000E+03	4.138268E-17	6.057112E-18
3.730000E+03	4.172998E-17	6.072645E-18
3.740000E+03	4.207928E-17	6.087812E-18
3.750000E+03	4.243054E-17	6.102603E-18
3.760000E+03	4.278376E-17	6.117010E-18
3.770000E+03	4.313887E-17	6.131020E-18
3.780000E+03	4.349585E-17	6.144626E-18
3.790000E+03	4.385467E-17	6.157816E-18
3.800000E+03	4.421529E-17	6.170582E-18
3.810000E+03	4.457766E-17	6.182912E-18
3.820000E+03	4.494175E-17	6.194797E-18
3.830000E+03	4.530749E-17	6.206226E-18
3.840000E+03	4.567487E-17	6.217191E-18
3.850000E+03	4.604382E-17	6.227680E-18
3.860000E+03	4.641429E-17	6.237683E-18
3.870000E+03	4.678623E-17	6.247190E-18
3.880000E+03	4.715960E-17	6.256193E-18
3.890000E+03	4.753433E-17	6.264679E-18
3.900000E+03	4.791037E-17	6.272641E-18
3.910000E+03	4.828765E-17	6.280067E-18
3.920000E+03	4.866611E-17	6.286949E-18
3.930000E+03	4.904570E-17	6.293276E-18
3.940000E+03	4.942636E-17	6.299042E-18
3.950000E+03	4.980799E-17	6.304232E-18
3.960000E+03	5.019054E-17	6.308841E-18
3.970000E+03	5.057393E-17	6.312857E-18
3.980000E+03	5.095810E-17	6.316275E-18
3.990000E+03	5.134297E-17	6.319083E-18
4.000000E+03	5.172844E-17	6.321272E-18
4.010000E+03	5.211444E-17	6.322836E-18
4.020000E+03	5.250091E-17	6.323767E-18
4.030000E+03	5.288773E-17	6.324054E-18
4.040000E+03	5.327483E-17	6.323693E-18
4.050000E+03	5.366211E-17	6.322674E-18
4.060000E+03	5.404949E-17	6.320992E-18
4.070000E+03	5.443687E-17	6.318639E-18
4.080000E+03	5.482414E-17	6.315608E-18
4.090000E+03	5.521122E-17	6.311894E-18
4.100000E+03	5.559799E-17	6.307492E-18
4.110000E+03	5.598437E-17	6.302395E-18
4.120000E+03	5.637022E-17	6.296598E-18
4.130000E+03	5.675546E-17	6.290097E-18
4.140000E+03	5.713006E-17	6.281800E-18
4.150000E+03	5.751365E-17	6.273881E-18
4.160000E+03	5.789627E-17	6.265247E-18
4.170000E+03	5.827783E-17	6.255897E-18
4.180000E+03	5.865817E-17	6.245826E-18
4.190000E+03	5.903719E-17	6.235034E-18
4.200000E+03	5.941476E-17	6.223520E-18
4.210000E+03	5.979076E-17	6.211284E-18
4.220000E+03	6.016504E-17	6.198324E-18
4.230000E+03	6.053748E-17	6.184643E-18
4.240000E+03	6.090796E-17	6.170241E-18
4.250000E+03	6.127633E-17	6.155122E-18
4.260000E+03	6.164244E-17	6.139286E-18
4.270000E+03	6.200617E-17	6.122738E-18
4.280000E+03	6.235657E-17	6.104425E-18
4.290000E+03	6.271504E-17	6.086470E-18
4.300000E+03	6.307068E-17	6.067817E-18
4.310000E+03	6.342334E-17	6.048472E-18
4.320000E+03	6.377289E-17	6.028444E-18
4.330000E+03	6.411916E-17	6.007741E-18
4.340000E+03	6.446201E-17	5.986371E-18
4.350000E+03	6.480127E-17	5.964344E-18
4.360000E+03	6.513679E-17	5.941670E-18
4.370000E+03	6.546840E-17	5.918361E-18
4.380000E+03	6.578459E-17	5.893413E-18
4.390000E+03	6.610786E-17	5.868878E-18
4.400000E+03	6.642673E-17	5.843747E-18
4.410000E+03	6.674106E-17	5.818038E-18
4.420000E+03	6.705065E-17	5.791764E-18
4.430000E+03	6.735535E-17	5.764944E-18
4.440000E+03	6.765499E-17	5.737596E-18
4.450000E+03	6.794939E-17	5.709737E-18
4.460000E+03	6.822659E-17	5.680408E-18
4.470000E+03	6.850994E-17	5.651596E-18
4.480000E+03	6.878752E-17	5.622336E-18
4.490000E+03	6.905915E-17	5.592651E-18
4.500000E+03	6.932467E-17	5.562565E-18
4.510000E+03	6.958388E-17	5.532103E-18
4.520000E+03	6.982456E-17	5.500340E-18
4.530000E+03	7.007056E-17	5.469204E-18
4.540000E+03	7.030972E-17	5.437771E-18
4.550000E+03	7.054184E-17	5.406067E-18
4.560000E+03	7.076671E-17	5.374120E-18
4.570000E+03	7.097195E-17	5.341040E-18
4.580000E+03	7.118176E-17	5.308702E-18
4.590000E+03	7.138379E-17	5.276212E-18
4.600000E+03	7.157781E-17	5.243598E-18
4.610000E+03	7.176364E-17	5.210895E-18
4.620000E+03	7.192871E-17	5.177242E-18
4.630000E+03	7.209754E-17	5.144460E-18
4.640000E+03	7.225761E-17	5.111684E-18
4.650000E+03	7.240868E-17	5.078947E-18
4.660000E+03	7.255058E-17	5.046283E-18
4.670000E+03	7.267059E-17	5.012861E-18
4.680000E+03	7.279350E-17	4.980444E-18
4.690000E+03	7.290662E-17	4.948198E-18
4.700000E+03	7.300976E-17	4.916156E-18
4.710000E+03	7.309011E-17	4.883509E-18
4.720000E+03	7.317264E-17	4.851974E-18
4.730000E+03	7.324457E-17	4.820736E-18
4.740000E+03	7.330572E-17	4.789828E-18
4.750000E+03	7.334329E-17	4.758461E-18
4.760000E+03	7.338234E-17	4.728307E-18
4.770000E+03	7.341010E-17	4.698573E-18
4.780000E+03	7.342650E-17	4.669293E-18
4.790000E+03	7.341890E-17	4.639702E-18
4.800000E+03	7.341253E-17	4.611430E-18
4.810000E+03	7.339491E-17	4.583677E-18
4.820000E+03	7.335366E-17	4.555659E-18
4.830000E+03	7.331419E-17	4.528941E-18
4.840000E+03	7.326418E-17	4.502731E-18
4.850000E+03	7.319132E-17	4.476256E-18
4.860000E+03	7.312102E-17	4.451050E-18
4.870000E+03	7.304096E-17	4.426330E-18
4.880000E+03	7.295144E-17	4.402086E-18
4.890000E+03	7.284021E-17	4.377556E-18
4.900000E+03	7.273257E-17	4.354232E-18
4.910000E+03	7.261625E-17	4.331344E-18
4.920000E+03	7.247913E-17	4.308140E-18
4.930000E+03	7.234633E-17	4.286083E-18
4.940000E+03	7.219328E-17	4.263683E-18
4.950000E+03	7.204505E-17	4.242388E-18
4.960000E+03	7.188948E-17	4.221446E-18
4.970000E+03	7.171454E-17	4.200118E-18
4.980000E+03	7.154511E-17	4.179828E-18
4.990000E+03	7.136912E-17	4.159835E-18
5.000000E+03	7.117462E-17	4.139409E-18
5.010000E+03	7.098629E-17	4.119954E-18
5.020000E+03	7.078003E-17	4.100037E-18
5.030000E+03	7.058037E-17	4.081047E-18
5.040000E+03	7.037538E-17	4.062259E-18
5.050000E+03	7.015330E-17	4.042964E-18
5.060000E+03	6.993845E-17	4.024533E-18
5.070000E+03	6.970704E-17	4.005568E-18
5.080000E+03	6.948325E-17	3.987427E-18
5.090000E+03	6.925533E-17	3.969405E-18
5.100000E+03	6.901168E-17	3.950813E-18
5.110000E+03	6.877620E-17	3.932990E-18
5.120000E+03	6.852555E-17	3.914576E-18
5.130000E+03	6.828344E-17	3.896900E-18
5.140000E+03	6.802668E-17	3.878615E-18
5.150000E+03	6.777879E-17	3.861038E-18
5.160000E+03	6.751678E-17	3.842837E-18
5.170000E+03	6.726399E-17	3.825321E-18
5.180000E+03	6.699758E-17	3.807169E-18
5.190000E+03	6.674072E-17	3.789679E-18
5.200000E+03	6.647074E-17	3.771546E-18
5.210000E+03	6.621062E-17	3.754057E-18
5.220000E+03	6.593787E-17	3.735919E-18
5.230000E+03	6.567529E-17	3.718410E-18
5.240000E+03	6.540055E-17	3.700252E-18
5.250000E+03	6.513627E-17	3.682710E-18
5.260000E+03	6.486030E-17	3.664521E-18
5.270000E+03	6.459506E-17	3.646939E-18
5.280000E+03	6.431859E-17	3.628714E-18
5.290000E+03	6.405311E-17	3.611090E-18
5.300000E+03	6.377685E-17	3.592831E-18
5.310000E+03	6.351182E-17	3.575169E-18
5.320000E+03	6.323644E-17	3.556882E-18
5.330000E+03	6.297253E-17	3.539190E-18
5.340000E+03	6.269869E-17	3.520886E-18
5.350000E+03	6.242588E-17	3.502579E-18
5.360000E+03	6.216487E-17	3.484871E-18
5.370000E+03	6.189452E-17	3.466570E-18
5.380000E+03	6.163619E-17	3.448871E-18
5.390000E+03	6.136890E-17	3.430597E-18
5.400000E+03	6.111380E-17	3.412929E-18
5.410000E+03	6.085012E-17	3.394705E-18
5.420000E+03	6.058848E-17	3.376516E-18
5.430000E+03	6.033929E-17	3.358942E-18
5.440000E+03	6.008204E-17	3.340841E-18
5.450000E+03	5.982719E-17	3.322795E-18
5.460000E+03	5.958505E-17	3.305377E-18
5.470000E+03	5.933533E-17	3.287459E-18
5.480000E+03	5.909846E-17	3.270164E-18
5.490000E+03	5.885433E-17	3.252365E-18
5.500000E+03	5.861318E-17	3.234616E-18
5.510000E+03	5.838506E-17	3.217462E-18
5.520000E+03	5.815014E-17	3.199796E-18
5.530000E+03	5.791853E-17	3.182166E-18
5.540000E+03	5.770018E-17	3.165107E-18
5.550000E+03	5.747549E-17	3.147533E-18
5.560000E+03	5.725442E-17	3.129983E-18
5.570000E+03	5.704684E-17	3.112987E-18
5.580000E+03	5.683334E-17	3.095476E-18
5.590000E+03	5.662379E-17	3.077982E-18
5.600000E+03	5.642791E-17	3.061025E-18
5.610000E+03	5.622653E-17	3.043557E-18
5.620000E+03	5.602939E-17	3.026101E-18
5.630000E+03	5.583659E-17	3.008657E-18
5.640000E+03	5.565770E-17	2.991733E-18
5.650000E+03	5.547379E-17	2.974307E-18
5.660000E+03	5.529451E-17	2.956892E-18
5.670000E+03	5.512931E-17	2.939990E-18
5.680000E+03	5.495945E-17	2.922594E-18
5.690000E+03	5.479445E-17	2.905213E-18
5.700000E+03	5.463441E-17	2.887845E-18
5.710000E+03	5.448867E-17	2.870983E-18
5.720000E+03	5.433872E-17	2.853647E-18
5.730000E+03	5.419397E-17	2.836332E-18
5.740000E+03	5.405449E-17	2.819041E-18
5.750000E+03	5.392035E-17	2.801776E-18
5.760000E+03	5.380081E-17	2.785016E-18
5.770000E+03	5.367760E-17	2.767812E-18
5.780000E+03	5.355996E-17	2.750647E-18
5.790000E+03	5.344800E-17	2.733524E-18
5.800000E+03	5.334179E-17	2.716450E-18
5.810000E+03	5.325048E-17	2.699888E-18
5.820000E+03	5.315599E-17	2.682923E-18
5.830000E+03	5.306750E-17	2.666023E-18
5.840000E+03	5.298507E-17	2.649195E-18
5.850000E+03	5.290881E-17	2.632446E-18
5.860000E+03	5.284778E-17	2.616229E-18
5.870000E+03	5.278407E-17	2.599659E-18
5.880000E+03	5.272676E-17	2.583191E-18
5.890000E+03	5.267594E-17	2.566836E-18
5.900000E+03	5.263171E-17	2.550602E-18
5.910000E+03	5.259413E-17	2.534501E-18
5.920000E+03	5.257227E-17	2.518971E-18
5.930000E+03	5.254830E-17	2.503164E-18
5.940000E+03	5.253125E-17	2.487523E-18
5.950000E+03	5.252124E-17	2.472062E-18
5.960000E+03	5.251834E-17	2.456793E-18
5.970000E+03	5.252266E-17	2.441731E-18
5.980000E+03	5.253429E-17	2.426892E-18
5.990000E+03	5.255331E-17	2.412290E-18
6.000000E+03	5.257983E-17	2.397942E-18
6.010000E+03	5.262292E-17	2.384274E-18
6.020000E+03	5.266474E-17	2.370488E-18
6.030000E+03	5.271437E-17	2.357012E-18
6.040000E+03	5.277189E-17	2.343869E-18
6.050000E+03	5.283740E-17	2.331078E-18
6.060000E+03	5.291101E-17	2.318663E-18
6.070000E+03	5.299283E-17	2.306650E-18
6.080000E+03	5.308295E-17	2.295061E-18
6.090000E+03	5.318148E-17	2.283925E-18
6.100000E+03	5.328851E-17	2.273268E-18
6.110000E+03	5.340415E-17	2.263121E-18
6.120000E+03	5.352849E-17	2.253513E-18
6.130000E+03	5.366165E-17	2.244477E-18
6.140000E+03	5.380371E-17	2.236045E-18
6.150000E+03	5.395478E-17	2.228253E-18
6.160000E+03	5.411493E-17	2.221135E-18
6.170000E+03	5.428427E-17	2.214730E-18
6.180000E+03	5.446289E-17	2.209075E-18
6.190000E+03	5.466018E-17	2.204587E-18
6.200000E+03	5.485762E-17	2.200554E-18
6.210000E+03	5.506456E-17	2.197395E-18
6.220000E+03	5.528107E-17	2.195152E-18
6.230000E+03	5.550718E-17	2.193870E-18
6.240000E+03	5.574292E-17	2.193593E-18
6.250000E+03	5.598829E-17	2.194363E-18
6.260000E+03	5.623369E-17	2.195852E-18
6.270000E+03	5.649816E-17	2.198849E-18
6.280000E+03	5.677204E-17	2.203023E-18
6.290000E+03	5.705502E-17	2.208390E-18
6.300000E+03	5.734674E-17	2.214939E-18
6.310000E+03	5.764683E-17	2.222658E-18
6.320000E+03	5.795490E-17	2.231532E-18
6.330000E+03	5.827053E-17	2.241545E-18
6.340000E+03	5.859331E-17	2.252683E-18
6.350000E+03	5.892280E-17	2.264927E-18
6.360000E+03	5.925852E-17	2.278258E-18
6.370000E+03	5.960003E-17	2.292658E-18
6.380000E+03	5.994681E-17	2.308106E-18
6.390000E+03	6.029838E-17	2.324580E-18
6.400000E+03	6.065419E-17	2.342057E-18
6.410000E+03	6.101371E-17	2.360515E-18
6.420000E+03	6.137640E-17	2.379929E-18
6.430000E+03	6.174167E-17	2.400272E-18
6.440000E+03	6.209838E-17	2.421106E-18
6.450000E+03	6.246698E-17	2.443225E-18
6.460000E+03	6.283638E-17	2.466191E-18
6.470000E+03	6.320592E-17	2.489975E-18
6.480000E+03	6.357500E-17	2.514547E-18
6.490000E+03	6.394293E-17	2.539874E-18
6.500000E+03	6.430909E-17	2.565928E-18
6.510000E+03	6.467283E-17	2.592674E-18
6.520000E+03	6.503351E-17	2.620081E-18
6.530000E+03	6.537942E-17	2.647667E-18
6.540000E+03	6.573223E-17	2.676301E-18
6.550000E+03	6.608037E-17	2.705508E-18
6.560000E+03	6.642339E-17	2.735261E-18
6.570000E+03	6.676095E-17	2.765537E-18
6.580000E+03	6.709277E-17	2.796316E-18
6.590000E+03	6.741874E-17	2.827570E-18
6.600000E+03	6.772718E-17	2.858765E-18
6.610000E+03	6.804103E-17	2.890825E-18
6.620000E+03	6.834874E-17	2.923222E-18
6.630000E+03	6.865020E-17	2.955908E-18
6.640000E+03	6.894536E-17	2.988839E-18
6.650000E+03	6.923413E-17	3.021966E-18
6.660000E+03	6.950459E-17	3.054723E-18
6.670000E+03	6.978035E-17	3.088101E-18
6.680000E+03	7.004951E-17	3.121537E-18
6.690000E+03	7.031204E-17	3.154987E-18
6.700000E+03	7.056788E-17	3.188408E-18
6.710000E+03	7.080489E-17	3.221203E-18
6.720000E+03	7.104715E-17	3.254425E-18
6.730000E+03	7.128256E-17	3.287486E-18
6.740000E+03	7.151109E-17	3.320343E-18
6.750000E+03	7.173270E-17	3.352958E-18
6.760000E+03	7.193508E-17	3.384710E-18
6.770000E+03	7.214269E-17	3.416711E-18
6.780000E+03	7.234327E-17	3.448349E-18
6.790000E+03	7.253680E-17	3.479587E-18
6.800000E+03	7.272324E-17	3.510389E-18
6.810000E+03	7.289015E-17	3.540115E-18
6.820000E+03	7.306232E-17	3.569933E-18
6.830000E+03	7.322735E-17	3.599210E-18
6.840000E+03	7.338523E-17	3.627915E-18
6.850000E+03	7.352338E-17	3.655391E-18
6.860000E+03	7.366688E-17	3.682851E-18
6.870000E+03	7.380318E-17	3.709646E-18
6.880000E+03	7.393228E-17	3.735748E-18
6.890000E+03	7.404158E-17	3.760489E-18
6.900000E+03	7.415628E-17	3.785121E-18
6.910000E+03	7.426379E-17	3.808982E-18
6.920000E+03	7.435146E-17	3.831394E-18
6.930000E+03	7.444461E-17	3.853638E-18
6.940000E+03	7.453061E-17	3.875043E-18
6.950000E+03	7.460945E-17	3.895587E-18
6.960000E+03	7.466845E-17	3.914583E-18
6.970000E+03	7.473307E-17	3.933346E-18
6.980000E+03	7.479061E-17	3.951194E-18
6.990000E+03	7.482831E-17	3.967432E-18
7.000000E+03	7.487176E-17	3.983399E-18
7.010000E+03	7.490821E-17	3.998405E-18
7.020000E+03	7.493769E-17	4.012437E-18
7.030000E+03	7.494746E-17	4.024797E-18
7.040000E+03	7.496312E-17	4.036846E-18
7.050000E+03	7.497192E-17	4.047889E-18
7.060000E+03	7.496112E-17	4.057225E-18
7.070000E+03	7.495634E-17	4.066230E-18
7.080000E+03	7.494484E-17	4.074208E-18
7.090000E+03	7.491387E-17	4.080455E-18
7.100000E+03	7.488907E-17	4.086360E-18
7.110000E+03	7.485769E-17	4.091223E-18
7.120000E+03	7.480702E-17	4.094345E-18
7.130000E+03	7.476266E-17	4.097121E-18
7.140000E+03	7.471188E-17	4.098852E-18
7.150000E+03	7.464199E-17	4.098839E-18
7.160000E+03	7.457858E-17	4.098486E-18
7.170000E+03	7.449620E-17	4.096393E-18
7.180000E+03	7.442039E-17	4.093967E-18
7.190000E+03	7.433846E-17	4.090510E-18
7.200000E+03	7.423782E-17	4.085332E-18
7.210000E+03	7.414389E-17	4.079836E-18
7.220000E+03	7.404404E-17	4.073331E-18
7.230000E+03	7.392573E-17	4.065131E-18
7.240000E+03	7.381429E-17	4.056638E-18
7.250000E+03	7.368456E-17	4.046475E-18
7.260000E+03	7.356180E-17	4.036037E-18
7.270000E+03	7.343348E-17	4.024645E-18
7.280000E+03	7.328717E-17	4.011628E-18
7.290000E+03	7.314798E-17	3.998372E-18
7.300000E+03	7.299097E-17	3.983526E-18
7.310000E+03	7.284120E-17	3.968471E-18
7.320000E+03	7.268624E-17	3.952540E-18
7.330000E+03	7.251378E-17	3.935080E-18
7.340000E+03	7.234871E-17	3.917459E-18
7.350000E+03	7.216634E-17	3.898356E-18
7.360000E+03	7.199146E-17	3.879127E-18
7.370000E+03	7.181178E-17	3.859127E-18
7.380000E+03	7.161513E-17	3.837722E-18
7.390000E+03	7.142611E-17	3.816253E-18
7.400000E+03	7.122035E-17	3.793438E-18
7.410000E+03	7.102231E-17	3.770603E-18
7.420000E+03	7.080776E-17	3.746484E-18
7.430000E+03	7.060103E-17	3.722395E-18
7.440000E+03	7.037801E-17	3.697087E-18
7.450000E+03	7.016289E-17	3.671861E-18
7.460000E+03	6.994369E-17	3.646113E-18
7.470000E+03	6.970853E-17	3.619254E-18
7.480000E+03	6.948142E-17	3.592563E-18
7.490000E+03	6.923861E-17	3.564840E-18
7.500000E+03	6.900391E-17	3.537346E-18
7.510000E+03	6.875375E-17	3.508903E-18
7.520000E+03	6.851178E-17	3.480756E-18
7.530000E+03	6.825457E-17	3.451746E-18
7.540000E+03	6.800564E-17	3.423101E-18
7.550000E+03	6.774172E-17	3.393686E-18
7.560000E+03	6.748613E-17	3.364711E-18
7.570000E+03	6.721580E-17	3.335061E-18
7.580000E+03	6.695386E-17	3.305930E-18
7.590000E+03	6.667741E-17	3.276225E-18
7.600000E+03	6.640942E-17	3.247121E-18
7.610000E+03	6.612716E-17	3.217549E-18
7.620000E+03	6.585342E-17	3.188665E-18
7.630000E+03	6.556563E-17	3.159421E-18
7.640000E+03	6.528642E-17	3.130957E-18
7.650000E+03	6.499341E-17	3.102246E-18
7.660000E+03	6.470899E-17	3.074408E-18
7.670000E+03	6.441101E-17	3.046439E-18
7.680000E+03	6.412167E-17	3.019442E-18
7.690000E+03	6.381901E-17	2.992432E-18
7.700000E+03	6.352501E-17	2.966494E-18
7.710000E+03	6.321791E-17	2.940662E-18
7.720000E+03	6.290871E-17	2.915505E-18
7.730000E+03	6.260820E-17	2.891574E-18
7.740000E+03	6.229493E-17	2.867928E-18
7.750000E+03	6.199037E-17	2.845609E-18
7.760000E+03	6.167325E-17	2.823693E-18
