#wls	flux	flux_err
2996.5997	1.4335e-16	4.1830e-16
2998.1995	1.4297e-16	4.1830e-16
3024.6023	1.4259e-16	4.1830e-16
3040.8040	1.4220e-16	4.1830e-16
3041.4040	1.4184e-16	4.1830e-16
3042.0039	1.4146e-16	4.1830e-16
3042.2039	1.4110e-16	4.1830e-16
3043.8038	1.4069e-16	4.1830e-16
3044.2037	1.4029e-16	4.1830e-16
3044.4037	1.3989e-16	4.1830e-16
3045.0037	1.3948e-16	4.1830e-16
3046.0036	1.3907e-16	4.1830e-16
3047.2045	1.3871e-16	4.1830e-16
3051.6041	1.3832e-16	4.1830e-16
3052.2051	1.3791e-16	4.1830e-16
3053.2050	1.3751e-16	4.1830e-16
3055.0048	1.3708e-16	4.1830e-16
3055.2048	1.3668e-16	4.1830e-16
3055.8048	1.3626e-16	4.1830e-16
3056.0047	1.3583e-16	4.1830e-16
3057.6056	1.3542e-16	4.1830e-16
3057.8056	1.3500e-16	4.1830e-16
3058.8055	1.3459e-16	4.1830e-16
3059.6054	1.3416e-16	4.1830e-16
3061.0053	1.3370e-16	4.1830e-16
3061.4053	1.3328e-16	4.1830e-16
3061.6053	1.3283e-16	4.1830e-16
3061.8053	1.3238e-16	4.1830e-16
3062.0052	1.3192e-16	4.1830e-16
3062.4052	1.3149e-16	4.1830e-16
3063.4061	1.3104e-16	4.1830e-16
3065.0060	1.3059e-16	4.1830e-16
3066.0059	1.3012e-16	4.1830e-16
3066.2059	1.2966e-16	4.1830e-16
3067.4058	1.2919e-16	4.1830e-16
3067.8058	1.2873e-16	4.1830e-16
3068.0058	1.2826e-16	4.1830e-16
3068.2057	1.2779e-16	4.1830e-16
3069.0067	1.2733e-16	4.1830e-16
3069.8066	1.2687e-16	4.1830e-16
3070.2066	1.2640e-16	4.1830e-16
3071.8064	1.2594e-16	4.1830e-16
3072.0064	1.2547e-16	4.1830e-16
3072.6064	1.2501e-16	4.1830e-16
3072.8064	1.2452e-16	4.1830e-16
3073.0063	1.2404e-16	4.1830e-16
3073.2063	1.2355e-16	4.1830e-16
3073.4063	1.2306e-16	4.1830e-16
3074.0063	1.2259e-16	4.1830e-16
3074.2062	1.2209e-16	4.1830e-16
3074.4062	1.2159e-16	4.1830e-16
3074.6062	1.2112e-16	4.1830e-16
3074.8072	1.2064e-16	4.1830e-16
3075.0072	1.2016e-16	4.1830e-16
3075.2072	1.1966e-16	4.1830e-16
3075.4071	1.1916e-16	4.1830e-16
3076.0071	1.1866e-16	4.1830e-16
3076.2071	1.1818e-16	4.1830e-16
3076.6070	1.1770e-16	4.1830e-16
3076.8070	1.1718e-16	4.1830e-16
3077.0070	1.1670e-16	4.1830e-16
3077.4070	1.1618e-16	4.1830e-16
3077.6070	1.1568e-16	4.1830e-16
3078.0069	1.1521e-16	4.1830e-16
3078.8069	1.1472e-16	4.1830e-16
3079.4068	1.1419e-16	4.1830e-16
3080.2067	1.1366e-16	4.1830e-16
3080.4077	1.1314e-16	4.1830e-16
3080.6077	1.1261e-16	4.1830e-16
3080.8077	1.1209e-16	4.1830e-16
3081.0077	1.1156e-16	4.1830e-16
3081.4076	1.1104e-16	4.1830e-16
3081.8076	1.1050e-16	4.1830e-16
3082.4076	1.0996e-16	4.1830e-16
3082.6075	1.0944e-16	4.1830e-16
3083.0075	1.0889e-16	4.1830e-16
3083.4075	1.0835e-16	4.1830e-16
3083.8074	1.0785e-16	4.1830e-16
3084.4074	1.0733e-16	4.1830e-16
3085.4073	1.0683e-16	4.1830e-16
3085.6073	1.0629e-16	4.1830e-16
3085.8073	1.0573e-16	4.1830e-16
3086.0073	1.0520e-16	4.1830e-16
3086.2082	1.0467e-16	4.1830e-16
3087.0082	1.0411e-16	4.1830e-16
3087.2082	1.0357e-16	4.1830e-16
3088.0081	1.0303e-16	4.1830e-16
3088.2081	1.0246e-16	4.1830e-16
3088.6080	1.0194e-16	4.1830e-16
3088.8080	1.0140e-16	4.1830e-16
3089.8079	1.0088e-16	4.1830e-16
3090.4079	1.0030e-16	4.1830e-16
3091.0078	9.9723e-17	4.1830e-16
3091.2078	9.9153e-17	4.1830e-16
3091.4078	9.8593e-17	4.1830e-16
3091.8088	9.8045e-17	4.1830e-16
3092.2087	9.7479e-17	4.1830e-16
3092.4087	9.6905e-17	4.1830e-16
3092.6087	9.6318e-17	4.1830e-16
3093.0087	9.5754e-17	4.1830e-16
3093.2087	9.5166e-17	4.1830e-16
3093.4086	9.4604e-17	4.1830e-16
3093.6086	9.4030e-17	4.1830e-16
3093.8086	9.3455e-17	4.1830e-16
3094.6085	9.2877e-17	4.1830e-16
3095.0085	9.2310e-17	4.1830e-16
3095.2085	9.1723e-17	4.1830e-16
3095.4085	9.1164e-17	4.1830e-16
3095.6085	9.0595e-17	4.1830e-16
3095.8085	9.0040e-17	4.1830e-16
3096.6084	8.9450e-17	4.1830e-16
3096.8084	8.8896e-17	4.1830e-16
3097.4093	8.8318e-17	4.1827e-16
3097.8093	8.7776e-17	8.7260e-17
3098.2093	8.7226e-17	8.5658e-17
3098.4092	8.6652e-17	7.8378e-17
3098.8092	8.6058e-17	7.8222e-17
3099.0092	8.5469e-17	7.5929e-17
3099.4092	8.4885e-17	7.4835e-17
3099.6091	8.4307e-17	7.4824e-17
3100.2091	8.3705e-17	6.3173e-17
3100.8090	8.3102e-17	6.1936e-17
3101.0090	8.2504e-17	4.7759e-17
3101.8090	8.1922e-17	4.5050e-17
3102.4089	8.1326e-17	4.4662e-17
3103.6098	8.0733e-17	4.4285e-17
3103.8098	8.0155e-17	4.1398e-17
3104.0098	7.9568e-17	3.4653e-17
3104.2098	7.8994e-17	3.4312e-17
3104.4097	7.8411e-17	3.4345e-17
3104.6097	7.7825e-17	3.4078e-17
3105.2097	7.7242e-17	3.4053e-17
3105.4097	7.6701e-17	3.4030e-17
3105.8096	7.6130e-17	3.3980e-17
3106.0096	7.5528e-17	3.3912e-17
3106.2096	7.4975e-17	3.3513e-17
3106.8095	7.4407e-17	3.3383e-17
3107.4095	7.3841e-17	3.3563e-17
3107.8095	7.3237e-17	3.3781e-17
3108.0094	7.2636e-17	3.3862e-17
3108.2094	7.2061e-17	3.3614e-17
3108.4094	7.1502e-17	3.3670e-17
3108.6094	7.0963e-17	3.3700e-17
3108.8104	7.0371e-17	3.3709e-17
3109.0104	6.9805e-17	3.3702e-17
3110.2103	6.9225e-17	3.3769e-17
3111.0102	6.8680e-17	3.3793e-17
3111.2102	6.8103e-17	3.3935e-17
3111.6101	6.7523e-17	3.4019e-17
3111.8101	6.6949e-17	3.3999e-17
3113.6100	6.6354e-17	3.4191e-17
3113.8100	6.5759e-17	3.4264e-17
3115.8108	6.5166e-17	3.4286e-17
3116.4107	6.4574e-17	3.4426e-17
3116.6107	6.3983e-17	3.4681e-17
3116.8107	6.3393e-17	3.4921e-17
3117.4107	6.2804e-17	3.4937e-17
3117.6106	6.2217e-17	3.5077e-17
3117.8106	6.1631e-17	3.5103e-17
3118.2106	6.1046e-17	3.5001e-17
3118.4106	6.0462e-17	3.4924e-17
3118.6106	5.9880e-17	3.4871e-17
3119.0105	5.9298e-17	3.4620e-17
3119.2105	5.8718e-17	3.4945e-17
3120.0104	5.8139e-17	3.4644e-17
3120.6114	5.7561e-17	3.4647e-17
3120.8114	5.6985e-17	3.4480e-17
3121.2113	5.6410e-17	3.4585e-17
3121.4113	5.5835e-17	3.4628e-17
3122.4112	5.5262e-17	3.4446e-17
3122.6112	5.4690e-17	3.4546e-17
3122.8112	5.4120e-17	3.4512e-17
3123.0112	5.3555e-17	3.3924e-17
3123.2112	5.3023e-17	3.3794e-17
3123.4112	5.2463e-17	3.3968e-17
3123.6112	5.1898e-17	3.3953e-17
3125.0110	5.1335e-17	3.3973e-17
3125.2110	5.0787e-17	3.3552e-17
3125.4110	5.0247e-17	3.3301e-17
3125.6110	4.9687e-17	3.3255e-17
3127.0119	4.9153e-17	3.3298e-17
3127.6118	4.8606e-17	3.3017e-17
3127.8118	4.8054e-17	3.2573e-17
3128.4118	4.7508e-17	3.2814e-17
3129.0117	4.6963e-17	3.2846e-17
3130.2116	4.6474e-17	3.2774e-17
3130.8116	4.5983e-17	3.2774e-17
3131.2115	4.5489e-17	3.2804e-17
3131.8125	4.4992e-17	3.2880e-17
3133.2124	4.4492e-17	3.2501e-17
3133.4123	4.3989e-17	3.2484e-17
3133.8123	4.3486e-17	3.2417e-17
3134.0123	4.2981e-17	3.2458e-17
3134.4123	4.2476e-17	3.2495e-17
3134.6122	4.1970e-17	3.2248e-17
3135.0122	4.1464e-17	3.2300e-17
3135.2122	4.0956e-17	3.2293e-17
3135.8121	4.0449e-17	3.2191e-17
3137.4130	3.9942e-17	3.2216e-17
3137.6130	3.9436e-17	3.2225e-17
3138.0130	3.8931e-17	3.2042e-17
3138.4129	3.8426e-17	3.2124e-17
3138.6129	3.7920e-17	3.2265e-17
3138.8129	3.7414e-17	3.2129e-17
3139.4128	3.6909e-17	3.2166e-17
3139.6128	3.6406e-17	3.2180e-17
3139.8128	3.5899e-17	3.2046e-17
3140.6127	3.5393e-17	3.1910e-17
3140.8127	3.4888e-17	3.1940e-17
3141.0127	3.4382e-17	3.1633e-17
3141.4127	3.3877e-17	3.1551e-17
3142.0126	3.3373e-17	3.1353e-17
3142.2126	3.2871e-17	3.1414e-17
3142.8136	3.2369e-17	3.1283e-17
3143.4135	3.1869e-17	3.1213e-17
3143.6135	3.1394e-17	3.1173e-17
3144.0135	3.0963e-17	3.0747e-17
3144.2134	3.0498e-17	3.0431e-17
3145.4133	3.0018e-17	3.0241e-17
3145.6133	2.9532e-17	3.0259e-17
3146.4133	2.9075e-17	3.0235e-17
3147.0132	2.8617e-17	3.0234e-17
3147.6132	2.8180e-17	3.0243e-17
3148.2131	2.7748e-17	3.0052e-17
3148.4131	2.7305e-17	3.0037e-17
3149.6140	2.6836e-17	2.9856e-17
3149.8140	2.6369e-17	2.9407e-17
3151.0139	2.5936e-17	2.9251e-17
3152.8137	2.5483e-17	2.9330e-17
3154.0136	2.5061e-17	2.9344e-17
3154.2146	2.4635e-17	2.9347e-17
3154.4146	2.4202e-17	2.8970e-17
3155.2145	2.3765e-17	2.9036e-17
3156.0145	2.3331e-17	2.8818e-17
3156.2145	2.2936e-17	2.8641e-17
3157.0144	2.2559e-17	2.8779e-17
3157.2144	2.2119e-17	2.8370e-17
3157.4144	2.1696e-17	2.8183e-17
3158.2143	2.1267e-17	2.8134e-17
3158.4143	2.0845e-17	2.7943e-17
3158.6143	2.0415e-17	2.8101e-17
3158.8142	2.0027e-17	2.8055e-17
3160.2151	1.9633e-17	2.8038e-17
3161.8150	1.9223e-17	2.7995e-17
3162.0150	1.8854e-17	2.7959e-17
3162.6149	1.8483e-17	2.7909e-17
3163.6148	1.8112e-17	2.7560e-17
3164.0148	1.7707e-17	2.7195e-17
3164.2148	1.7325e-17	2.6849e-17
3164.8147	1.6937e-17	2.6512e-17
3165.2147	1.6550e-17	2.6175e-17
3165.4157	1.6216e-17	2.6185e-17
3165.8157	1.5887e-17	2.6030e-17
3166.0156	1.5515e-17	2.5617e-17
3166.2156	1.5146e-17	2.5573e-17
3166.4156	1.4793e-17	2.5446e-17
3166.8156	1.4420e-17	2.5080e-17
3167.4155	1.4066e-17	2.5077e-17
3167.6155	1.3709e-17	2.4732e-17
3168.0155	1.3348e-17	2.4626e-17
3168.2155	1.3000e-17	2.4607e-17
3168.4154	1.2704e-17	2.4317e-17
3168.6154	1.2372e-17	2.3917e-17
3168.8154	1.2038e-17	2.3651e-17
3169.4154	1.1723e-17	2.3644e-17
3170.0153	1.1397e-17	2.3468e-17
3170.2153	1.1060e-17	2.3153e-17
3170.4153	1.0751e-17	2.3154e-17
3170.8152	1.0431e-17	2.2868e-17
3171.6162	1.0123e-17	2.2760e-17
3171.8162	9.8221e-18	2.2656e-17
3172.0161	9.5192e-18	2.2662e-17
3172.6161	9.2268e-18	2.2602e-17
3172.8161	8.9606e-18	2.2455e-17
3173.2160	8.6671e-18	2.2165e-17
3173.8160	8.3807e-18	2.1968e-17
3174.2160	8.0886e-18	2.1673e-17
3175.6158	7.8095e-18	2.1678e-17
3175.8158	7.5606e-18	2.1607e-17
3176.2158	7.3239e-18	2.1328e-17
3176.4158	7.0580e-18	2.1026e-17
3176.6158	6.8056e-18	2.1022e-17
3177.0167	6.5540e-18	2.0815e-17
3177.4167	6.2906e-18	2.0430e-17
3177.8167	6.0387e-18	2.0111e-17
3178.0167	5.7973e-18	2.0041e-17
3178.2166	5.5490e-18	1.9931e-17
3179.0166	5.3321e-18	1.9664e-17
3179.4165	5.0881e-18	1.9535e-17
3179.6165	4.8721e-18	1.9394e-17
3179.8165	4.6831e-18	1.9393e-17
3180.0165	4.4802e-18	1.9401e-17
3180.2165	4.2556e-18	1.9404e-17
3180.4165	4.0347e-18	1.9425e-17
3180.8164	3.8232e-18	1.9227e-17
3181.0164	3.6259e-18	1.9004e-17
3181.2164	3.4317e-18	1.8981e-17
3182.0163	3.2394e-18	1.8744e-17
3182.2163	3.0421e-18	1.8686e-17
3182.4173	2.8901e-18	1.8471e-17
3182.6173	2.7227e-18	1.8475e-17
3182.8173	2.5760e-18	1.8208e-17
3183.0172	2.3969e-18	1.8212e-17
3183.2172	2.2470e-18	1.7993e-17
3183.4172	2.1000e-18	1.7766e-17
3183.6172	1.9572e-18	1.7727e-17
3183.8172	1.7961e-18	1.7769e-17
3184.2171	1.6484e-18	1.7653e-17
3184.4171	1.5101e-18	1.7443e-17
3184.6171	1.4084e-18	1.7394e-17
3184.8171	1.3270e-18	1.7414e-17
3185.2171	1.1902e-18	1.7192e-17
3185.4170	1.0810e-18	1.7172e-17
3186.2170	9.5945e-19	1.7163e-17
3186.4170	8.6108e-19	1.7125e-17
3187.0169	7.5176e-19	1.7162e-17
3187.2169	6.4090e-19	1.7167e-17
3187.4169	5.6981e-19	1.7007e-17
3187.6169	5.1731e-19	1.6862e-17
3187.8168	4.4858e-19	1.6885e-17
3188.2178	3.6242e-19	1.6699e-17
3188.4178	2.7655e-19	1.6567e-17
3188.6178	2.1619e-19	1.6600e-17
3189.4177	1.6655e-19	1.6425e-17
3190.0177	1.2050e-19	1.6477e-17
3190.2176	7.2433e-20	1.6493e-17
3190.6176	5.5705e-20	1.6513e-17
3190.8176	4.8173e-20	1.6538e-17
3191.4175	1.2696e-20	1.6569e-17
3191.6175	2.0982e-20	1.6608e-17
3192.4175	3.0907e-20	1.6653e-17
3192.6174	-2.4146e-21	1.6665e-17
3192.8174	-1.1826e-20	1.6791e-17
3193.0174	-3.0008e-20	1.6940e-17
3193.2174	-5.0769e-20	1.7003e-17
3193.4174	-6.2233e-20	1.7004e-17
3194.4183	-7.0836e-20	1.7031e-17
3194.6183	-7.6500e-20	1.7020e-17
3195.4182	-6.1145e-20	1.6965e-17
3195.6182	-3.3362e-20	1.6919e-17
3196.0182	-8.1655e-21	1.6882e-17
3196.2181	3.1326e-20	1.6944e-17
3196.8181	7.7762e-20	1.6871e-17
3197.2181	1.1206e-19	1.6805e-17
3197.6180	1.5658e-19	1.6806e-17
3197.8180	2.3249e-19	1.6832e-17
3198.4180	2.8242e-19	1.6836e-17
3198.8179	3.3586e-19	1.6891e-17
3199.0179	3.9686e-19	1.6800e-17
3199.8188	4.6098e-19	1.6787e-17
3200.0188	5.3683e-19	1.6824e-17
3200.2188	6.3096e-19	1.6810e-17
3200.6188	7.1721e-19	1.6821e-17
3201.8187	8.0187e-19	1.6818e-17
3202.0187	9.1492e-19	1.6827e-17
3202.2187	1.0092e-18	1.6883e-17
3202.4186	1.1145e-18	1.6821e-17
3202.6186	1.2296e-18	1.6674e-17
3202.8186	1.3506e-18	1.6635e-17
3203.4186	1.4737e-18	1.6692e-17
3203.6185	1.6305e-18	1.6664e-17
3203.8185	1.7935e-18	1.6679e-17
3204.0185	1.9505e-18	1.6704e-17
3204.2185	2.1213e-18	1.6731e-17
3205.0194	2.2648e-18	1.6728e-17
3205.2194	2.4395e-18	1.6768e-17
3205.6194	2.6045e-18	1.6804e-17
3206.2193	2.7638e-18	1.6796e-17
3206.4193	2.9396e-18	1.6812e-17
3207.2192	3.1293e-18	1.6809e-17
3207.4192	3.3076e-18	1.6722e-17
3207.8192	3.5012e-18	1.6720e-17
3208.0192	3.6935e-18	1.6708e-17
3208.6191	3.8965e-18	1.6685e-17
3208.8191	4.1113e-18	1.6524e-17
3209.2191	4.3299e-18	1.6401e-17
3209.6190	4.5550e-18	1.6428e-17
3209.8190	4.7855e-18	1.6358e-17
3210.2190	5.0293e-18	1.6351e-17
3211.0199	5.2747e-18	1.6352e-17
3211.2199	5.5082e-18	1.6355e-17
3211.6199	5.7702e-18	1.6299e-17
3211.8199	6.0269e-18	1.6295e-17
3212.4198	6.2897e-18	1.6063e-17
3212.6198	6.5599e-18	1.6039e-17
3213.0198	6.8252e-18	1.6042e-17
3213.2197	7.0912e-18	1.5921e-17
3213.6197	7.3835e-18	1.5908e-17
3213.8197	7.6898e-18	1.5868e-17
3214.8196	7.9725e-18	1.5860e-17
3215.2196	8.2682e-18	1.5732e-17
3215.4196	8.5947e-18	1.5405e-17
3216.0195	8.8955e-18	1.5410e-17
3216.2205	9.2348e-18	1.5403e-17
3216.8204	9.5555e-18	1.5332e-17
3217.0204	9.8756e-18	1.5321e-17
3217.2204	1.0211e-17	1.5325e-17
3217.4204	1.0579e-17	1.5322e-17
3217.8204	1.0934e-17	1.5325e-17
3218.0203	1.1281e-17	1.5352e-17
3218.4203	1.1653e-17	1.5340e-17
3218.6203	1.2009e-17	1.5344e-17
3219.0203	1.2367e-17	1.5340e-17
3219.2202	1.2764e-17	1.5092e-17
3219.6202	1.3160e-17	1.5105e-17
3219.8202	1.3540e-17	1.5097e-17
3220.0202	1.3922e-17	1.5109e-17
3220.2202	1.4318e-17	1.5107e-17
3220.6201	1.4718e-17	1.5109e-17
3221.0201	1.5114e-17	1.5098e-17
3221.4201	1.5522e-17	1.5101e-17
3221.8210	1.5941e-17	1.5077e-17
3222.0210	1.6355e-17	1.5074e-17
3222.6210	1.6797e-17	1.5045e-17
3222.8209	1.7231e-17	1.5016e-17
3223.6209	1.7665e-17	1.4986e-17
3223.8209	1.8109e-17	1.4891e-17
3224.2208	1.8561e-17	1.4579e-17
3225.2207	1.9044e-17	1.4600e-17
3225.4207	1.9527e-17	1.4570e-17
3225.6207	1.9995e-17	1.4549e-17
3225.8207	2.0472e-17	1.4548e-17
3226.4206	2.0947e-17	1.4460e-17
3226.6206	2.1438e-17	1.4446e-17
3227.6216	2.1938e-17	1.4431e-17
3228.2215	2.2429e-17	1.4431e-17
3228.4215	2.2918e-17	1.4191e-17
3228.8215	2.3426e-17	1.4166e-17
3229.4214	2.3925e-17	1.4169e-17
3229.6214	2.4436e-17	1.4157e-17
3229.8214	2.4963e-17	1.4150e-17
3230.2213	2.5474e-17	1.4171e-17
3231.0213	2.6003e-17	1.3946e-17
3231.2213	2.6538e-17	1.3658e-17
3231.4212	2.7078e-17	1.3338e-17
3232.8211	2.7624e-17	1.2833e-17
3233.0221	2.8175e-17	1.2829e-17
3233.4221	2.8731e-17	1.2820e-17
3233.6221	2.9293e-17	1.2825e-17
3233.8220	2.9860e-17	1.2678e-17
3234.0220	3.0431e-17	1.2299e-17
3234.2220	3.1007e-17	1.2244e-17
3234.4220	3.1696e-17	1.2254e-17
3234.8220	1.9183e-17	1.2124e-17
3236.2218	1.8847e-17	1.1983e-17
3237.0218	1.7927e-17	1.2005e-17
3237.8217	1.7917e-17	1.1983e-17
3238.2217	1.7466e-17	1.1983e-17
3238.4217	1.7192e-17	1.1838e-17
3239.2226	1.7278e-17	1.1829e-17
3239.4226	1.6125e-17	1.1829e-17
3240.8225	1.5818e-17	1.1798e-17
3241.4224	1.4643e-17	1.1547e-17
3241.6224	1.4187e-17	1.1455e-17
3242.2223	1.4425e-17	1.1410e-17
3242.4223	1.4675e-17	1.1004e-17
3242.8223	1.4220e-17	1.0909e-17
3243.0223	1.3529e-17	1.0896e-17
3243.2223	1.3391e-17	1.0880e-17
3244.8231	1.3396e-17	1.0803e-17
3245.0231	1.3248e-17	1.0384e-17
3245.2231	1.3353e-17	9.8829e-18
3245.8230	1.3263e-17	9.8481e-18
3246.0230	1.3357e-17	9.9107e-18
3246.2230	1.3268e-17	9.9205e-18
3246.4230	1.3442e-17	9.8438e-18
3246.6230	1.3533e-17	9.8699e-18
3247.0229	1.3427e-17	9.8416e-18
3247.2229	1.3373e-17	9.7361e-18
3247.4229	1.3369e-17	9.7517e-18
3247.6229	1.3495e-17	9.7563e-18
3247.8229	1.3517e-17	9.7148e-18
3248.4228	1.3528e-17	9.7033e-18
3248.8228	1.3569e-17	9.7954e-18
3249.0228	1.3588e-17	9.7966e-18
3249.2228	1.3624e-17	9.7975e-18
3249.4227	1.3659e-17	9.7990e-18
3250.0237	1.3701e-17	9.8823e-18
3250.6236	1.3743e-17	9.8864e-18
3250.8236	1.3811e-17	9.8841e-18
3251.0236	1.3881e-17	9.8732e-18
3252.0235	1.3933e-17	9.8603e-18
3252.2235	1.3902e-17	9.8424e-18
3253.2234	1.3868e-17	9.7214e-18
3253.4234	1.3814e-17	9.7225e-18
3253.6234	1.3731e-17	9.6001e-18
3253.8234	1.3643e-17	9.5337e-18
3254.0234	1.3543e-17	9.5384e-18
3254.2234	1.3431e-17	9.5331e-18
3255.2233	1.3282e-17	9.4498e-18
3256.0242	1.3141e-17	9.4118e-18
3256.2242	1.2955e-17	9.4143e-18
3256.4242	1.2760e-17	9.1288e-18
3256.6242	1.2712e-17	8.9626e-18
3257.0241	1.2494e-17	8.6376e-18
3257.4241	1.2391e-17	8.6418e-18
3257.6241	1.2491e-17	8.6336e-18
3257.8241	1.2401e-17	8.6381e-18
3258.0240	1.2255e-17	8.5096e-18
3258.2240	1.2296e-17	8.1950e-18
3258.6240	1.2320e-17	8.2006e-18
3259.0240	1.2410e-17	8.1913e-18
3259.6239	1.2136e-17	8.1841e-18
3259.8239	1.2181e-17	8.1744e-18
3260.2239	1.2095e-17	8.2169e-18
3260.4238	1.2109e-17	8.2157e-18
3261.0248	1.2014e-17	8.2211e-18
3261.2248	1.2123e-17	8.2075e-18
3261.4248	1.1895e-17	8.0788e-18
3261.6247	1.1730e-17	8.0796e-18
3261.8247	1.1690e-17	7.9746e-18
3262.0247	1.1746e-17	7.9857e-18
3262.2247	1.1839e-17	7.9830e-18
3262.4247	1.1682e-17	7.9846e-18
3262.6247	1.1548e-17	7.9850e-18
3262.8246	1.1555e-17	7.9859e-18
3263.4246	1.1534e-17	8.1442e-18
3263.6246	1.1498e-17	8.2848e-18
3263.8246	1.1402e-17	8.3807e-18
3264.0245	1.1486e-17	8.4759e-18
3264.2245	1.1480e-17	8.5510e-18
3264.6245	1.1494e-17	8.6085e-18
3264.8245	1.1461e-17	8.6587e-18
3265.0245	1.1432e-17	8.6944e-18
3265.2244	1.1496e-17	8.7239e-18
3265.8244	1.1461e-17	8.7471e-18
3266.0244	1.1485e-17	8.7622e-18
3266.8253	1.1570e-17	8.7692e-18
3267.0253	1.1485e-17	8.7725e-18
3267.2253	1.1328e-17	8.7741e-18
3267.4253	1.1113e-17	8.7715e-18
3267.6252	1.1010e-17	8.7652e-18
3268.0252	1.0913e-17	8.7550e-18
3268.2252	1.0923e-17	8.7412e-18
3268.4252	1.0856e-17	8.7229e-18
3268.6252	1.0742e-17	8.7051e-18
3269.0251	1.0782e-17	8.6865e-18
3269.2251	1.0783e-17	8.6643e-18
3269.4251	1.0669e-17	8.6414e-18
3269.6251	1.0708e-17	8.6270e-18
3270.0250	1.0680e-17	8.6128e-18
3270.4250	1.0457e-17	8.5977e-18
3270.6250	1.0436e-17	8.5835e-18
3271.0250	1.0488e-17	8.5693e-18
3271.2249	1.0514e-17	8.5567e-18
3272.2259	1.0550e-17	8.5436e-18
3272.4258	1.0603e-17	8.5165e-18
3272.6258	1.0651e-17	8.6230e-18
3272.8258	1.0653e-17	8.5956e-18
3273.4258	1.0622e-17	8.5580e-18
3273.6257	1.0652e-17	8.5285e-18
3274.8256	1.0613e-17	8.5278e-18
3275.0256	1.0537e-17	8.3884e-18
3275.4256	1.0554e-17	8.2509e-18
3275.6256	1.0525e-17	8.2434e-18
3276.0255	1.0537e-17	8.2581e-18
3276.4255	1.0597e-17	8.2550e-18
3276.8255	1.0589e-17	8.2685e-18
3277.0255	1.0506e-17	8.2134e-18
3277.2255	1.0402e-17	8.1557e-18
3277.6254	1.0281e-17	8.1597e-18
3277.8264	1.0323e-17	8.1198e-18
3278.0264	1.0283e-17	8.0808e-18
3278.2264	1.0306e-17	8.0432e-18
3278.4264	1.0299e-17	8.0403e-18
3278.6263	1.0256e-17	8.0959e-18
3279.0263	1.0304e-17	8.2476e-18
3279.2263	1.0333e-17	8.2211e-18
3279.8262	1.0298e-17	8.2208e-18
3280.0262	1.0328e-17	8.2251e-18
3281.2261	1.0262e-17	8.1935e-18
3281.4261	1.0280e-17	8.2172e-18
3281.6261	1.0123e-17	8.2345e-18
3281.8261	1.0070e-17	8.2232e-18
3282.0261	1.0009e-17	8.2107e-18
3282.2260	9.9717e-18	8.2105e-18
3282.4260	1.0008e-17	8.2425e-18
3282.8260	1.0039e-17	8.2283e-18
3283.0260	1.0093e-17	8.2146e-18
3283.6269	1.0132e-17	8.1671e-18
3283.8269	1.0168e-17	8.1703e-18
3284.0269	1.0101e-17	8.1719e-18
3284.2269	1.0087e-17	8.2423e-18
3284.8268	1.0126e-17	8.3078e-18
3285.8267	1.0083e-17	8.2749e-18
3286.0267	1.0062e-17	8.2450e-18
3286.2267	1.0102e-17	8.2186e-18
3286.4267	1.0010e-17	8.2114e-18
3286.6267	1.0036e-17	8.1936e-18
3286.8267	1.0013e-17	8.1879e-18
3287.2266	9.9498e-18	8.1966e-18
3287.4266	9.9991e-18	8.1936e-18
3287.8266	1.0059e-17	8.2892e-18
3288.0266	1.0076e-17	8.2880e-18
3288.6265	1.0018e-17	8.2894e-18
3288.8265	1.0046e-17	8.2492e-18
3289.4274	1.0074e-17	8.2266e-18
3289.6274	9.9867e-18	8.2194e-18
3289.8274	1.0014e-17	8.2054e-18
3290.6273	1.0006e-17	8.2131e-18
3291.0273	9.9838e-18	8.1791e-18
3291.2273	9.8965e-18	8.1529e-18
3291.4273	9.8783e-18	8.1546e-18
3291.6273	9.8770e-18	8.1528e-18
3292.2272	9.9272e-18	8.1815e-18
3292.4272	9.9453e-18	8.1768e-18
3292.6272	9.9915e-18	8.1690e-18
3292.8272	9.9221e-18	8.1723e-18
3293.4271	9.9013e-18	8.1601e-18
3294.2270	9.9445e-18	8.1696e-18
3294.4280	9.9804e-18	8.1934e-18
3294.6280	9.9156e-18	8.1761e-18
3294.8280	9.9304e-18	8.1616e-18
3295.0280	9.9796e-18	8.1614e-18
3295.2280	1.0020e-17	8.1065e-18
3295.8279	9.9995e-18	8.0840e-18
3296.2279	9.9948e-18	8.0739e-18
3296.6278	1.0023e-17	8.0784e-18
3296.8278	1.0025e-17	8.0862e-18
3297.0278	1.0027e-17	8.0824e-18
3297.4278	9.9726e-18	8.0821e-18
3297.6278	9.8817e-18	8.1233e-18
3297.8277	9.8284e-18	8.1268e-18
3298.0277	9.7488e-18	8.1268e-18
