#wls	flux	flux_err
2996.9606	7.1290e-16	1.5124e-15
2997.5606	7.1162e-16	1.5124e-15
2998.3605	7.1024e-16	1.5124e-15
2998.5615	7.0879e-16	1.5124e-15
2998.9615	7.0737e-16	1.5124e-15
3015.9621	7.0602e-16	1.5124e-15
3019.7627	7.0440e-16	1.5124e-15
3019.9627	7.0307e-16	1.5124e-15
3020.3627	7.0164e-16	1.5124e-15
3021.1626	7.0025e-16	1.5124e-15
3021.7626	6.9881e-16	1.5124e-15
3022.7625	6.9725e-16	1.5124e-15
3023.3634	6.9582e-16	1.5124e-15
3023.9634	6.9446e-16	1.5124e-15
3024.5633	6.9293e-16	1.5124e-15
3024.7633	6.9138e-16	1.5124e-15
3024.9633	6.8980e-16	1.5124e-15
3026.7632	6.8826e-16	1.5124e-15
3026.9631	6.8679e-16	1.5124e-15
3028.5630	6.8524e-16	1.5124e-15
3029.3629	6.8366e-16	1.5124e-15
3029.7639	6.8201e-16	1.5124e-15
3030.7638	6.8039e-16	1.5124e-15
3032.7637	6.7887e-16	1.5124e-15
3032.9637	6.7732e-16	1.5124e-15
3033.3636	6.7561e-16	1.5124e-15
3034.3635	6.7403e-16	1.5124e-15
3034.9635	6.7250e-16	1.5124e-15
3035.1635	6.7077e-16	1.5124e-15
3035.9644	6.6908e-16	1.5124e-15
3037.3643	6.6720e-16	1.5124e-15
3038.1642	6.6550e-16	1.5124e-15
3039.5641	6.6386e-16	1.5124e-15
3043.7648	6.6222e-16	1.5124e-15
3044.5647	6.6053e-16	1.5124e-15
3050.7652	6.5879e-16	1.5124e-15
3067.5668	6.5689e-16	1.5124e-15
3079.7678	6.5504e-16	1.5124e-15
3089.1680	6.5312e-16	1.5124e-15
3092.1688	6.5125e-16	1.5124e-15
3095.5685	6.4921e-16	1.5124e-15
3095.7685	6.4714e-16	1.5124e-15
3095.9684	6.4520e-16	1.5124e-15
3096.1684	6.4316e-16	1.5124e-15
3097.5693	6.4127e-16	1.5124e-15
3097.7693	6.3917e-16	1.5124e-15
3098.1693	6.3703e-16	1.5124e-15
3098.3692	6.3494e-16	1.5124e-15
3100.3691	6.3284e-16	1.5124e-15
3100.5691	6.3073e-16	1.5124e-15
3101.5690	6.2873e-16	1.5124e-15
3101.9689	6.2680e-16	1.5124e-15
3102.3689	6.2469e-16	1.5124e-15
3102.7689	6.2270e-16	1.5124e-15
3103.9698	6.2083e-16	1.5124e-15
3104.7697	6.1867e-16	1.5124e-15
3106.1696	6.1653e-16	1.5124e-15
3106.3696	6.1448e-16	1.5124e-15
3106.9695	6.1240e-16	1.5124e-15
3107.1695	6.1023e-16	1.5124e-15
3107.3695	6.0810e-16	1.5124e-15
3107.5695	6.0602e-16	1.5124e-15
3108.1694	6.0393e-16	1.5124e-15
3108.7694	6.0180e-16	1.5124e-15
3108.9694	5.9965e-16	1.5124e-15
3110.1703	5.9757e-16	1.5124e-15
3110.3702	5.9541e-16	1.5124e-15
3110.5702	5.9327e-16	1.5124e-15
3110.9702	5.9116e-16	1.5124e-15
3111.1702	5.8902e-16	1.5124e-15
3111.3702	5.8682e-16	1.5124e-15
3111.5701	5.8461e-16	1.5124e-15
3112.5701	5.8243e-16	1.5124e-15
3112.9700	5.8029e-16	1.5124e-15
3113.3700	5.7807e-16	1.5124e-15
3113.9699	5.7586e-16	1.5124e-15
3114.1699	5.7366e-16	1.5124e-15
3114.5699	5.7147e-16	1.5124e-15
3114.7699	5.6943e-16	1.5124e-15
3114.9699	5.6734e-16	1.5124e-15
3115.1698	5.6513e-16	1.5124e-15
3115.5708	5.6301e-16	1.5124e-15
3115.9708	5.6081e-16	1.5124e-15
3116.3707	5.5857e-16	1.5124e-15
3116.5707	5.5652e-16	1.5124e-15
3116.7707	5.5435e-16	1.5124e-15
3116.9707	5.5212e-16	1.5124e-15
3117.1707	5.4989e-16	1.5124e-15
3117.3707	5.4770e-16	1.5124e-15
3117.9706	5.4558e-16	1.5124e-15
3118.1706	5.4337e-16	1.5124e-15
3118.7706	5.4116e-16	1.5124e-15
3118.9705	5.3898e-16	1.5124e-15
3119.1705	5.3682e-16	1.5124e-15
3119.3705	5.3457e-16	1.5124e-15
3119.5705	5.3247e-16	1.5124e-15
3120.1704	5.3035e-16	1.5124e-15
3120.3704	5.2810e-16	1.5124e-15
3120.5704	5.2585e-16	1.5124e-15
3120.7704	5.2369e-16	1.5124e-15
3120.9704	5.2142e-16	1.5124e-15
3121.1704	5.1920e-16	1.5124e-15
3121.3703	5.1693e-16	1.5124e-15
3121.5703	5.1473e-16	1.5124e-15
3121.7713	5.1248e-16	1.5124e-15
3122.3713	5.1022e-16	1.5124e-15
3122.5712	5.0796e-16	1.5124e-15
3122.9712	5.0573e-16	1.5124e-15
3123.1712	5.0346e-16	1.5124e-15
3123.3712	5.0120e-16	1.5124e-15
3123.5712	4.9904e-16	1.5124e-15
3123.7711	4.9678e-16	1.5124e-15
3123.9711	4.9457e-16	1.5124e-15
3124.3711	4.9237e-16	1.5124e-15
3124.5711	4.9015e-16	1.5124e-15
3124.7711	4.8799e-16	1.5123e-15
3124.9710	4.8573e-16	1.5123e-15
3125.1710	4.8354e-16	1.5123e-15
3125.3710	4.8131e-16	1.5117e-15
3125.5710	4.7906e-16	1.4324e-15
3125.7710	4.7678e-16	1.3431e-15
3126.1709	4.7452e-16	1.3334e-15
3126.3709	4.7226e-16	1.3329e-15
3126.5709	4.6999e-16	1.3267e-15
3126.7709	4.6773e-16	1.3266e-15
3126.9709	4.6546e-16	1.3264e-15
3127.1709	4.6319e-16	1.1547e-15
3127.3708	4.6092e-16	1.1522e-15
3127.5708	4.5864e-16	9.6879e-16
3127.7718	4.5636e-16	9.5427e-16
3127.9718	4.5409e-16	9.5307e-16
3128.1718	4.5181e-16	8.0449e-16
3128.3718	4.4953e-16	7.0835e-16
3128.5717	4.4725e-16	7.0827e-16
3128.7717	4.4496e-16	7.0787e-16
3128.9717	4.4274e-16	7.0797e-16
3129.1717	4.4049e-16	6.8837e-16
3129.3717	4.3826e-16	6.3687e-16
3129.5717	4.3602e-16	6.3341e-16
3129.7716	4.3379e-16	6.3364e-16
3129.9716	4.3161e-16	5.8231e-16
3130.1716	4.2933e-16	2.6210e-16
3130.3716	4.2705e-16	2.6281e-16
3130.5716	4.2479e-16	2.3835e-16
3130.7716	4.2257e-16	2.3868e-16
3130.9715	4.2031e-16	1.9726e-16
3131.1715	4.1805e-16	1.9679e-16
3131.3715	4.1577e-16	1.9754e-16
3131.5715	4.1351e-16	1.9800e-16
3131.7715	4.1131e-16	1.9837e-16
3131.9715	4.0912e-16	1.9855e-16
3132.1714	4.0687e-16	1.9813e-16
3132.3714	4.0459e-16	1.9798e-16
3132.5714	4.0236e-16	1.9788e-16
3132.7714	4.0008e-16	1.9867e-16
3132.9714	3.9787e-16	1.9869e-16
3133.1714	3.9560e-16	1.9908e-16
3133.3713	3.9347e-16	1.9799e-16
3133.5713	3.9125e-16	1.9787e-16
3133.7713	3.8902e-16	1.9744e-16
3133.9723	3.8681e-16	1.9690e-16
3134.1723	3.8462e-16	1.9743e-16
3134.3723	3.8234e-16	1.9786e-16
3134.5722	3.8011e-16	1.9851e-16
3134.7722	3.7786e-16	1.9830e-16
3134.9722	3.7566e-16	1.9971e-16
3135.1722	3.7341e-16	1.9900e-16
3135.3722	3.7116e-16	1.9828e-16
3135.5722	3.6901e-16	1.9870e-16
3135.7721	3.6682e-16	1.9927e-16
3135.9721	3.6461e-16	1.9905e-16
3136.1721	3.6238e-16	1.9881e-16
3136.3721	3.6016e-16	1.9929e-16
3136.5721	3.5791e-16	1.9871e-16
3136.7721	3.5572e-16	1.9955e-16
3136.9720	3.5354e-16	1.9893e-16
3137.1720	3.5140e-16	1.9777e-16
3137.3720	3.4917e-16	1.9629e-16
3137.5720	3.4695e-16	1.9663e-16
3137.7720	3.4481e-16	1.9677e-16
3137.9720	3.4264e-16	1.9682e-16
3138.1719	3.4044e-16	1.9584e-16
3138.3719	3.3829e-16	1.9485e-16
3138.5719	3.3608e-16	1.9470e-16
3138.7719	3.3395e-16	1.9437e-16
3138.9719	3.3179e-16	1.9406e-16
3139.1719	3.2959e-16	1.9371e-16
3139.3718	3.2747e-16	1.9366e-16
3139.5718	3.2527e-16	1.9317e-16
3139.7718	3.2310e-16	1.9402e-16
3139.9728	3.2095e-16	1.9382e-16
3140.1728	3.1881e-16	1.9398e-16
3140.3728	3.1662e-16	1.9296e-16
3140.5727	3.1446e-16	1.9226e-16
3140.7727	3.1232e-16	1.9059e-16
3140.9727	3.1017e-16	1.8930e-16
3141.1727	3.0804e-16	1.8946e-16
3141.3727	3.0591e-16	1.8857e-16
3141.5727	3.0378e-16	1.8718e-16
3141.7726	3.0166e-16	1.8636e-16
3141.9726	2.9955e-16	1.8500e-16
3142.1726	2.9744e-16	1.8317e-16
3142.3726	2.9534e-16	1.8307e-16
3142.5726	2.9325e-16	1.8209e-16
3142.7726	2.9116e-16	1.8092e-16
3142.9725	2.8913e-16	1.8120e-16
3143.1725	2.8703e-16	1.8084e-16
3143.3725	2.8493e-16	1.8056e-16
3143.5725	2.8290e-16	1.7936e-16
3143.7725	2.8083e-16	1.7910e-16
3143.9725	2.7876e-16	1.7909e-16
3144.1725	2.7670e-16	1.7778e-16
3144.3724	2.7461e-16	1.7663e-16
3144.5724	2.7254e-16	1.7595e-16
3144.7724	2.7053e-16	1.7577e-16
3144.9724	2.6847e-16	1.7496e-16
3145.1724	2.6642e-16	1.7355e-16
3145.3724	2.6439e-16	1.7173e-16
3145.5723	2.6241e-16	1.7131e-16
3145.7723	2.6043e-16	1.7050e-16
3145.9723	2.5848e-16	1.6980e-16
3146.1733	2.5659e-16	1.6803e-16
3146.3733	2.5460e-16	1.6731e-16
3146.5733	2.5258e-16	1.6661e-16
3146.7732	2.5065e-16	1.6637e-16
3147.1732	2.4867e-16	1.6578e-16
3147.3732	2.4673e-16	1.6534e-16
3147.5732	2.4475e-16	1.6525e-16
3147.7732	2.4283e-16	1.6465e-16
3147.9731	2.4092e-16	1.6283e-16
3148.1731	2.3903e-16	1.6322e-16
3148.3731	2.3713e-16	1.6307e-16
3148.5731	2.3524e-16	1.6269e-16
3148.7731	2.3338e-16	1.6313e-16
3148.9731	2.3157e-16	1.6298e-16
3149.1730	2.2975e-16	1.6148e-16
3149.3730	2.2784e-16	1.6088e-16
3149.5730	2.2597e-16	1.6017e-16
3149.7730	2.2411e-16	1.5978e-16
3149.9730	2.2230e-16	1.5968e-16
3150.1730	2.2049e-16	1.5872e-16
3150.3729	2.1864e-16	1.5889e-16
3150.5729	2.1680e-16	1.5843e-16
3150.7729	2.1505e-16	1.5751e-16
3150.9729	2.1323e-16	1.5626e-16
3151.1729	2.1145e-16	1.5475e-16
3151.3729	2.0973e-16	1.5443e-16
3151.5728	2.0798e-16	1.5405e-16
3151.7728	2.0620e-16	1.5354e-16
3151.9728	2.0443e-16	1.5210e-16
3152.1738	2.0270e-16	1.5095e-16
3152.3738	2.0097e-16	1.4938e-16
3152.5738	1.9923e-16	1.4782e-16
3152.7737	1.9760e-16	1.4695e-16
3152.9737	1.9594e-16	1.4646e-16
3153.1737	1.9427e-16	1.4439e-16
3153.3737	1.9263e-16	1.4253e-16
3153.5737	1.9101e-16	1.4152e-16
3153.7737	1.8939e-16	1.4058e-16
3153.9736	1.8781e-16	1.3920e-16
3154.1736	1.8623e-16	1.3845e-16
3154.3736	1.8463e-16	1.3804e-16
3154.5736	1.8304e-16	1.3734e-16
3154.7736	1.8151e-16	1.3628e-16
3154.9736	1.8001e-16	1.3492e-16
3155.1735	1.7841e-16	1.3328e-16
3155.3735	1.7688e-16	1.3135e-16
3155.5735	1.7535e-16	1.3020e-16
3155.7735	1.7380e-16	1.2835e-16
3155.9735	1.7227e-16	1.2778e-16
3156.1735	1.7081e-16	1.2550e-16
3156.3734	1.6935e-16	1.2407e-16
3156.5734	1.6789e-16	1.2371e-16
3156.7734	1.6648e-16	1.2256e-16
3156.9734	1.6505e-16	1.2224e-16
3157.1734	1.6360e-16	1.2175e-16
3157.3734	1.6221e-16	1.2135e-16
3157.5733	1.6084e-16	1.2064e-16
3157.7733	1.5944e-16	1.1985e-16
3157.9733	1.5809e-16	1.1853e-16
3158.1733	1.5678e-16	1.1803e-16
3158.3743	1.5550e-16	1.1579e-16
3158.5743	1.5419e-16	1.1536e-16
3158.7742	1.5295e-16	1.1418e-16
3158.9742	1.5177e-16	1.1310e-16
3159.1742	1.5050e-16	1.1310e-16
3159.3742	1.4923e-16	1.1170e-16
3159.5742	1.4796e-16	1.1091e-16
3159.7742	1.4674e-16	1.1019e-16
3159.9741	1.4558e-16	1.0963e-16
3160.1741	1.4448e-16	1.0760e-16
3160.3741	1.4329e-16	1.0673e-16
3160.5741	1.4219e-16	1.0608e-16
3160.7741	1.4107e-16	1.0614e-16
3160.9741	1.3993e-16	1.0537e-16
3161.1740	1.3884e-16	1.0480e-16
3161.3740	1.3775e-16	1.0363e-16
3161.5740	1.3663e-16	1.0256e-16
3161.7740	1.3554e-16	1.0139e-16
3161.9740	1.3447e-16	1.0113e-16
3162.1740	1.3342e-16	1.0067e-16
3162.3739	1.3240e-16	9.9241e-17
3162.5739	1.3143e-16	9.8004e-17
3162.7739	1.3046e-16	9.7886e-17
3162.9739	1.2952e-16	9.7856e-17
3163.1739	1.2862e-16	9.6932e-17
3163.3739	1.2768e-16	9.6197e-17
3163.5738	1.2675e-16	9.6255e-17
3163.7738	1.2584e-16	9.5069e-17
3163.9738	1.2499e-16	9.3926e-17
3164.1738	1.2419e-16	9.2841e-17
3164.3748	1.2336e-16	9.2282e-17
3164.5748	1.2254e-16	9.1309e-17
3164.7747	1.2185e-16	9.0911e-17
3164.9747	1.2104e-16	8.9970e-17
3165.1747	1.2026e-16	8.9196e-17
3165.3747	1.1949e-16	8.8364e-17
3165.5747	1.1876e-16	8.7576e-17
3165.7747	1.1807e-16	8.8115e-17
3165.9746	1.1740e-16	8.7439e-17
3166.1746	1.1683e-16	8.6947e-17
3166.3746	1.1620e-16	8.6219e-17
3166.5746	1.1554e-16	8.5514e-17
3166.7746	1.1492e-16	8.4706e-17
3166.9746	1.1431e-16	8.3914e-17
3167.1745	1.1378e-16	8.3070e-17
3167.3745	1.1326e-16	8.2367e-17
3167.5745	1.1271e-16	8.1979e-17
3167.7745	1.1224e-16	8.1188e-17
3167.9745	1.1175e-16	8.0350e-17
3168.1745	1.1135e-16	7.9633e-17
3168.3744	1.1100e-16	7.9271e-17
3168.5744	1.1055e-16	7.8934e-17
3168.7744	1.1017e-16	7.9219e-17
3168.9744	1.0979e-16	7.8331e-17
3169.1744	1.0944e-16	7.8976e-17
3169.3744	1.0914e-16	8.0216e-17
3169.5743	1.0882e-16	8.1978e-17
3169.7743	1.0861e-16	8.2152e-17
3169.9743	1.0837e-16	8.1629e-17
3170.1743	1.0812e-16	8.3031e-17
3170.3743	1.0795e-16	8.3751e-17
3170.5753	1.0776e-16	8.2930e-17
3170.7753	1.0761e-16	8.3151e-17
3170.9752	1.0750e-16	8.4241e-17
3171.1752	1.0740e-16	8.4978e-17
3171.3752	1.0730e-16	8.5575e-17
3171.5752	1.0732e-16	8.7265e-17
3171.7752	1.0730e-16	8.6853e-17
3171.9752	1.0726e-16	8.7273e-17
3172.1751	1.0727e-16	8.7496e-17
3172.3751	1.0727e-16	8.7937e-17
3172.5751	1.0733e-16	8.8468e-17
3172.7751	1.0740e-16	8.8783e-17
3172.9751	1.0754e-16	8.8816e-17
3173.1751	1.0766e-16	8.8771e-17
3173.3750	1.0784e-16	8.9167e-17
3173.5750	1.0799e-16	8.9436e-17
3173.7750	1.0819e-16	8.9435e-17
3173.9750	1.0840e-16	8.9439e-17
3174.1750	1.0864e-16	8.9544e-17
3174.3750	1.0892e-16	8.9662e-17
3174.5749	1.0921e-16	8.9936e-17
3174.7749	1.0958e-16	9.0046e-17
3174.9749	1.1003e-16	9.0057e-17
3175.1749	1.1041e-16	9.0063e-17
3175.3749	1.1085e-16	9.0173e-17
3175.5749	1.1128e-16	9.0015e-17
3175.7748	1.1173e-16	9.0022e-17
3175.9748	1.1223e-16	8.9759e-17
3176.1748	1.1274e-16	8.9677e-17
3176.3748	1.1334e-16	8.9536e-17
3176.5758	1.1394e-16	8.9414e-17
3176.7758	1.1455e-16	8.9383e-17
3176.9757	1.1521e-16	8.9383e-17
3177.1757	1.1585e-16	8.9382e-17
3177.3757	1.1653e-16	8.9330e-17
3177.5757	1.1729e-16	8.9341e-17
3177.7757	1.1806e-16	8.9380e-17
3177.9757	1.1886e-16	8.9539e-17
3178.1756	1.1967e-16	8.9538e-17
3178.3756	1.2050e-16	8.9915e-17
3178.5756	1.2136e-16	9.0374e-17
3178.7756	1.2224e-16	9.0479e-17
3178.9756	1.2314e-16	9.0832e-17
3179.1756	1.2406e-16	9.0861e-17
3179.3755	1.2501e-16	9.1314e-17
3179.5755	1.2599e-16	9.1841e-17
3179.7755	1.2698e-16	9.2268e-17
3179.9755	1.2803e-16	9.2651e-17
3180.1755	1.2919e-16	9.2812e-17
3180.3755	1.3032e-16	9.2516e-17
3180.5754	1.3143e-16	9.2553e-17
3180.7754	1.3259e-16	9.2903e-17
3180.9754	1.3379e-16	9.2973e-17
3181.1754	1.3499e-16	9.2919e-17
3181.3754	1.3634e-16	9.3374e-17
3181.5754	1.3765e-16	9.3749e-17
3181.7753	1.3902e-16	9.3489e-17
3181.9753	1.4038e-16	9.3677e-17
3182.1753	1.4178e-16	9.3585e-17
3182.3753	1.4322e-16	9.3913e-17
3182.5763	1.4469e-16	9.4014e-17
3182.7763	1.4615e-16	9.4178e-17
3182.9762	1.4764e-16	9.3606e-17
3183.1762	1.4922e-16	9.3333e-17
3183.3762	1.5087e-16	9.3363e-17
3183.5762	1.5247e-16	9.3586e-17
3183.7762	1.5415e-16	9.3819e-17
3183.9762	1.5581e-16	9.3875e-17
3184.1761	1.5749e-16	9.4057e-17
3184.3761	1.5919e-16	9.4098e-17
3184.5761	1.6096e-16	9.4401e-17
3184.7761	1.6277e-16	9.4630e-17
3184.9761	1.6460e-16	9.4753e-17
3185.1761	1.6644e-16	9.4027e-17
3185.3760	1.6836e-16	9.3530e-17
3185.5760	1.7027e-16	9.3347e-17
3185.7760	1.7223e-16	9.3553e-17
3185.9760	1.7424e-16	9.2823e-17
3186.1760	1.7622e-16	9.2867e-17
3186.3760	1.7825e-16	9.3106e-17
3186.5759	1.8031e-16	9.2700e-17
3186.7759	1.8241e-16	9.2910e-17
3186.9759	1.8454e-16	9.3113e-17
3187.1759	1.8670e-16	9.2943e-17
3187.3759	1.8890e-16	9.2968e-17
3187.5759	1.9113e-16	9.3127e-17
3187.7758	1.9339e-16	9.2812e-17
3187.9758	1.9569e-16	9.2807e-17
3188.1758	1.9802e-16	9.2300e-17
3188.3758	2.0039e-16	9.1842e-17
3188.5758	2.0278e-16	9.1688e-17
3188.7768	2.0522e-16	9.0846e-17
3188.9767	2.0769e-16	9.0770e-17
3189.1767	2.1019e-16	9.0723e-17
3189.3767	2.1274e-16	8.9997e-17
3189.5767	2.1531e-16	8.9962e-17
3189.7767	2.1792e-16	8.9792e-17
3189.9767	2.2056e-16	8.9550e-17
3190.1766	2.2324e-16	8.9354e-17
3190.3766	2.2596e-16	8.9241e-17
3190.5766	2.2871e-16	8.9171e-17
3190.7766	2.3149e-16	8.9321e-17
3190.9766	2.3431e-16	8.8743e-17
3191.1766	2.3716e-16	8.8305e-17
3191.3765	2.4005e-16	8.7823e-17
3191.5765	2.4298e-16	8.7933e-17
3191.7765	2.4594e-16	8.7827e-17
3191.9765	2.4894e-16	8.7291e-17
3192.1765	2.5198e-16	8.6768e-17
3192.3765	2.5505e-16	8.5637e-17
3192.5764	2.5816e-16	8.5098e-17
3192.7764	2.6130e-16	8.4790e-17
3193.1764	2.6449e-16	8.3759e-17
3193.3764	2.6782e-16	8.3697e-17
3193.5764	2.7118e-16	8.3060e-17
3193.7763	2.7416e-16	8.2515e-17
3193.9763	2.7841e-16	8.2029e-17
3194.1763	2.6618e-16	8.0602e-17
3194.3763	2.5310e-16	7.9647e-17
3194.5763	2.5022e-16	7.9284e-17
3194.7773	2.5117e-16	7.9094e-17
3194.9772	2.4920e-16	7.8050e-17
3195.1772	2.5058e-16	7.7602e-17
3195.3772	2.5184e-16	7.7074e-17
3195.5772	2.3329e-16	7.6460e-17
3195.7772	2.3234e-16	7.5199e-17
3195.9772	2.1414e-16	7.4618e-17
3196.1771	2.0980e-16	7.3424e-17
3196.3771	2.0902e-16	7.2537e-17
3196.5771	1.9365e-16	7.1947e-17
3196.7771	1.8199e-16	7.1519e-17
3196.9771	1.8133e-16	7.1076e-17
3197.1771	1.8046e-16	7.0614e-17
3197.3771	1.8024e-16	7.0145e-17
3197.5770	1.7498e-16	6.9629e-17
3197.7770	1.6654e-16	6.9102e-17
3197.9770	1.6393e-16	6.8556e-17
3198.1770	1.6359e-16	6.7994e-17
3198.3770	1.5525e-16	6.7415e-17
3198.5770	1.3815e-16	6.6854e-17
3198.7769	1.3679e-16	6.6253e-17
3198.9769	1.3208e-16	6.5640e-17
3199.1769	1.3152e-16	6.5017e-17
3199.3769	1.2598e-16	6.4404e-17
3199.5769	1.2391e-16	6.3792e-17
3199.7769	1.2223e-16	6.3184e-17
3199.9768	1.2034e-16	6.2589e-17
3200.1768	1.1832e-16	6.1993e-17
3200.3768	1.1730e-16	6.1427e-17
3200.5768	1.1643e-16	6.0891e-17
3200.7778	1.1566e-16	6.0444e-17
3201.3777	1.1481e-16	6.0370e-17
3201.9777	1.1379e-16	6.0245e-17
3202.1777	1.1298e-16	5.9738e-17
3202.3776	1.1201e-16	5.9639e-17
3202.7776	1.1131e-16	5.9640e-17
3202.9776	1.1040e-16	5.9628e-17
3203.3776	1.0965e-16	5.9173e-17
3203.9775	1.0895e-16	5.8914e-17
3204.3775	1.0798e-16	5.8216e-17
3204.5775	1.0686e-16	5.7825e-17
3204.9774	1.0580e-16	5.7573e-17
3205.1774	1.0510e-16	5.6644e-17
3205.3774	1.0395e-16	5.6462e-17
3206.5773	1.0322e-16	5.6003e-17
3206.7773	1.0250e-16	5.5999e-17
3206.9783	1.0144e-16	5.5812e-17
3207.1782	1.0030e-16	5.4877e-17
3207.3782	9.9354e-17	5.4805e-17
3207.5782	9.8480e-17	5.4385e-17
3207.7782	9.7633e-17	5.3956e-17
3208.1782	9.6858e-17	5.2066e-17
3208.3781	9.5872e-17	5.2049e-17
3208.7781	9.5016e-17	5.1595e-17
3208.9781	9.4268e-17	5.1406e-17
3209.1781	9.3591e-17	5.1468e-17
3209.3781	9.2834e-17	5.1475e-17
3209.5780	9.2051e-17	5.0220e-17
3209.9780	9.1115e-17	4.9791e-17
3210.1780	9.0424e-17	4.9546e-17
3210.3780	8.9690e-17	4.9122e-17
3210.5780	8.8784e-17	4.8655e-17
3210.7779	8.7937e-17	4.8355e-17
3210.9779	8.7149e-17	4.8407e-17
3211.3779	8.6258e-17	4.8356e-17
3211.7779	8.5289e-17	4.7795e-17
3211.9778	8.4507e-17	4.7562e-17
3212.1778	8.3605e-17	4.7570e-17
3213.1787	8.2984e-17	4.7497e-17
3213.5787	8.2099e-17	4.7436e-17
3213.7787	8.1372e-17	4.7440e-17
3213.9787	8.0823e-17	4.7427e-17
3214.1787	8.0214e-17	4.7133e-17
3214.3786	7.9534e-17	4.6935e-17
3214.5786	7.8659e-17	4.6221e-17
3214.7786	7.7863e-17	4.6135e-17
3214.9786	7.7312e-17	4.6108e-17
3215.5785	7.6664e-17	4.5981e-17
3216.1785	7.6102e-17	4.5736e-17
3216.3785	7.5572e-17	4.5786e-17
3216.5785	7.4840e-17	4.5700e-17
3216.9784	7.4177e-17	4.5629e-17
3217.1784	7.3670e-17	4.4825e-17
3217.7784	7.2764e-17	4.4798e-17
3217.9783	7.2023e-17	4.5015e-17
3218.1783	7.1404e-17	4.4905e-17
3219.3792	7.0806e-17	4.4866e-17
3219.5792	6.9955e-17	4.4618e-17
3219.7792	6.9193e-17	4.4527e-17
3219.9792	6.8549e-17	4.4280e-17
3220.1792	6.7934e-17	4.4328e-17
3220.7791	6.7229e-17	4.4271e-17
3220.9791	6.6317e-17	4.4247e-17
3221.1791	6.5622e-17	4.4292e-17
3221.5790	6.5043e-17	4.4312e-17
3222.1790	6.4507e-17	4.4324e-17
3222.9789	6.3818e-17	4.4288e-17
3223.1789	6.3220e-17	4.4398e-17
3223.7789	6.2611e-17	4.3990e-17
3224.3788	6.2102e-17	4.3575e-17
3224.5788	6.1420e-17	4.3143e-17
3224.7788	6.0847e-17	4.1881e-17
3225.5797	6.0150e-17	4.1718e-17
3226.1797	5.9646e-17	4.1624e-17
3226.7796	5.8971e-17	4.0397e-17
3227.1796	5.8065e-17	4.0169e-17
3227.5796	5.7475e-17	4.0106e-17
3227.7795	5.6989e-17	3.9840e-17
3227.9795	5.5965e-17	3.9172e-17
3228.3795	5.5205e-17	3.8759e-17
3228.5795	5.4434e-17	3.8588e-17
3229.1794	5.3637e-17	3.6867e-17
3229.5794	5.2915e-17	3.6969e-17
3229.7794	5.2439e-17	3.7025e-17
3229.9794	5.1696e-17	3.7120e-17
3230.1793	5.1117e-17	3.6984e-17
3230.7793	5.0362e-17	3.6333e-17
3231.1803	4.9514e-17	3.6271e-17
3231.3802	4.8957e-17	3.6342e-17
3231.7802	4.8156e-17	3.6247e-17
3231.9802	4.7462e-17	3.6135e-17
3232.1802	4.6954e-17	3.6000e-17
3232.7801	4.6495e-17	3.6154e-17
3233.1801	4.6076e-17	3.6099e-17
3233.3801	4.5289e-17	3.6136e-17
3233.5801	4.4548e-17	3.6300e-17
3233.7800	4.3815e-17	3.6308e-17
3234.7800	4.3321e-17	3.6312e-17
3234.9799	4.2801e-17	3.6140e-17
3235.3799	4.2395e-17	3.5975e-17
3235.5799	4.1998e-17	3.5977e-17
3235.7799	4.1427e-17	3.5798e-17
3235.9799	4.0787e-17	3.5448e-17
3236.1798	4.0502e-17	3.5510e-17
3236.3798	4.0140e-17	3.5424e-17
3236.5798	3.9604e-17	3.5408e-17
3236.7798	3.9072e-17	3.5361e-17
3237.1808	3.8642e-17	3.4902e-17
3237.3807	3.8088e-17	3.4370e-17
3237.7807	3.7407e-17	3.4060e-17
3238.5806	3.6858e-17	3.3804e-17
3238.7806	3.6354e-17	3.3865e-17
3238.9806	3.5931e-17	3.3982e-17
3239.1806	3.5622e-17	3.4192e-17
3239.3806	3.5318e-17	3.4167e-17
3239.5806	3.4810e-17	3.4028e-17
3239.7805	3.4466e-17	3.3792e-17
3240.1805	3.3889e-17	3.3791e-17
3240.3805	3.3631e-17	3.3654e-17
3240.5805	3.3236e-17	3.3708e-17
3240.7805	3.2560e-17	3.3391e-17
3241.3804	3.2114e-17	3.2878e-17
3241.5804	3.1454e-17	3.2712e-17
3241.7804	3.0890e-17	3.2416e-17
3242.3803	3.0253e-17	3.2030e-17
3242.7803	2.9728e-17	3.2062e-17
3242.9803	2.9264e-17	3.2128e-17
3243.1813	2.8940e-17	3.1854e-17
3243.5812	2.8367e-17	3.1894e-17
3243.7812	2.8183e-17	3.1810e-17
3244.7811	2.7585e-17	3.1523e-17
3244.9811	2.7268e-17	3.1228e-17
