#wls	flux	flux_err
2994.2259	3.1565e-16	1.0943e-15
2996.4257	3.1606e-16	1.0943e-15
2997.0256	3.1647e-16	1.0943e-15
2997.2256	3.1686e-16	1.0943e-15
2997.6256	3.1720e-16	1.0943e-15
2997.8256	3.1754e-16	1.0943e-15
2998.6255	3.1787e-16	1.0943e-15
3000.8263	3.1820e-16	1.0943e-15
3001.2263	3.1849e-16	1.0943e-15
3001.4263	3.1877e-16	1.0943e-15
3001.6262	3.1904e-16	1.0943e-15
3001.8262	3.1927e-16	1.0943e-15
3005.8269	3.1947e-16	1.0943e-15
3008.0267	3.1967e-16	1.0943e-15
3008.4267	3.1987e-16	1.0943e-15
3008.8266	3.2005e-16	1.0943e-15
3010.4265	3.2023e-16	1.0943e-15
3011.8274	3.2036e-16	1.0943e-15
3013.0273	3.2049e-16	1.0943e-15
3014.2272	3.2059e-16	1.0943e-15
3014.6272	3.2066e-16	1.0943e-15
3015.4271	3.2073e-16	1.0943e-15
3016.6280	3.2078e-16	1.0943e-15
3018.2279	3.2080e-16	1.0943e-15
3020.8277	3.2081e-16	1.0943e-15
3021.0276	3.2080e-16	1.0943e-15
3024.4284	3.2078e-16	1.0943e-15
3027.6291	3.2075e-16	1.0943e-15
3027.8291	3.2070e-16	1.0943e-15
3028.2290	3.2062e-16	1.0943e-15
3028.4290	3.2053e-16	1.0943e-15
3030.6288	3.2042e-16	1.0943e-15
3031.4288	3.2029e-16	1.0943e-15
3033.6296	3.2015e-16	1.0943e-15
3034.8295	3.2002e-16	1.0943e-15
3036.0294	3.1985e-16	1.0943e-15
3037.8292	3.1966e-16	1.0943e-15
3038.2302	3.1944e-16	1.0943e-15
3038.4302	3.1922e-16	1.0943e-15
3039.0301	3.1898e-16	1.0943e-15
3039.2301	3.1875e-16	1.0943e-15
3040.6300	3.1849e-16	1.0943e-15
3041.4299	3.1820e-16	1.0943e-15
3041.6299	3.1789e-16	1.0943e-15
3041.8299	3.1758e-16	1.0943e-15
3043.2298	3.1727e-16	1.0943e-15
3043.4308	3.1695e-16	1.0943e-15
3044.6307	3.1657e-16	1.0943e-15
3044.8307	3.1620e-16	1.0943e-15
3045.0307	3.1580e-16	1.0943e-15
3045.6306	3.1538e-16	1.0943e-15
3046.4305	3.1495e-16	1.0943e-15
3046.8305	3.1452e-16	1.0943e-15
3047.0305	3.1405e-16	1.0943e-15
3047.2305	3.1361e-16	1.0943e-15
3047.8304	3.1313e-16	1.0943e-15
3048.6304	3.1260e-16	1.0943e-15
3048.8313	3.1208e-16	1.0943e-15
3049.6313	3.1153e-16	1.0943e-15
3049.8313	3.1097e-16	1.0943e-15
3050.4312	3.1043e-16	1.0943e-15
3051.8311	3.0987e-16	1.0943e-15
3052.2311	3.0929e-16	1.0943e-15
3053.0310	3.0869e-16	1.0943e-15
3054.0309	3.0807e-16	1.0943e-15
3054.2319	3.0742e-16	1.0943e-15
3055.6318	3.0676e-16	1.0943e-15
3055.8318	3.0608e-16	1.0943e-15
3056.4317	3.0538e-16	1.0943e-15
3056.6317	3.0466e-16	1.0943e-15
3057.2316	3.0392e-16	1.0943e-15
3057.6316	3.0316e-16	1.0943e-15
3059.2315	3.0238e-16	1.0943e-15
3063.6321	3.0159e-16	1.0943e-15
3063.8321	3.0079e-16	1.0943e-15
3064.0321	2.9996e-16	1.0943e-15
3064.6320	2.9913e-16	1.0943e-15
3065.4330	2.9828e-16	1.0943e-15
3065.6329	2.9741e-16	1.0943e-15
3066.6329	2.9654e-16	1.0943e-15
3066.8328	2.9564e-16	1.0943e-15
3067.2328	2.9472e-16	1.0943e-15
3068.2327	2.9378e-16	1.0943e-15
3069.2326	2.9283e-16	1.0943e-15
3070.4326	2.9187e-16	1.0943e-15
3071.0335	2.9090e-16	1.0943e-15
3071.2335	2.8991e-16	1.0943e-15
3071.4335	2.8890e-16	1.0943e-15
3071.8334	2.8789e-16	1.0943e-15
3072.0334	2.8687e-16	1.0943e-15
3072.4334	2.8583e-16	1.0943e-15
3073.0333	2.8480e-16	1.0943e-15
3073.6333	2.8373e-16	1.0943e-15
3074.2332	2.8263e-16	1.0943e-15
3074.6332	2.8155e-16	1.0943e-15
3075.0332	2.8043e-16	1.0943e-15
3075.2332	2.7930e-16	1.0943e-15
3075.8331	2.7817e-16	1.0943e-15
3076.0341	2.7701e-16	1.0943e-15
3076.2341	2.7582e-16	1.0943e-15
3077.0340	2.7465e-16	1.0943e-15
3077.8339	2.7346e-16	1.0943e-15
3078.2339	2.7224e-16	1.0943e-15
3078.8339	2.7101e-16	1.0943e-15
3079.6338	2.6977e-16	1.0940e-15
3080.4337	2.6852e-16	1.0939e-15
3083.0345	2.6724e-16	1.0937e-15
3084.0344	2.6598e-16	1.0933e-15
3084.6344	2.6468e-16	1.0933e-15
3084.8344	2.6338e-16	1.0930e-15
3085.0343	2.6204e-16	1.0928e-15
3086.2342	2.6070e-16	1.0299e-15
3086.4342	2.5934e-16	1.0293e-15
3087.0352	2.5798e-16	1.0098e-15
3088.0351	2.5660e-16	9.2235e-16
3088.4351	2.5521e-16	9.2196e-16
3088.8350	2.5380e-16	9.2192e-16
3089.0350	2.5239e-16	9.0900e-16
3089.2350	2.5097e-16	7.8290e-16
3089.4350	2.4954e-16	6.6317e-16
3090.2349	2.4810e-16	6.4360e-16
3091.6348	2.4664e-16	6.4317e-16
3091.8348	2.4517e-16	6.4234e-16
3092.0348	2.4370e-16	6.4233e-16
3092.2357	2.4221e-16	4.4513e-16
3092.4357	2.4071e-16	3.5049e-16
3092.6357	2.3920e-16	3.3675e-16
3092.8357	2.3767e-16	2.8044e-16
3093.2357	2.3613e-16	2.1642e-16
3093.4356	2.3458e-16	1.9177e-16
3093.8356	2.3302e-16	1.9188e-16
3094.0356	2.3144e-16	1.8390e-16
3095.2355	2.2986e-16	1.8172e-16
3095.4355	2.2826e-16	1.8141e-16
3096.0354	2.2665e-16	1.7785e-16
3096.2354	2.2503e-16	1.7631e-16
3096.4354	2.2340e-16	1.0481e-16
3096.6354	2.2176e-16	9.7953e-17
3097.0353	2.2011e-16	9.8238e-17
3097.2353	2.1848e-16	9.7980e-17
3097.8363	2.1681e-16	9.8321e-17
3098.0363	2.1514e-16	9.7166e-17
3099.0362	2.1348e-16	9.7285e-17
3099.8361	2.1180e-16	9.6475e-17
3100.0361	2.1009e-16	9.6782e-17
3100.6361	2.0839e-16	9.6324e-17
3100.8360	2.0669e-16	8.7616e-17
3101.4360	2.0497e-16	8.7737e-17
3101.6360	2.0323e-16	8.8122e-17
3101.8360	2.0148e-16	8.8360e-17
3102.2359	1.9973e-16	8.9148e-17
3102.6359	1.9801e-16	8.9771e-17
3103.0359	1.9624e-16	8.9924e-17
3103.2368	1.9447e-16	9.0420e-17
3103.8368	1.9270e-16	9.1036e-17
3104.0368	1.9094e-16	9.1976e-17
3104.4367	1.8915e-16	9.2316e-17
3104.8367	1.8733e-16	9.2524e-17
3105.0367	1.8552e-16	9.2755e-17
3105.4367	1.8372e-16	9.2654e-17
3105.6366	1.8188e-16	9.3033e-17
3105.8366	1.8003e-16	9.3574e-17
3106.0366	1.7817e-16	9.3713e-17
3106.6366	1.7633e-16	9.4291e-17
3107.0365	1.7446e-16	9.4712e-17
3107.2365	1.7261e-16	9.5432e-17
3107.4365	1.7077e-16	9.5988e-17
3107.6365	1.6889e-16	9.5202e-17
3107.8365	1.6701e-16	9.5627e-17
3108.2364	1.6515e-16	9.5757e-17
3108.6374	1.6324e-16	9.6743e-17
3108.8374	1.6136e-16	9.6838e-17
3109.0374	1.5946e-16	9.7734e-17
3109.2373	1.5756e-16	9.7673e-17
3109.4373	1.5563e-16	9.8344e-17
3110.2373	1.5370e-16	9.8583e-17
3110.4372	1.5177e-16	9.8662e-17
3110.6372	1.4983e-16	9.8959e-17
3111.0372	1.4788e-16	9.9268e-17
3111.2372	1.4595e-16	9.9233e-17
3111.4372	1.4401e-16	9.9117e-17
3111.6371	1.4207e-16	9.9636e-17
3112.0371	1.4011e-16	9.9597e-17
3112.2371	1.3816e-16	9.9431e-17
3112.4371	1.3621e-16	9.9577e-17
3112.8370	1.3426e-16	1.0023e-16
3113.0370	1.3230e-16	1.0074e-16
3113.6370	1.3034e-16	1.0092e-16
3113.8370	1.2838e-16	1.0117e-16
3114.0379	1.2642e-16	1.0141e-16
3114.2379	1.2446e-16	1.0204e-16
3114.4379	1.2250e-16	1.0227e-16
3114.6379	1.2053e-16	1.0212e-16
3115.4378	1.1857e-16	1.0187e-16
3115.6378	1.1660e-16	1.0175e-16
3115.8378	1.1465e-16	1.0184e-16
3116.2378	1.1268e-16	1.0188e-16
3116.4377	1.1068e-16	1.0227e-16
3116.6377	1.0870e-16	1.0247e-16
3117.6376	1.0670e-16	1.0259e-16
3118.0376	1.0470e-16	1.0286e-16
3118.6376	1.0273e-16	1.0262e-16
3118.8375	1.0076e-16	1.0266e-16
3119.6385	9.8764e-17	1.0316e-16
3120.2384	9.6767e-17	1.0317e-16
3120.4384	9.4775e-17	1.0336e-16
3121.0384	9.2789e-17	1.0297e-16
3121.4383	9.0806e-17	1.0287e-16
3121.6383	8.8856e-17	1.0347e-16
3122.0383	8.6868e-17	1.0310e-16
3122.4382	8.4885e-17	1.0319e-16
3122.6382	8.2923e-17	1.0297e-16
3123.0382	8.0983e-17	1.0283e-16
3123.2382	7.9023e-17	1.0237e-16
3123.4382	7.7068e-17	1.0209e-16
3123.6381	7.5103e-17	1.0204e-16
3123.8381	7.3161e-17	1.0231e-16
3124.0381	7.1208e-17	1.0210e-16
3124.4381	6.9247e-17	1.0185e-16
3125.0390	6.7277e-17	1.0139e-16
3125.4390	6.5349e-17	1.0135e-16
3126.8389	6.3423e-17	1.0082e-16
3127.0389	6.1472e-17	1.0070e-16
3127.8388	5.9537e-17	1.0020e-16
3128.4388	5.7588e-17	1.0013e-16
3129.6387	5.5671e-17	9.9805e-17
3130.2396	5.3744e-17	1.0009e-16
3130.6396	5.1800e-17	9.9707e-17
3130.8396	4.9861e-17	9.9622e-17
3131.6395	4.7958e-17	9.9566e-17
3132.0395	4.6031e-17	9.9177e-17
3132.2394	4.4130e-17	9.8689e-17
3132.4394	4.2262e-17	9.8368e-17
3132.6394	4.0364e-17	9.8061e-17
3132.8394	3.8491e-17	9.7866e-17
3133.0394	3.6598e-17	9.7415e-17
3133.2394	3.4752e-17	9.6786e-17
3133.4393	3.2895e-17	9.6198e-17
3133.6393	3.1051e-17	9.5920e-17
3134.4393	2.9210e-17	9.5501e-17
3134.8392	2.7357e-17	9.5247e-17
3135.4392	2.5508e-17	9.4580e-17
3135.8401	2.3667e-17	9.4103e-17
3136.0401	2.1860e-17	9.3575e-17
3136.2401	2.0046e-17	9.3155e-17
3137.0400	1.8242e-17	9.2376e-17
3137.6400	1.6446e-17	9.1787e-17
3137.8400	1.4664e-17	9.1194e-17
3138.0400	1.2920e-17	9.1055e-17
3138.2399	1.1159e-17	9.0220e-17
3138.6399	9.4136e-18	8.9406e-17
3139.0399	7.6729e-18	8.8964e-17
3139.4398	5.9644e-18	8.8430e-17
3139.8398	4.2434e-18	8.7784e-17
3140.8397	2.5422e-18	8.7045e-17
3141.0407	8.7195e-19	8.6308e-17
3141.4407	-8.0777e-19	8.5545e-17
3141.8406	-2.4758e-18	8.5115e-17
3142.0406	-4.1095e-18	8.4469e-17
3142.6406	-5.7577e-18	8.3625e-17
3143.6405	-7.3936e-18	8.2995e-17
3143.8405	-8.9964e-18	8.2047e-17
3144.0405	-1.0613e-17	8.1217e-17
3145.0404	-1.2197e-17	8.0240e-17
3145.2404	-1.3757e-17	7.9702e-17
3145.4403	-1.5298e-17	7.8978e-17
3146.2403	-1.6849e-17	7.7972e-17
3146.4413	-1.8384e-17	7.6987e-17
3146.6412	-1.9859e-17	7.5960e-17
3146.8412	-2.1320e-17	7.5297e-17
3147.0412	-2.2769e-17	7.4757e-17
3147.2412	-2.4203e-17	7.4203e-17
3147.4412	-2.5624e-17	7.3635e-17
3147.6412	-2.7029e-17	7.3039e-17
3148.0411	-2.8419e-17	7.2415e-17
3148.2411	-2.9796e-17	7.1777e-17
3148.8411	-3.1156e-17	7.1125e-17
3149.0410	-3.2500e-17	7.0461e-17
3150.0410	-3.3828e-17	6.9784e-17
3150.8409	-3.5140e-17	6.9048e-17
3151.2409	-3.6434e-17	6.8300e-17
3151.4408	-3.7712e-17	6.7539e-17
3151.6418	-3.8974e-17	6.6674e-17
3151.8418	-4.0218e-17	6.6120e-17
3152.0418	-4.1443e-17	6.5502e-17
3152.2418	-4.2649e-17	6.4890e-17
3152.4418	-4.3837e-17	6.4091e-17
3152.8417	-4.5004e-17	6.3255e-17
3153.0417	-4.6153e-17	6.2489e-17
3153.2417	-4.7281e-17	6.1632e-17
3153.6417	-4.8388e-17	6.0769e-17
3154.0416	-4.9475e-17	5.9834e-17
3154.4416	-5.0541e-17	5.9329e-17
3154.6416	-5.1611e-17	5.8441e-17
3155.2415	-5.2652e-17	5.7673e-17
3155.4415	-5.3665e-17	5.7255e-17
3156.0415	-5.4660e-17	5.6491e-17
3156.2415	-5.5626e-17	5.5915e-17
3156.4414	-5.6577e-17	5.5290e-17
3157.0424	-5.7493e-17	5.4659e-17
3157.2424	-5.8404e-17	5.4302e-17
3157.4424	-5.9279e-17	5.4034e-17
3157.6423	-6.0142e-17	5.3427e-17
3157.8423	-6.0926e-17	5.3188e-17
3158.2423	-6.1734e-17	5.2793e-17
3158.4423	-6.2487e-17	5.2442e-17
3158.6423	-6.3218e-17	5.2042e-17
3158.8422	-6.3948e-17	5.1968e-17
3160.2421	-6.4626e-17	5.1698e-17
3160.4421	-6.5259e-17	5.1567e-17
3161.2420	-6.5882e-17	5.1333e-17
3161.4420	-6.6481e-17	5.1117e-17
3161.6420	-6.7059e-17	5.1016e-17
3161.8420	-6.7617e-17	5.1142e-17
3162.0420	-6.8152e-17	5.1346e-17
3162.2420	-6.8655e-17	5.1680e-17
3162.6429	-6.9134e-17	5.2089e-17
3163.0429	-6.9574e-17	5.2425e-17
3163.4429	-6.9986e-17	5.2806e-17
3163.6428	-7.0363e-17	5.2946e-17
3163.8428	-7.0708e-17	5.3310e-17
3164.0428	-7.1031e-17	5.3424e-17
3164.6428	-7.1311e-17	5.3593e-17
3165.0427	-7.1569e-17	5.3804e-17
3165.2427	-7.1796e-17	5.3876e-17
3165.4427	-7.1976e-17	5.4039e-17
3165.8427	-7.2087e-17	5.4128e-17
3166.0426	-7.2168e-17	5.4075e-17
3166.4426	-7.2220e-17	5.3986e-17
3166.6426	-7.2243e-17	5.4014e-17
3167.0426	-7.2234e-17	5.4304e-17
3167.8435	-7.2196e-17	5.4305e-17
3168.2435	-7.2124e-17	5.4362e-17
3168.4434	-7.2020e-17	5.4301e-17
3168.6434	-7.1885e-17	5.4203e-17
3169.0434	-7.1715e-17	5.4319e-17
3169.2434	-7.1514e-17	5.4239e-17
3169.6433	-7.1278e-17	5.4330e-17
3169.8433	-7.1011e-17	5.4331e-17
3170.0433	-7.0713e-17	5.4262e-17
3170.2433	-7.0386e-17	5.4285e-17
3170.4433	-7.0006e-17	5.4243e-17
3170.6433	-6.9586e-17	5.4263e-17
3170.8432	-6.9111e-17	5.4223e-17
3172.2431	-6.8605e-17	5.4184e-17
3172.6431	-6.8085e-17	5.4209e-17
3172.8431	-6.7525e-17	5.4272e-17
3173.4440	-6.6926e-17	5.4272e-17
3173.6440	-6.6266e-17	5.4286e-17
3173.8440	-6.5541e-17	5.4358e-17
3174.6439	-6.4794e-17	5.4325e-17
3175.0439	-6.4034e-17	5.4385e-17
3175.4439	-6.3230e-17	5.4422e-17
3175.8438	-6.2383e-17	5.4491e-17
3176.0438	-6.1491e-17	5.4527e-17
3176.4438	-6.0554e-17	5.4547e-17
3176.8437	-5.9572e-17	5.4571e-17
3177.6437	-5.8547e-17	5.4629e-17
3177.8437	-5.7475e-17	5.4632e-17
3178.8446	-5.6358e-17	5.4684e-17
3179.4445	-5.5194e-17	5.4737e-17
3180.0445	-5.3983e-17	5.4760e-17
3180.6444	-5.2727e-17	5.4763e-17
3181.4444	-5.1431e-17	5.4807e-17
3181.6444	-5.0095e-17	5.4809e-17
3181.8443	-4.8693e-17	5.4841e-17
3182.2443	-4.7262e-17	5.4888e-17
3182.6443	-4.5780e-17	5.4924e-17
3182.8443	-4.4248e-17	5.4970e-17
3183.2442	-4.2674e-17	5.5016e-17
3183.6442	-4.1035e-17	5.5025e-17
3183.8442	-3.9372e-17	5.5029e-17
3184.4451	-3.7649e-17	5.5042e-17
3184.8451	-3.5861e-17	5.5055e-17
3185.0451	-3.4039e-17	5.5070e-17
3185.2451	-3.2147e-17	5.5081e-17
3185.4450	-3.0220e-17	5.5010e-17
3185.6450	-2.8219e-17	5.5018e-17
3186.4450	-2.6163e-17	5.4940e-17
3186.8449	-2.4065e-17	5.4968e-17
3187.0449	-2.1941e-17	5.4974e-17
3188.0448	-1.9734e-17	5.4954e-17
3188.2448	-1.7487e-17	5.4962e-17
3189.2447	-1.5210e-17	5.4980e-17
3189.4457	-1.2856e-17	5.4998e-17
3189.8457	-1.0453e-17	5.4950e-17
3190.0457	-7.9822e-18	5.4909e-17
3190.6456	-5.4517e-18	5.4773e-17
3191.2456	-2.8965e-18	5.4776e-17
3191.4455	-2.6892e-19	5.4743e-17
3192.0455	2.4149e-18	5.4723e-17
3193.4454	5.1535e-18	5.4644e-17
3193.6454	7.9307e-18	5.4614e-17
3194.0453	1.0771e-17	5.4588e-17
3194.2453	1.3668e-17	5.4477e-17
3194.4453	1.6624e-17	5.4434e-17
3194.8463	1.9636e-17	5.4378e-17
3195.6462	2.2708e-17	5.4353e-17
3196.0462	2.5839e-17	5.4307e-17
3197.0461	2.9031e-17	5.4268e-17
3197.6460	3.2283e-17	5.4162e-17
3198.2460	3.5596e-17	5.3971e-17
3198.4460	3.8971e-17	5.3723e-17
3198.8459	4.2408e-17	5.3661e-17
3199.6459	4.5907e-17	5.3281e-17
3200.4468	4.9468e-17	5.2920e-17
3200.8468	5.3093e-17	5.2772e-17
3201.0467	5.6782e-17	5.2617e-17
3201.8467	6.0534e-17	5.2492e-17
3202.2466	6.4351e-17	5.2268e-17
3202.8466	6.8233e-17	5.2131e-17
3203.4465	7.2181e-17	5.1859e-17
3203.6465	7.6194e-17	5.1716e-17
3204.8464	8.0275e-17	5.1367e-17
3206.0473	8.4074e-17	5.1007e-17
3206.2473	8.8192e-17	5.0857e-17
3207.0473	9.2469e-17	5.0683e-17
3207.2472	9.6393e-17	5.0359e-17
3207.4472	1.0067e-16	4.9910e-17
3207.6472	1.0498e-16	4.9706e-17
3207.8472	9.6422e-17	4.9549e-17
3208.0472	9.8367e-17	4.9132e-17
3208.4471	9.4978e-17	4.8890e-17
3208.8471	8.4442e-17	4.8625e-17
3209.4471	8.6193e-17	4.8242e-17
3209.6470	8.8457e-17	4.8038e-17
3209.8470	8.6063e-17	4.7709e-17
3210.2470	7.3378e-17	4.7478e-17
3210.8479	6.1787e-17	4.7202e-17
3211.0479	5.8277e-17	4.6928e-17
3211.6479	5.9125e-17	4.6526e-17
3211.8479	5.9668e-17	4.6206e-17
3212.4478	6.1343e-17	4.5623e-17
3213.0478	4.7677e-17	4.5277e-17
3213.2477	3.9801e-17	4.4993e-17
3214.2477	3.7518e-17	4.4590e-17
3214.4476	3.2206e-17	4.4211e-17
3214.6476	2.6988e-17	4.3729e-17
3214.8476	2.4167e-17	4.3210e-17
3215.0476	2.4589e-17	4.2512e-17
3215.2476	2.3160e-17	4.2029e-17
3215.8475	2.2547e-17	4.1557e-17
3216.0475	2.2455e-17	4.1149e-17
3216.8484	2.1552e-17	4.0760e-17
3217.0484	2.1013e-17	4.0418e-17
3217.2484	1.6565e-17	3.9988e-17
3217.4484	1.5405e-17	3.9451e-17
3218.2483	1.5654e-17	3.8919e-17
3219.2482	1.5316e-17	3.8413e-17
3219.8482	1.5133e-17	3.7824e-17
3220.0482	1.4582e-17	3.7013e-17
3220.6481	1.4877e-17	3.6598e-17
3220.8481	1.4331e-17	3.6076e-17
3221.2481	1.4501e-17	3.5423e-17
3221.8490	1.4003e-17	3.4802e-17
3222.0490	1.2574e-17	3.4393e-17
3223.0489	1.2118e-17	3.4047e-17
3223.6489	1.2265e-17	3.3591e-17
3224.0488	1.2471e-17	3.2960e-17
3224.2488	1.2320e-17	3.2561e-17
3224.4488	1.2166e-17	3.1967e-17
3224.8488	1.1784e-17	3.1619e-17
3225.0488	1.1826e-17	3.1015e-17
3225.2487	1.1814e-17	3.0587e-17
3225.4487	1.1563e-17	3.0178e-17
3225.6487	1.1755e-17	2.9827e-17
3226.0487	1.1879e-17	2.9452e-17
3226.6486	1.1460e-17	2.9144e-17
3227.0496	1.1678e-17	2.8542e-17
3227.4496	1.1712e-17	2.8235e-17
3227.6495	1.1738e-17	2.7942e-17
3228.2495	1.1196e-17	2.7467e-17
3228.8494	1.1116e-17	2.7126e-17
3229.0494	1.1106e-17	2.6810e-17
3229.6494	1.0883e-17	2.6501e-17
3229.8494	1.0810e-17	2.6225e-17
3230.2493	1.0034e-17	2.6006e-17
3230.8493	9.9622e-18	2.5751e-17
3231.0493	9.3548e-18	2.5521e-17
3231.2493	9.0802e-18	2.5344e-17
3231.8492	9.1548e-18	2.5139e-17
3232.4502	9.0111e-18	2.4992e-17
3232.6501	9.1057e-18	2.4837e-17
3233.2501	8.7420e-18	2.4713e-17
3233.8500	8.8062e-18	2.4592e-17
3234.2500	8.8742e-18	2.4478e-17
3235.6499	8.8185e-18	2.4380e-17
3236.0499	8.7519e-18	2.4286e-17
3237.0498	8.8694e-18	2.4202e-17
3237.2498	9.0030e-18	2.4137e-17
3237.4497	8.9824e-18	2.4096e-17
3237.8507	9.0638e-18	2.4057e-17
3238.2507	9.1638e-18	2.4014e-17
3238.8506	9.1806e-18	2.3993e-17
3239.0506	9.0070e-18	2.3980e-17
3239.2506	8.8658e-18	2.3974e-17
3239.4506	8.8569e-18	2.3977e-17
3239.8505	8.8545e-18	2.3989e-17
3240.0505	8.8017e-18	2.4007e-17
3240.2505	8.4502e-18	2.4030e-17
3240.8505	8.3663e-18	2.4054e-17
3241.0504	8.4018e-18	2.4078e-17
3241.2504	8.4595e-18	2.4095e-17
3241.8504	8.5129e-18	2.4110e-17
3242.0504	8.5339e-18	2.4116e-17
3242.2503	8.5863e-18	2.4145e-17
3242.6503	8.4137e-18	2.4129e-17
3243.4512	8.4457e-18	2.4066e-17
3243.6512	8.4910e-18	2.4000e-17
3244.0512	8.3964e-18	2.3903e-17
3244.2512	8.4566e-18	2.3785e-17
3244.6511	8.4230e-18	2.3653e-17
3245.4511	8.2442e-18	2.3450e-17
3246.0510	8.2050e-18	2.3172e-17
3246.2510	8.1546e-18	2.2832e-17
3246.6510	8.2263e-18	2.2505e-17
3247.0509	8.2788e-18	2.2157e-17
3247.8509	8.0520e-18	2.1762e-17
3248.0509	8.1065e-18	2.1460e-17
3248.2518	8.0207e-18	2.1052e-17
3248.4518	8.0735e-18	2.0260e-17
3248.6518	8.1211e-18	1.9569e-17
3248.8518	8.2021e-18	1.8773e-17
3249.2518	8.2268e-18	1.8007e-17
3249.6517	8.2375e-18	1.7189e-17
3249.8517	8.0587e-18	1.6278e-17
3250.0517	8.0560e-18	1.5545e-17
3250.2517	8.0939e-18	1.4717e-17
3250.6516	8.1411e-18	1.3593e-17
3250.8516	8.0935e-18	1.2439e-17
3252.2515	8.1840e-18	1.1643e-17
3252.6515	8.1441e-18	1.0987e-17
3252.8515	8.2083e-18	1.0692e-17
3253.0514	8.1671e-18	1.0136e-17
3253.6524	8.1698e-18	9.7370e-18
3253.8524	8.0283e-18	9.1641e-18
3254.0524	8.0540e-18	8.2241e-18
3254.6523	7.9728e-18	7.8445e-18
3255.0523	7.9178e-18	7.5772e-18
3255.6522	7.9448e-18	7.2107e-18
3255.8522	8.0040e-18	6.9965e-18
3256.0522	8.0186e-18	6.8459e-18
3256.4522	8.0465e-18	6.8003e-18
3256.6522	8.0142e-18	6.7057e-18
3256.8521	8.0419e-18	6.6366e-18
3257.0521	8.0954e-18	6.5278e-18
3257.4521	8.1398e-18	6.4380e-18
3258.6520	8.0836e-18	6.3335e-18
3258.8520	8.1077e-18	6.2330e-18
3259.2529	8.0751e-18	6.1544e-18
3260.0529	8.1622e-18	6.1627e-18
3260.2529	8.1873e-18	6.1332e-18
3260.4528	8.2220e-18	6.0966e-18
3260.6528	8.2588e-18	6.0232e-18
3261.2528	8.3060e-18	6.0012e-18
3261.6527	8.3199e-18	5.9543e-18
3261.8527	8.3463e-18	5.9672e-18
3262.2527	8.2410e-18	5.9551e-18
3263.0526	8.2917e-18	5.9457e-18
3263.8526	8.3607e-18	5.9139e-18
3264.0525	8.3272e-18	5.9097e-18
3264.4535	8.3225e-18	5.9064e-18
3264.6535	8.3269e-18	5.9036e-18
3265.0535	8.3696e-18	5.8652e-18
3265.2534	8.4182e-18	5.8645e-18
3265.6534	8.4565e-18	5.8661e-18
3265.8534	8.4046e-18	5.8540e-18
3266.0534	8.4075e-18	5.8409e-18
3266.2534	8.4571e-18	5.8586e-18
3267.0533	8.4400e-18	5.8458e-18
3267.2533	8.4932e-18	5.7830e-18
3267.4533	8.5427e-18	5.7883e-18
3267.6532	8.6280e-18	5.7911e-18
3267.8532	8.5806e-18	5.7902e-18
3268.0532	8.6096e-18	5.7739e-18
3269.4531	8.6713e-18	5.7806e-18
3269.6541	8.7316e-18	5.7095e-18
3269.8541	8.8096e-18	5.6542e-18
3270.0540	8.8241e-18	5.7168e-18
3270.2540	8.7910e-18	5.7804e-18
3270.6540	8.7450e-18	5.8426e-18
3270.8540	8.7021e-18	5.9085e-18
3272.0539	8.6627e-18	5.9715e-18
3272.6538	8.6466e-18	6.0338e-18
3273.2538	8.6371e-18	6.1003e-18
3273.6537	8.6061e-18	6.1592e-18
3273.8537	8.5760e-18	6.2143e-18
3274.6537	8.5571e-18	6.2637e-18
3274.8536	8.5445e-18	6.3028e-18
3275.8546	8.5373e-18	6.3463e-18
3276.0545	8.5342e-18	6.3864e-18
3276.6545	8.5613e-18	6.4094e-18
3276.8545	8.5153e-18	6.4363e-18
3278.2544	8.4757e-18	6.4539e-18
3278.8543	8.4356e-18	6.4693e-18
3279.0543	8.4457e-18	6.4845e-18
3279.2543	8.4617e-18	6.4891e-18
3279.8542	8.4654e-18	6.4983e-18
3280.0542	8.4934e-18	6.4927e-18
3280.2552	8.5251e-18	6.4867e-18
3280.6552	8.5858e-18	6.4931e-18
3281.2551	8.5728e-18	6.5039e-18
3281.4551	8.6244e-18	6.5019e-18
3282.6550	8.6646e-18	6.4977e-18
3282.8550	8.6211e-18	6.5015e-18
3283.6549	8.6569e-18	6.5025e-18
3283.8549	8.6573e-18	6.5074e-18
3284.0549	8.6732e-18	6.4751e-18
3284.2549	8.7112e-18	6.4857e-18
3285.2548	8.6932e-18	6.4631e-18
3286.2557	8.6591e-18	6.4807e-18
3286.4557	8.6992e-18	6.4829e-18
3286.6557	8.6723e-18	6.5175e-18
3287.4556	8.6951e-18	6.5788e-18
3287.6556	8.7344e-18	6.5984e-18
3288.2555	8.7951e-18	6.5824e-18
3289.0555	8.7835e-18	6.5741e-18
3289.4554	8.8337e-18	6.5974e-18
3289.8554	8.8552e-18	6.5896e-18
3290.4554	8.9056e-18	6.6308e-18
