#wls	flux	flux_err
5337.6254	3.8052e-16	2.5771e-16
5338.4253	3.7999e-16	2.5771e-16
5338.8253	3.7945e-16	2.5771e-16
5339.0253	3.7891e-16	2.5771e-16
5339.2253	3.7839e-16	2.5771e-16
5339.4263	3.7784e-16	2.5771e-16
5340.0262	3.7726e-16	2.5771e-16
5340.2262	3.7668e-16	2.5771e-16
5340.6262	3.7612e-16	2.5771e-16
5341.8261	3.7553e-16	2.5771e-16
5343.0260	3.7497e-16	2.5771e-16
5344.8268	3.7437e-16	2.5771e-16
5345.6268	3.7377e-16	2.5771e-16
5346.0267	3.7315e-16	2.5771e-16
5346.6267	3.7257e-16	2.5771e-16
5347.0266	3.7196e-16	2.5771e-16
5347.4266	3.7136e-16	2.5771e-16
5347.6266	3.7076e-16	2.5771e-16
5348.2265	3.7011e-16	2.5771e-16
5348.4265	3.6949e-16	2.5771e-16
5348.6265	3.6889e-16	2.5771e-16
5348.8265	3.6823e-16	2.5771e-16
5349.0265	3.6757e-16	2.5771e-16
5349.6264	3.6690e-16	2.5771e-16
5350.2274	3.6624e-16	2.5771e-16
5350.8273	3.6558e-16	2.5771e-16
5351.8272	3.6490e-16	2.5771e-16
5352.0272	3.6423e-16	2.5771e-16
5352.2272	3.6352e-16	2.5771e-16
5352.4272	3.6279e-16	2.5771e-16
5353.4271	3.6207e-16	2.5771e-16
5353.8271	3.6133e-16	2.5771e-16
5354.0271	3.6061e-16	2.5771e-16
5354.2271	3.5987e-16	2.5771e-16
5354.4270	3.5911e-16	2.5771e-16
5354.8270	3.5836e-16	2.5771e-16
5355.0270	3.5761e-16	2.5771e-16
5355.2280	3.5685e-16	2.5771e-16
5355.4280	3.5611e-16	2.5771e-16
5356.2279	3.5535e-16	2.5771e-16
5356.6279	3.5455e-16	2.5771e-16
5357.0278	3.5374e-16	2.5771e-16
5357.2278	3.5295e-16	2.5771e-16
5357.8278	3.5214e-16	2.5771e-16
5358.0277	3.5133e-16	2.5771e-16
5358.2277	3.5050e-16	2.5771e-16
5358.6277	3.4966e-16	2.5771e-16
5359.0277	3.4884e-16	2.5771e-16
5359.6276	3.4802e-16	2.5771e-16
5359.8276	3.4719e-16	2.5771e-16
5360.0276	3.4633e-16	2.5771e-16
5360.4275	3.4546e-16	2.5771e-16
5361.0285	3.4461e-16	2.5771e-16
5361.6285	3.4377e-16	2.5771e-16
5362.0284	3.4291e-16	2.5771e-16
5362.2284	3.4200e-16	2.5771e-16
5362.4284	3.4109e-16	2.5771e-16
5362.6284	3.4023e-16	2.5771e-16
5362.8284	3.3931e-16	2.5771e-16
5364.4282	3.3838e-16	2.5771e-16
5364.6282	3.3746e-16	2.5771e-16
5364.8282	3.3653e-16	2.5771e-16
5365.0282	3.3563e-16	2.5771e-16
5365.6281	3.3471e-16	2.5771e-16
5366.0291	3.3376e-16	2.5771e-16
5366.2291	3.3280e-16	2.5771e-16
5366.4291	3.3186e-16	2.5771e-16
5367.4290	3.3093e-16	2.5771e-16
5367.8289	3.2996e-16	2.5771e-16
5368.2289	3.2899e-16	2.5771e-16
5368.4289	3.2805e-16	2.5771e-16
5369.0289	3.2706e-16	2.5771e-16
5369.4288	3.2606e-16	2.5771e-16
5369.6288	3.2505e-16	2.5771e-16
5369.8288	3.2404e-16	2.5771e-16
5370.4287	3.2302e-16	2.5771e-16
5370.6287	3.2202e-16	2.5771e-16
5371.8296	3.2102e-16	2.5771e-16
5372.0296	3.2000e-16	2.5771e-16
5372.2296	3.1898e-16	2.5771e-16
5372.4296	3.1796e-16	2.5771e-16
5372.6296	3.1695e-16	2.5771e-16
5373.2295	3.1589e-16	2.5771e-16
5373.4295	3.1483e-16	2.5771e-16
5373.6295	3.1377e-16	2.5771e-16
5373.8295	3.1273e-16	2.5771e-16
5374.0294	3.1167e-16	2.5771e-16
5374.2294	3.1060e-16	2.5771e-16
5375.2293	3.0953e-16	2.5771e-16
5375.4293	3.0847e-16	2.5771e-16
5376.0293	3.0741e-16	2.5771e-16
5376.2293	3.0634e-16	2.5771e-16
5377.0302	3.0526e-16	2.5771e-16
5378.2301	3.0418e-16	2.5771e-16
5378.8301	3.0308e-16	2.5771e-16
5379.0300	3.0198e-16	2.5771e-16
5380.2299	3.0087e-16	2.5771e-16
5380.4299	2.9976e-16	2.5771e-16
5381.0299	2.9864e-16	2.5771e-16
5381.2299	2.9751e-16	2.5771e-16
5381.4298	2.9638e-16	2.5771e-16
5381.6298	2.9526e-16	2.5771e-16
5381.8308	2.9412e-16	2.5771e-16
5383.0307	2.9299e-16	2.5771e-16
5383.2307	2.9185e-16	2.5771e-16
5383.8306	2.9071e-16	2.5771e-16
5384.0306	2.8955e-16	2.5771e-16
5384.4306	2.8842e-16	2.5771e-16
5384.6306	2.8729e-16	2.5771e-16
5385.0305	2.8613e-16	2.5771e-16
5385.4305	2.8497e-16	2.5771e-16
5385.6305	2.8381e-16	2.5771e-16
5386.0305	2.8264e-16	2.5771e-16
5386.2305	2.8145e-16	2.5771e-16
5386.4304	2.8027e-16	2.5771e-16
5386.6304	2.7911e-16	2.5771e-16
5386.8304	2.7792e-16	2.5771e-16
5387.0304	2.7672e-16	2.5771e-16
5387.4314	2.7551e-16	2.5771e-16
5387.6313	2.7430e-16	2.5771e-16
5387.8313	2.7309e-16	2.5771e-16
5388.2313	2.7187e-16	2.5771e-16
5388.4313	2.7065e-16	2.5780e-16
5388.6313	2.6943e-16	2.5770e-16
5388.8312	2.6820e-16	2.5557e-16
5389.2312	2.6697e-16	2.5566e-16
5390.0311	2.6574e-16	2.5548e-16
5390.2311	2.6450e-16	2.5223e-16
5390.4311	2.6326e-16	2.5226e-16
5392.4319	2.6202e-16	2.5235e-16
5392.6319	2.6079e-16	2.5231e-16
5392.8319	2.5955e-16	2.5149e-16
5393.0319	2.5832e-16	2.4870e-16
5393.2319	2.5708e-16	2.4871e-16
5393.6318	2.5584e-16	2.4800e-16
5393.8318	2.5460e-16	2.4794e-16
5395.2317	2.5336e-16	2.4724e-16
5395.4317	2.5212e-16	2.4695e-16
5395.6317	2.5087e-16	2.4411e-16
5397.2316	2.4963e-16	2.4375e-16
5397.4315	2.4838e-16	2.4375e-16
5397.6315	2.4713e-16	2.4352e-16
5397.8325	2.4587e-16	2.4352e-16
5398.2325	2.4463e-16	2.4328e-16
5398.4325	2.4337e-16	2.4246e-16
5398.6324	2.4209e-16	2.4148e-16
5398.8324	2.4082e-16	2.4152e-16
5399.0324	2.3955e-16	2.4137e-16
5399.6324	2.3827e-16	2.4136e-16
5399.8323	2.3700e-16	2.3754e-16
5400.6323	2.3572e-16	2.3400e-16
5400.8323	2.3444e-16	2.2928e-16
5401.0322	2.3316e-16	2.2891e-16
5401.2322	2.3188e-16	2.2814e-16
5401.4322	2.3061e-16	2.2806e-16
5401.6322	2.2935e-16	2.2787e-16
5401.8322	2.2805e-16	2.2720e-16
5402.0322	2.2675e-16	2.2661e-16
5402.2322	2.2545e-16	2.2647e-16
5403.2331	2.2416e-16	2.2597e-16
5403.6330	2.2288e-16	2.2569e-16
5403.8330	2.2156e-16	2.2478e-16
5404.0330	2.2024e-16	2.2473e-16
5404.2330	2.1896e-16	2.2375e-16
5404.8329	2.1765e-16	2.2310e-16
5405.2329	2.1635e-16	2.2262e-16
5405.4329	2.1502e-16	2.2221e-16
5405.8329	2.1371e-16	2.2184e-16
5406.0328	2.1241e-16	2.2157e-16
5406.4328	2.1112e-16	2.2138e-16
5406.6328	2.0980e-16	2.2130e-16
5407.0328	2.0850e-16	2.2124e-16
5407.2327	2.0718e-16	2.2121e-16
5408.2327	2.0586e-16	2.2120e-16
5408.4336	2.0455e-16	2.2123e-16
5408.6336	2.0324e-16	2.2124e-16
5408.8336	2.0193e-16	2.1839e-16
5409.4336	2.0061e-16	2.1601e-16
5409.6335	1.9930e-16	2.1113e-16
5410.2335	1.9799e-16	2.1056e-16
5410.4335	1.9668e-16	2.0944e-16
5410.6335	1.9537e-16	2.0923e-16
5410.8335	1.9406e-16	2.0921e-16
5411.2334	1.9275e-16	2.0823e-16
5411.4334	1.9144e-16	2.0809e-16
5411.6334	1.9013e-16	2.0809e-16
5412.6333	1.8882e-16	2.0302e-16
5413.0333	1.8752e-16	2.0288e-16
5413.2333	1.8621e-16	2.0103e-16
5414.0342	1.8491e-16	2.0068e-16
5414.6341	1.8361e-16	2.0012e-16
5415.6341	1.8230e-16	1.9948e-16
5416.0340	1.8100e-16	1.9946e-16
5416.8340	1.7968e-16	1.9519e-16
5417.0339	1.7835e-16	1.9422e-16
5417.2339	1.7707e-16	1.9282e-16
5417.4339	1.7579e-16	1.9234e-16
5417.6339	1.7448e-16	1.9042e-16
5417.8339	1.7317e-16	1.8355e-16
5418.2338	1.7186e-16	1.8259e-16
5418.4338	1.7054e-16	1.8212e-16
5418.8338	1.6923e-16	1.7247e-16
5419.0348	1.6792e-16	1.7226e-16
5419.2348	1.6661e-16	1.7195e-16
5419.8347	1.6530e-16	1.7193e-16
5420.0347	1.6399e-16	1.7167e-16
5420.2347	1.6268e-16	1.7040e-16
5421.0346	1.6137e-16	1.6967e-16
5421.2346	1.6005e-16	1.6376e-16
5421.4346	1.5872e-16	1.6030e-16
5421.8346	1.5739e-16	1.6031e-16
5422.2345	1.5613e-16	1.5495e-16
5422.6345	1.5483e-16	1.5450e-16
5423.2344	1.5353e-16	1.5440e-16
5423.4344	1.5220e-16	1.5345e-16
5423.6344	1.5090e-16	1.5344e-16
5423.8344	1.4959e-16	1.3563e-16
5424.0344	1.4827e-16	1.3532e-16
5424.4353	1.4698e-16	1.3429e-16
5424.6353	1.4566e-16	1.2917e-16
5424.8353	1.4435e-16	1.2907e-16
5425.0353	1.4304e-16	1.2881e-16
5425.4353	1.4174e-16	1.1812e-16
5425.6352	1.4046e-16	1.1133e-16
5425.8352	1.3916e-16	1.1110e-16
5426.2352	1.3784e-16	1.1094e-16
5426.4352	1.3656e-16	1.0833e-16
5426.6352	1.3529e-16	1.0548e-16
5427.0351	1.3399e-16	1.0166e-16
5427.2351	1.3271e-16	1.0071e-16
5427.4351	1.3142e-16	1.0045e-16
5427.8351	1.3013e-16	1.0043e-16
5428.4350	1.2884e-16	1.0032e-16
5428.6350	1.2757e-16	1.0006e-16
5428.8350	1.2629e-16	9.6294e-17
5429.0350	1.2500e-16	9.3880e-17
5429.2350	1.2374e-16	9.3334e-17
5429.8359	1.2246e-16	9.3295e-17
5430.0359	1.2119e-16	9.1597e-17
5430.2359	1.1992e-16	9.0655e-17
5430.6358	1.1866e-16	9.0671e-17
5431.6358	1.1741e-16	8.9787e-17
5431.8357	1.1616e-16	8.4915e-17
5432.0357	1.1491e-16	8.4330e-17
5432.2357	1.1367e-16	8.2622e-17
5432.6357	1.1244e-16	8.2178e-17
5433.4356	1.1121e-16	8.1258e-17
5433.6356	1.0998e-16	8.1328e-17
5435.0365	1.0876e-16	8.1213e-17
5435.2365	1.0754e-16	8.0299e-17
5435.4365	1.0630e-16	8.0336e-17
5435.8364	1.0506e-16	8.0024e-17
5436.0364	1.0384e-16	7.5084e-17
5436.2364	1.0263e-16	7.5136e-17
5436.4364	1.0144e-16	7.5083e-17
5436.6364	1.0023e-16	7.5153e-17
5437.0363	9.9008e-17	7.4483e-17
5437.2363	9.7798e-17	7.3715e-17
5438.2362	9.6612e-17	7.1669e-17
5438.6362	9.5427e-17	7.1362e-17
5438.8362	9.4222e-17	7.0077e-17
5439.2361	9.3057e-17	7.0231e-17
5439.8361	9.1876e-17	6.9192e-17
5440.0361	9.0677e-17	6.8085e-17
5440.6370	8.9503e-17	6.7363e-17
5441.4370	8.8347e-17	6.7084e-17
5441.6369	8.7162e-17	6.7144e-17
5442.2369	8.5998e-17	6.7174e-17
5442.4369	8.4871e-17	6.6980e-17
5442.8369	8.3718e-17	6.6675e-17
5443.4368	8.2562e-17	6.6575e-17
5443.6368	8.1396e-17	6.1740e-17
5443.8368	8.0259e-17	6.1800e-17
5444.4367	7.9109e-17	6.1989e-17
5444.6367	7.7956e-17	5.8485e-17
5444.8367	7.6829e-17	5.8650e-17
5445.0367	7.5737e-17	5.8357e-17
5445.8376	7.4629e-17	5.8596e-17
5446.2376	7.3508e-17	5.8325e-17
5446.6375	7.2387e-17	5.7561e-17
5447.0375	7.1271e-17	5.4912e-17
5447.6375	7.0156e-17	5.5094e-17
5448.2374	6.9066e-17	5.4932e-17
5448.6374	6.7972e-17	5.5001e-17
5448.8374	6.6881e-17	5.4523e-17
5449.2373	6.5782e-17	5.4233e-17
5449.4373	6.4701e-17	5.4278e-17
5450.0373	6.3644e-17	5.3108e-17
5450.6382	6.2574e-17	5.2963e-17
5450.8382	6.1503e-17	5.1905e-17
5451.4382	6.0435e-17	5.2090e-17
5451.6381	5.9363e-17	5.2337e-17
5451.8381	5.8315e-17	5.2466e-17
5452.4381	5.7289e-17	5.1507e-17
5452.8380	5.6260e-17	5.1683e-17
5453.0380	5.5232e-17	5.0728e-17
5453.2380	5.4204e-17	5.0653e-17
5453.4380	5.3181e-17	5.0688e-17
5453.6380	5.2186e-17	4.9938e-17
5454.0379	5.1165e-17	4.9827e-17
5454.2379	5.0165e-17	4.9573e-17
5454.4379	4.9174e-17	4.9788e-17
5454.6379	4.8177e-17	4.9901e-17
5454.8379	4.7192e-17	5.0091e-17
5455.6378	4.6226e-17	5.0246e-17
5455.8378	4.5244e-17	5.0236e-17
5456.0388	4.4280e-17	5.0424e-17
5456.2388	4.3299e-17	5.0584e-17
5456.4387	4.2338e-17	5.0752e-17
5457.0387	4.1370e-17	5.0618e-17
5457.2387	4.0410e-17	5.0725e-17
5457.4387	3.9459e-17	5.0926e-17
5457.6386	3.8515e-17	5.1053e-17
5457.8386	3.7581e-17	5.1202e-17
5458.0386	3.6654e-17	5.1293e-17
5458.2386	3.5736e-17	5.1291e-17
5458.4386	3.4826e-17	5.1299e-17
5458.6386	3.3924e-17	5.1380e-17
5458.8386	3.3030e-17	5.1321e-17
5459.0385	3.2145e-17	5.1166e-17
5459.2385	3.1267e-17	5.1072e-17
5459.6385	3.0388e-17	5.0843e-17
5459.8385	2.9508e-17	5.0589e-17
5460.0385	2.8638e-17	5.0591e-17
5460.2384	2.7783e-17	5.0296e-17
5460.6384	2.6935e-17	4.9686e-17
5460.8384	2.6096e-17	4.9371e-17
5461.0384	2.5266e-17	4.9269e-17
5461.2394	2.4427e-17	4.9124e-17
5461.4393	2.3591e-17	4.9105e-17
5461.6393	2.2785e-17	4.8794e-17
5461.8393	2.1972e-17	4.8464e-17
5462.0393	2.1183e-17	4.7736e-17
5462.4393	2.0390e-17	4.7219e-17
5462.6392	1.9591e-17	4.6665e-17
5462.8392	1.8810e-17	4.6597e-17
5463.0392	1.8029e-17	4.6615e-17
5463.2392	1.7252e-17	4.6699e-17
5463.6392	1.6496e-17	4.6683e-17
5463.8391	1.5743e-17	4.6762e-17
5464.0391	1.5007e-17	4.6065e-17
5464.2391	1.4258e-17	4.5878e-17
5464.4391	1.3515e-17	4.5531e-17
5464.6391	1.2789e-17	4.5540e-17
5464.8391	1.2096e-17	4.5353e-17
5465.0390	1.1402e-17	4.5344e-17
5465.2390	1.0690e-17	4.5340e-17
5465.4390	9.9906e-18	4.4666e-17
5465.6390	9.2866e-18	4.4594e-17
5465.8390	8.5943e-18	4.4642e-17
5466.0390	7.9204e-18	4.4582e-17
5466.2389	7.2416e-18	4.4498e-17
5466.4389	6.5773e-18	4.4074e-17
5466.6399	5.9224e-18	4.3623e-17
5466.8399	5.2711e-18	4.3203e-17
5467.0399	4.6250e-18	4.3169e-17
5467.2399	3.9988e-18	4.2935e-17
5467.6398	3.3905e-18	4.2271e-17
5467.8398	2.7902e-18	4.2078e-17
5468.0398	2.1896e-18	4.1665e-17
5468.2398	1.5876e-18	4.1582e-17
5468.6398	9.7846e-19	4.1103e-17
5468.8397	3.9304e-19	4.0780e-17
5469.0397	-1.8143e-19	4.0386e-17
5469.2397	-7.5678e-19	4.0177e-17
5469.4397	-1.3300e-18	3.9798e-17
5470.0396	-1.8852e-18	3.9725e-17
5470.4396	-2.4302e-18	3.9436e-17
5470.6396	-2.9610e-18	3.9090e-17
5470.8396	-3.4834e-18	3.8737e-17
5471.0396	-3.9984e-18	3.8303e-17
5471.2395	-4.5067e-18	3.7892e-17
5471.4395	-5.0198e-18	3.7438e-17
5472.0405	-5.5118e-18	3.6954e-17
5472.2405	-5.9992e-18	3.6458e-17
5472.4404	-6.4549e-18	3.5965e-17
5472.6404	-6.9162e-18	3.5462e-17
5472.8404	-7.3750e-18	3.4993e-17
5473.0404	-7.8336e-18	3.4511e-17
5473.2404	-8.2774e-18	3.4045e-17
5473.4404	-8.7132e-18	3.3597e-17
5473.8403	-9.1435e-18	3.3194e-17
5474.0403	-9.5520e-18	3.2772e-17
5474.2403	-9.9479e-18	3.2381e-17
5474.6403	-1.0337e-17	3.2006e-17
5474.8403	-1.0715e-17	3.1597e-17
5475.0402	-1.1087e-17	3.1207e-17
5475.2402	-1.1451e-17	3.0867e-17
5475.6402	-1.1816e-17	3.0463e-17
5475.8402	-1.2174e-17	3.0069e-17
5476.0402	-1.2529e-17	2.9669e-17
5476.2401	-1.2870e-17	2.9282e-17
5476.6401	-1.3188e-17	2.8903e-17
5476.8401	-1.3510e-17	2.8514e-17
5477.0401	-1.3825e-17	2.8142e-17
5477.2411	-1.4130e-17	2.7744e-17
5477.8410	-1.4418e-17	2.7349e-17
5478.2410	-1.4700e-17	2.6952e-17
5478.4410	-1.5000e-17	2.6554e-17
5478.8409	-1.5267e-17	2.6147e-17
5479.0409	-1.5529e-17	2.5745e-17
5479.2409	-1.5790e-17	2.5354e-17
5479.4409	-1.6046e-17	2.4968e-17
5479.6409	-1.6287e-17	2.4592e-17
5479.8408	-1.6521e-17	2.4226e-17
5480.0408	-1.6745e-17	2.3887e-17
5480.2408	-1.6944e-17	2.3538e-17
5480.4408	-1.7147e-17	2.3207e-17
5480.6408	-1.7337e-17	2.2892e-17
5480.8408	-1.7509e-17	2.2566e-17
5481.2407	-1.7682e-17	2.2256e-17
5481.4407	-1.7843e-17	2.1966e-17
5481.6407	-1.8002e-17	2.1597e-17
5481.8407	-1.8142e-17	2.1178e-17
5482.2406	-1.8284e-17	2.0793e-17
5482.4416	-1.8431e-17	2.0313e-17
5482.6416	-1.8558e-17	2.0011e-17
5483.0416	-1.8680e-17	1.9608e-17
5483.2416	-1.8795e-17	1.9416e-17
5483.4416	-1.8898e-17	1.9230e-17
5483.6415	-1.8992e-17	1.9150e-17
5483.8415	-1.9080e-17	1.9041e-17
5484.0415	-1.9154e-17	1.8936e-17
5484.2415	-1.9217e-17	1.8861e-17
5484.4415	-1.9282e-17	1.8691e-17
5484.6415	-1.9340e-17	1.8623e-17
5484.8414	-1.9375e-17	1.8400e-17
5485.0414	-1.9388e-17	1.8342e-17
5485.4414	-1.9403e-17	1.8340e-17
5485.6414	-1.9406e-17	1.8137e-17
5485.8414	-1.9410e-17	1.7924e-17
5486.0413	-1.9397e-17	1.7919e-17
5486.2413	-1.9380e-17	1.7756e-17
5486.4413	-1.9355e-17	1.7743e-17
5486.6413	-1.9326e-17	1.7517e-17
5486.8413	-1.9293e-17	1.7500e-17
5487.0413	-1.9236e-17	1.7264e-17
5487.2412	-1.9178e-17	1.7270e-17
5487.4412	-1.9117e-17	1.7389e-17
5487.6412	-1.9037e-17	1.7419e-17
5488.2422	-1.8945e-17	1.7425e-17
5488.4421	-1.8846e-17	1.7421e-17
5488.6421	-1.8747e-17	1.7419e-17
5488.8421	-1.8644e-17	1.7239e-17
5489.6420	-1.8533e-17	1.7148e-17
5489.8420	-1.8401e-17	1.7199e-17
5490.0420	-1.8280e-17	1.7159e-17
5490.4420	-1.8136e-17	1.7118e-17
5490.6420	-1.7975e-17	1.7092e-17
5490.8420	-1.7808e-17	1.7195e-17
5491.2419	-1.7634e-17	1.7239e-17
5491.6419	-1.7448e-17	1.7329e-17
5491.8419	-1.7265e-17	1.7376e-17
5492.0419	-1.7075e-17	1.7398e-17
5492.2418	-1.6876e-17	1.7453e-17
5492.4418	-1.6674e-17	1.7466e-17
5492.6418	-1.6444e-17	1.7452e-17
5492.8418	-1.6215e-17	1.7502e-17
5493.0428	-1.5965e-17	1.7501e-17
5493.2428	-1.5712e-17	1.7540e-17
5493.6427	-1.5442e-17	1.7568e-17
5493.8427	-1.5164e-17	1.7555e-17
5494.0427	-1.4886e-17	1.7543e-17
5494.4427	-1.4609e-17	1.7534e-17
5494.6426	-1.4319e-17	1.7640e-17
5494.8426	-1.4011e-17	1.7754e-17
5495.0426	-1.3699e-17	1.7840e-17
5495.2426	-1.3394e-17	1.7966e-17
5495.6426	-1.3064e-17	1.8033e-17
5495.8425	-1.2734e-17	1.8136e-17
5496.0425	-1.2387e-17	1.8180e-17
5496.4425	-1.2026e-17	1.8236e-17
5496.6425	-1.1662e-17	1.8302e-17
5496.8425	-1.1298e-17	1.8391e-17
5497.0424	-1.0922e-17	1.8430e-17
5497.2424	-1.0539e-17	1.8435e-17
5497.4424	-1.0145e-17	1.8509e-17
5497.6424	-9.7408e-18	1.8564e-17
5497.8424	-9.3367e-18	1.8636e-17
5498.0424	-8.9166e-18	1.8686e-17
5498.2423	-8.4820e-18	1.8782e-17
5498.4433	-8.0418e-18	1.8854e-17
5498.6433	-7.5922e-18	1.8867e-17
5498.8433	-7.1337e-18	1.8941e-17
5499.0433	-6.6843e-18	1.9040e-17
5499.2433	-6.2218e-18	1.9144e-17
5499.4433	-5.7417e-18	1.9246e-17
5499.6432	-5.2639e-18	1.9355e-17
5499.8432	-4.7748e-18	1.9460e-17
5500.0432	-4.2767e-18	1.9551e-17
5500.2432	-4.1393e-18	1.9654e-17
5500.4432	-4.7678e-18	1.9749e-17
5500.6432	-4.3377e-18	1.9852e-17
5500.8431	-4.2946e-18	1.9949e-17
5501.0431	-5.1567e-18	2.0054e-17
5501.2431	-4.6120e-18	2.0152e-17
5501.4431	-4.2913e-18	2.0243e-17
5501.6431	-3.6621e-18	2.0284e-17
5501.8431	-2.6361e-18	2.0324e-17
5502.0430	-3.3835e-18	2.0371e-17
5502.2430	-3.1961e-18	2.0415e-17
5502.4430	-2.2153e-18	2.0437e-17
5502.6430	-1.5596e-18	2.0480e-17
5502.8430	-5.5222e-19	2.0492e-17
5503.0430	-5.3837e-19	2.0503e-17
5503.2429	-1.2508e-18	2.0532e-17
5503.4429	-1.2807e-18	2.0559e-17
5504.0439	-7.0518e-19	2.0534e-17
5504.2439	7.3239e-20	2.0516e-17
5504.4438	3.2729e-19	2.0538e-17
5504.8438	1.1058e-18	2.0481e-17
5505.0438	2.1589e-18	2.0487e-17
5505.2438	1.9462e-18	2.0522e-17
5505.4438	2.4590e-18	2.0465e-17
5505.6437	3.2115e-18	2.0488e-17
5505.8437	3.8442e-18	2.0373e-17
5506.0437	3.0128e-18	2.0331e-17
5506.2437	2.2136e-18	2.0241e-17
5506.4437	1.2059e-18	2.0231e-17
5506.6437	1.1884e-18	2.0177e-17
5506.8437	2.1658e-18	2.0084e-17
5507.0436	2.7940e-18	2.0082e-17
5507.2436	3.5165e-18	1.9990e-17
5507.4436	3.4084e-18	1.9994e-17
5507.6436	4.3479e-18	1.9996e-17
5508.0436	4.5273e-18	1.9979e-17
5508.2435	5.4388e-18	1.9933e-17
5508.4435	5.5460e-18	1.9857e-17
5509.0445	6.6228e-18	1.9843e-17
5509.4444	7.2762e-18	1.9858e-17
5509.6444	8.4042e-18	1.9805e-17
5509.8444	9.4342e-18	1.9801e-17
5510.2444	1.0405e-17	1.9814e-17
5510.4444	1.1359e-17	1.9809e-17
5511.0443	1.2309e-17	1.9697e-17
5511.2443	1.3226e-17	1.9677e-17
5511.4443	1.4095e-17	1.9654e-17
5511.6443	1.4899e-17	1.9604e-17
5511.8442	1.5684e-17	1.9559e-17
5512.0442	1.6461e-17	1.9574e-17
5512.6442	1.7203e-17	1.9580e-17
5512.8442	1.7853e-17	1.9390e-17
5513.0441	1.8451e-17	1.9332e-17
5513.6441	1.8024e-17	1.9225e-17
5513.8441	1.7666e-17	1.9042e-17
5514.0441	1.6886e-17	1.8970e-17
5514.2450	1.7934e-17	1.8827e-17
5514.4450	1.7867e-17	1.8741e-17
5514.6450	1.8150e-17	1.8534e-17
5514.8450	1.8814e-17	1.8369e-17
5515.0450	2.0007e-17	1.8283e-17
5515.2450	2.0830e-17	1.8165e-17
5515.4450	2.1485e-17	1.8068e-17
5515.8449	2.0720e-17	1.7960e-17
5516.0449	2.1055e-17	1.7787e-17
5516.2449	2.0805e-17	1.7722e-17
5516.4449	2.1010e-17	1.7578e-17
5516.6449	2.2026e-17	1.7478e-17
5516.8448	2.3081e-17	1.7392e-17
5517.0448	2.3758e-17	1.7256e-17
5517.2448	2.3114e-17	1.6939e-17
5517.4448	2.3102e-17	1.6830e-17
5517.8448	2.2963e-17	1.6841e-17
5518.2447	2.3918e-17	1.6683e-17
5518.4447	2.3661e-17	1.6606e-17
5518.6447	2.2687e-17	1.6507e-17
5518.8447	2.3772e-17	1.6412e-17
5519.0447	2.4690e-17	1.6318e-17
5519.2446	2.3453e-17	1.6272e-17
5519.4446	2.3687e-17	1.6157e-17
5519.6456	2.3882e-17	1.6091e-17
5520.2456	2.4299e-17	1.5953e-17
5520.4455	2.4499e-17	1.5815e-17
5520.6455	2.4346e-17	1.5676e-17
5520.8455	2.4338e-17	1.5537e-17
5521.2455	2.3457e-17	1.5398e-17
5521.4455	2.2873e-17	1.5277e-17
5521.6454	2.3277e-17	1.5149e-17
5521.8454	2.2452e-17	1.5066e-17
5522.0454	2.2477e-17	1.4934e-17
5522.2454	2.3023e-17	1.4795e-17
5522.4454	2.3926e-17	1.4669e-17
5523.0453	2.4391e-17	1.4531e-17
5523.2453	2.2612e-17	1.4428e-17
5523.4453	2.2674e-17	1.4393e-17
5523.8453	2.3512e-17	1.4340e-17
5524.0453	2.2756e-17	1.4180e-17
5524.2452	2.3234e-17	1.4153e-17
5524.4452	2.3824e-17	1.4048e-17
5524.6452	2.2608e-17	1.4013e-17
5524.8462	2.1713e-17	1.3884e-17
5525.0462	2.1748e-17	1.3629e-17
5525.4461	2.2212e-17	1.3553e-17
5525.6461	2.1745e-17	1.3472e-17
5525.8461	2.1252e-17	1.3413e-17
5526.2461	2.0631e-17	1.3376e-17
5526.4461	2.1272e-17	1.3193e-17
5526.8460	2.1739e-17	1.3044e-17
5527.0460	2.2076e-17	1.2991e-17
5527.2460	2.2136e-17	1.2974e-17
5527.4460	2.2115e-17	1.2936e-17
5527.6460	2.1497e-17	1.2592e-17
5527.8459	2.1028e-17	1.2428e-17
5528.2459	2.0879e-17	1.2371e-17
5528.4459	2.1171e-17	1.2235e-17
5528.8459	2.0787e-17	1.2207e-17
5529.0458	2.1350e-17	1.2160e-17
5529.2458	2.1566e-17	1.1899e-17
5529.4458	2.1320e-17	1.1689e-17
5529.6458	2.0581e-17	1.1667e-17
5529.8458	2.0389e-17	1.1586e-17
5530.0458	1.9983e-17	1.1565e-17
5530.2468	1.9802e-17	1.1545e-17
5530.6467	1.9496e-17	1.1523e-17
5530.8467	1.9613e-17	1.1378e-17
5531.0467	1.9503e-17	1.1355e-17
5531.2467	1.9183e-17	1.1355e-17
5531.4467	1.9346e-17	1.1346e-17
5531.6466	1.9167e-17	1.1263e-17
