#wls	flux	flux_err
5337.6404	4.7325e-16	2.3570e-16
5337.8404	4.7178e-16	2.3570e-16
5340.4412	4.7030e-16	2.3570e-16
5340.6412	4.6882e-16	2.3570e-16
5340.8411	4.6732e-16	2.3570e-16
5341.0411	4.6584e-16	2.3570e-16
5341.2411	4.6431e-16	2.3570e-16
5341.8411	4.6275e-16	2.3570e-16
5342.2410	4.6119e-16	2.3570e-16
5344.0409	4.5960e-16	2.3570e-16
5344.2409	4.5801e-16	2.3570e-16
5344.4408	4.5642e-16	2.3570e-16
5344.6408	4.5481e-16	2.3570e-16
5344.8408	4.5324e-16	2.3570e-16
5345.4418	4.5162e-16	2.3570e-16
5346.2417	4.4999e-16	2.3570e-16
5348.0416	4.4836e-16	2.3570e-16
5348.4415	4.4673e-16	2.3570e-16
5349.4414	4.4506e-16	2.3570e-16
5349.6414	4.4344e-16	2.3570e-16
5350.2414	4.4180e-16	2.3570e-16
5350.4414	4.4017e-16	2.3570e-16
5350.6423	4.3854e-16	2.3570e-16
5351.8422	4.3685e-16	2.3570e-16
5352.6422	4.3515e-16	2.3570e-16
5355.4420	4.3344e-16	2.3570e-16
5357.8428	4.3174e-16	2.3570e-16
5359.6426	4.3001e-16	2.3570e-16
5359.8426	4.2826e-16	2.3570e-16
5360.6425	4.2655e-16	2.3570e-16
5360.8425	4.2479e-16	2.3570e-16
5362.8434	4.2301e-16	2.3570e-16
5363.0433	4.2125e-16	2.3570e-16
5363.2433	4.1946e-16	2.3570e-16
5363.6433	4.1768e-16	2.3570e-16
5363.8433	4.1586e-16	2.3570e-16
5364.2432	4.1405e-16	2.3570e-16
5365.4431	4.1223e-16	2.3570e-16
5365.6431	4.1040e-16	2.3570e-16
5367.8439	4.0857e-16	2.3570e-16
5368.0439	4.0673e-16	2.3570e-16
5368.8439	4.0495e-16	2.3570e-16
5370.2438	4.0309e-16	2.3570e-16
5371.4437	4.0127e-16	2.3570e-16
5371.6446	3.9944e-16	2.3570e-16
5371.8446	3.9757e-16	2.3570e-16
5372.4446	3.9574e-16	2.3570e-16
5372.6446	3.9388e-16	2.3570e-16
5372.8445	3.9199e-16	2.3570e-16
5373.0445	3.9012e-16	2.3570e-16
5373.4445	3.8823e-16	2.3570e-16
5374.0444	3.8632e-16	2.3570e-16
5375.4443	3.8440e-16	2.3570e-16
5376.0443	3.8250e-16	2.3570e-16
5376.6442	3.8060e-16	2.3570e-16
5376.8452	3.7869e-16	2.3570e-16
5377.0452	3.7677e-16	2.3570e-16
5378.0451	3.7484e-16	2.3570e-16
5378.2451	3.7290e-16	2.3570e-16
5378.4451	3.7096e-16	2.3570e-16
5379.0450	3.6901e-16	2.3570e-16
5379.2450	3.6705e-16	2.3570e-16
5379.8450	3.6509e-16	2.3570e-16
5380.0450	3.6313e-16	2.3570e-16
5380.4449	3.6116e-16	2.3570e-16
5381.6448	3.5918e-16	2.3570e-16
5381.8448	3.5720e-16	2.3570e-16
5384.6456	3.5522e-16	2.3570e-16
5384.8456	3.5324e-16	2.3570e-16
5385.0455	3.5125e-16	2.3570e-16
5385.2455	3.4926e-16	2.3570e-16
5386.0455	3.4726e-16	2.3570e-16
5386.4454	3.4526e-16	2.3570e-16
5386.6454	3.4325e-16	2.3570e-16
5386.8454	3.4125e-16	2.3570e-16
5387.2464	3.3923e-16	2.3570e-16
5387.4464	3.3722e-16	2.3570e-16
5388.2463	3.3520e-16	2.3570e-16
5388.8462	3.3318e-16	2.3570e-16
5389.0462	3.3115e-16	2.3570e-16
5389.4462	3.2912e-16	2.3570e-16
5389.6462	3.2709e-16	2.3570e-16
5390.2461	3.2506e-16	2.3570e-16
5390.6461	3.2302e-16	2.3570e-16
5390.8461	3.2099e-16	2.3570e-16
5391.2460	3.1895e-16	2.3570e-16
5391.8460	3.1691e-16	2.3570e-16
5392.6469	3.1487e-16	2.3570e-16
5393.4469	3.1282e-16	2.3570e-16
5393.6468	3.1078e-16	2.3570e-16
5394.4468	3.0873e-16	2.3570e-16
5394.6468	3.0669e-16	2.3570e-16
5395.2467	3.0464e-16	2.3570e-16
5395.6467	3.0259e-16	2.3570e-16
5395.8467	3.0054e-16	2.3570e-16
5396.0467	2.9849e-16	2.3570e-16
5396.4466	2.9644e-16	2.3570e-16
5397.4465	2.9439e-16	2.3570e-16
5397.6465	2.9233e-16	2.3570e-16
5398.2475	2.9028e-16	2.3570e-16
5398.6474	2.8822e-16	2.3570e-16
5399.8473	2.8617e-16	2.3570e-16
5400.2473	2.8412e-16	2.3570e-16
5400.4473	2.8206e-16	2.3570e-16
5400.6473	2.8001e-16	2.3570e-16
5401.2472	2.7795e-16	2.3570e-16
5401.4472	2.7590e-16	2.3572e-16
5401.6472	2.7387e-16	2.3500e-16
5402.0472	2.7181e-16	2.3340e-16
5402.2471	2.6979e-16	2.3274e-16
5403.2481	2.6775e-16	2.3272e-16
5403.4481	2.6570e-16	2.3240e-16
5403.6480	2.6366e-16	2.3078e-16
5404.2480	2.6164e-16	2.3041e-16
5404.4480	2.5960e-16	2.2925e-16
5404.6480	2.5755e-16	2.2022e-16
5405.6479	2.5551e-16	2.1568e-16
5405.8479	2.5347e-16	1.8127e-16
5406.0478	2.5143e-16	1.7723e-16
5406.2478	2.4940e-16	1.7707e-16
5406.6478	2.4739e-16	1.7541e-16
5406.8478	2.4539e-16	1.7542e-16
5407.4477	2.4334e-16	1.7459e-16
5407.6477	2.4129e-16	1.7406e-16
5407.8477	2.3924e-16	1.7171e-16
5408.0477	2.3721e-16	1.6934e-16
5409.4486	2.3518e-16	1.6920e-16
5409.6485	2.3315e-16	1.6917e-16
5409.8485	2.3111e-16	1.6901e-16
5410.0485	2.2907e-16	1.6835e-16
5410.2485	2.2707e-16	1.6826e-16
5410.4485	2.2508e-16	1.6621e-16
5411.0484	2.2306e-16	1.6054e-16
5411.8484	2.2105e-16	1.4556e-16
5412.2483	2.1906e-16	1.4311e-16
5412.4483	2.1705e-16	1.4198e-16
5412.6483	2.1506e-16	1.4084e-16
5412.8483	2.1304e-16	1.4027e-16
5413.2483	2.1106e-16	1.3459e-16
5413.8492	2.0905e-16	1.2574e-16
5414.0492	2.0705e-16	1.2533e-16
5414.4492	2.0508e-16	1.2537e-16
5414.6491	2.0311e-16	1.2540e-16
5415.4491	2.0112e-16	1.2540e-16
5416.0490	1.9916e-16	1.2540e-16
5416.2490	1.9716e-16	1.2539e-16
5417.4489	1.9518e-16	1.2538e-16
5418.8498	1.9322e-16	1.2532e-16
5419.4498	1.9126e-16	1.2531e-16
5419.6497	1.8928e-16	1.2538e-16
5419.8497	1.8731e-16	1.2540e-16
5420.0497	1.8534e-16	1.2541e-16
5420.2497	1.8338e-16	1.2540e-16
5421.4496	1.8142e-16	1.2543e-16
5421.6496	1.7946e-16	1.2547e-16
5421.8496	1.7751e-16	1.2547e-16
5422.0495	1.7557e-16	1.2548e-16
5422.2495	1.7363e-16	1.2546e-16
5422.4495	1.7170e-16	1.2539e-16
5423.0495	1.6977e-16	1.2358e-16
5423.2494	1.6784e-16	1.2285e-16
5423.4494	1.6592e-16	1.2273e-16
5423.6494	1.6401e-16	1.2254e-16
5424.0504	1.6214e-16	1.2255e-16
5424.2504	1.6025e-16	1.2233e-16
5424.6503	1.5837e-16	1.2187e-16
5425.4503	1.5648e-16	1.2169e-16
5425.6502	1.5461e-16	1.2084e-16
5425.8502	1.5273e-16	1.1409e-16
5426.0502	1.5087e-16	1.0729e-16
5426.6502	1.4900e-16	1.0083e-16
5426.8501	1.4716e-16	9.6487e-17
5427.0501	1.4531e-16	9.2196e-17
5427.6501	1.4350e-16	9.1549e-17
5427.8501	1.4168e-16	9.1043e-17
5428.0501	1.3985e-16	9.0706e-17
5428.6500	1.3806e-16	9.0379e-17
5429.4509	1.3626e-16	9.0377e-17
5429.6509	1.3445e-16	9.0510e-17
5431.6508	1.3269e-16	9.0636e-17
5431.8507	1.3090e-16	8.9623e-17
5432.2507	1.2911e-16	8.8343e-17
5432.4507	1.2732e-16	8.7405e-17
5433.2506	1.2557e-16	8.7036e-17
5434.0506	1.2382e-16	8.6997e-17
5434.2515	1.2207e-16	8.7000e-17
5434.8515	1.2032e-16	8.7082e-17
5435.0515	1.1859e-16	8.7277e-17
5435.4515	1.1685e-16	8.7277e-17
5435.6514	1.1512e-16	8.7087e-17
5435.8514	1.1343e-16	8.6794e-17
5437.0513	1.1172e-16	8.6253e-17
5437.2513	1.1002e-16	8.5051e-17
5437.4513	1.0833e-16	8.2317e-17
5438.2512	1.0664e-16	8.2327e-17
5438.4512	1.0496e-16	8.1682e-17
5438.8512	1.0329e-16	8.1701e-17
5439.0512	1.0163e-16	8.1627e-17
5439.2511	9.9991e-17	8.1188e-17
5439.4521	9.8365e-17	7.7692e-17
5439.8521	9.6734e-17	7.6889e-17
5441.0520	9.5114e-17	7.5878e-17
5441.2520	9.3495e-17	7.2963e-17
5441.4520	9.1887e-17	7.0999e-17
5441.6519	9.0289e-17	7.1145e-17
5441.8519	8.8711e-17	7.1291e-17
5442.2519	8.7131e-17	7.1411e-17
5442.4519	8.5573e-17	7.0638e-17
5442.6519	8.4013e-17	7.0650e-17
5442.8518	8.2464e-17	7.0719e-17
5443.2518	8.0941e-17	6.8962e-17
5443.4518	7.9406e-17	6.9080e-17
5443.6518	7.7890e-17	6.8199e-17
5443.8518	7.6382e-17	6.7285e-17
5444.0518	7.4887e-17	6.6182e-17
5444.2517	7.3399e-17	6.5832e-17
5445.0527	7.1935e-17	6.5767e-17
5445.6526	7.0461e-17	6.1037e-17
5445.8526	6.9013e-17	5.6025e-17
5446.0526	6.7578e-17	5.5364e-17
5446.4526	6.6136e-17	5.5342e-17
5446.6525	6.4704e-17	5.5148e-17
5446.8525	6.3302e-17	5.5109e-17
5447.2525	6.1889e-17	5.4474e-17
5447.4525	6.0487e-17	5.3890e-17
5447.8524	5.9093e-17	5.3267e-17
5449.2523	5.7716e-17	5.2732e-17
5449.4523	5.6372e-17	5.2298e-17
5449.8523	5.5026e-17	5.1915e-17
5450.0533	5.3681e-17	5.1699e-17
5450.6532	5.2342e-17	5.1537e-17
5451.2532	5.1024e-17	5.1358e-17
5451.6531	4.9709e-17	5.1488e-17
5451.8531	4.8408e-17	5.1614e-17
5452.0531	4.7115e-17	5.1685e-17
5452.4531	4.5848e-17	5.1873e-17
5452.6531	4.4585e-17	5.2211e-17
5452.8530	4.3339e-17	5.2336e-17
5453.0530	4.2119e-17	5.2524e-17
5453.2530	4.0908e-17	5.2584e-17
5453.6530	3.9694e-17	5.2825e-17
5453.8530	3.8483e-17	5.2116e-17
5454.0529	3.7290e-17	5.2188e-17
5455.2538	3.6119e-17	5.1504e-17
5455.4538	3.4941e-17	5.1458e-17
5456.0538	3.3773e-17	5.0391e-17
5456.2538	3.2620e-17	5.0509e-17
5456.6537	3.1480e-17	5.0589e-17
5456.8537	3.0357e-17	4.9502e-17
5457.8536	2.9242e-17	4.9292e-17
5458.0536	2.8135e-17	4.8663e-17
5458.2536	2.7051e-17	4.8599e-17
5459.2535	2.5971e-17	4.7727e-17
5459.4535	2.4899e-17	4.7744e-17
5459.6535	2.3847e-17	4.7739e-17
5459.8535	2.2809e-17	4.7817e-17
5460.0535	2.1782e-17	4.7445e-17
5460.4544	2.0779e-17	4.7061e-17
5461.2544	1.9774e-17	4.6284e-17
5461.4543	1.8797e-17	4.6344e-17
5462.2543	1.7828e-17	4.6355e-17
5462.4543	1.6868e-17	4.6331e-17
5462.6542	1.5920e-17	4.6318e-17
5462.8542	1.4976e-17	4.6338e-17
5463.2542	1.4044e-17	4.6310e-17
5463.8541	1.3137e-17	4.6307e-17
5464.2541	1.2234e-17	4.6269e-17
5464.6541	1.1343e-17	4.6227e-17
5464.8541	1.0473e-17	4.6241e-17
5465.0540	9.6104e-18	4.6162e-17
5465.2540	8.7533e-18	4.6068e-17
5465.4540	7.9212e-18	4.5555e-17
5465.6550	7.0828e-18	4.5095e-17
5466.6549	6.2581e-18	4.4638e-17
5466.8549	5.4608e-18	4.4204e-17
5467.0549	4.6638e-18	4.3758e-17
5467.2549	3.8834e-18	4.3355e-17
5467.4549	3.1273e-18	4.3053e-17
5467.8548	2.3841e-18	4.2669e-17
5468.6548	1.6670e-18	4.2348e-17
5468.8547	9.3029e-19	4.2114e-17
5469.0547	2.1252e-19	4.1780e-17
5469.4547	-4.8650e-19	4.1480e-17
5469.6547	-1.1677e-18	4.1469e-17
5469.8547	-1.8333e-18	4.1451e-17
5470.0546	-2.4937e-18	4.0818e-17
5470.2546	-3.1354e-18	4.0303e-17
5471.0556	-3.7497e-18	3.9915e-17
5471.2555	-4.3676e-18	3.9605e-17
5471.6555	-4.9887e-18	3.9064e-17
5471.8555	-5.5816e-18	3.8833e-17
5472.0555	-6.1607e-18	3.8832e-17
5472.2555	-6.7407e-18	3.8711e-17
5472.4554	-7.2954e-18	3.8011e-17
5473.0554	-7.8451e-18	3.7310e-17
5473.4554	-8.3839e-18	3.6617e-17
5473.6553	-8.9065e-18	3.5953e-17
5474.0553	-9.4118e-18	3.5314e-17
5474.4553	-9.9083e-18	3.4686e-17
5474.6553	-1.0400e-17	3.4099e-17
5475.2552	-1.0873e-17	3.3518e-17
5475.4552	-1.1341e-17	3.2947e-17
5475.6552	-1.1793e-17	3.2398e-17
5475.8552	-1.2232e-17	3.1864e-17
5476.4561	-1.2658e-17	3.1339e-17
5477.2561	-1.3072e-17	3.0975e-17
5477.4560	-1.3473e-17	3.0290e-17
5477.8560	-1.3861e-17	2.9605e-17
5478.0560	-1.4237e-17	2.9278e-17
5478.2560	-1.4601e-17	2.8941e-17
5478.4560	-1.4952e-17	2.8569e-17
5478.6559	-1.5290e-17	2.8195e-17
5479.0559	-1.5617e-17	2.7758e-17
5479.2559	-1.5930e-17	2.7298e-17
5479.6559	-1.6231e-17	2.6823e-17
5479.8558	-1.6522e-17	2.6303e-17
5480.0558	-1.6790e-17	2.5744e-17
5480.4558	-1.7046e-17	2.5123e-17
5480.6558	-1.7290e-17	2.4532e-17
5480.8558	-1.7523e-17	2.3973e-17
5481.0557	-1.7743e-17	2.3445e-17
5482.0567	-1.7952e-17	2.2947e-17
5482.2566	-1.8149e-17	2.2555e-17
5483.0566	-1.8334e-17	2.2244e-17
5484.0565	-1.8508e-17	2.1964e-17
5484.2565	-1.8670e-17	2.1734e-17
5484.6565	-1.8820e-17	2.1548e-17
5484.8564	-1.8958e-17	2.1410e-17
5485.0564	-1.9086e-17	2.1301e-17
5485.2564	-1.9202e-17	2.0656e-17
5485.8564	-1.9308e-17	2.0149e-17
5486.2563	-1.9401e-17	1.9719e-17
5486.4573	-1.9483e-17	1.9689e-17
5487.2572	-1.9554e-17	1.9138e-17
5487.4572	-1.9613e-17	1.9050e-17
5487.6572	-1.9660e-17	1.8905e-17
5488.0572	-1.9697e-17	1.8734e-17
5488.2572	-1.9722e-17	1.8336e-17
5488.4571	-1.9736e-17	1.7960e-17
5489.0571	-1.9738e-17	1.7968e-17
5489.2571	-1.9730e-17	1.7709e-17
5489.8570	-1.9711e-17	1.7473e-17
5490.0570	-1.9680e-17	1.7297e-17
5490.2570	-1.9639e-17	1.7248e-17
5490.4570	-1.9587e-17	1.7158e-17
5491.4569	-1.9525e-17	1.7103e-17
5491.6579	-1.9443e-17	1.6814e-17
5492.0579	-1.9349e-17	1.6705e-17
5492.2578	-1.9248e-17	1.6675e-17
5492.4578	-1.9136e-17	1.6765e-17
5492.6578	-1.9004e-17	1.6470e-17
5492.8578	-1.8876e-17	1.6459e-17
5493.4577	-1.8728e-17	1.6492e-17
5494.0577	-1.8578e-17	1.6598e-17
5494.2577	-1.8411e-17	1.6507e-17
5494.4577	-1.8236e-17	1.6378e-17
5494.6576	-1.8054e-17	1.6443e-17
5494.8576	-1.7852e-17	1.6482e-17
5495.2576	-1.7645e-17	1.6346e-17
5495.4576	-1.7438e-17	1.6112e-17
5495.6576	-1.7212e-17	1.6230e-17
5496.4575	-1.6981e-17	1.6232e-17
5496.6575	-1.6738e-17	1.6062e-17
5496.8575	-1.6497e-17	1.5967e-17
5497.4584	-1.6233e-17	1.5965e-17
5497.6584	-1.5964e-17	1.6033e-17
5497.8584	-1.5675e-17	1.6053e-17
5498.0584	-1.5395e-17	1.6081e-17
5498.2583	-1.5103e-17	1.6086e-17
5498.6583	-1.4796e-17	1.6179e-17
5498.8583	-1.4489e-17	1.6195e-17
5499.0583	-1.4172e-17	1.6163e-17
5499.2583	-1.3846e-17	1.6126e-17
5499.4583	-1.3511e-17	1.6166e-17
5500.2582	-1.3157e-17	1.6234e-17
5500.6582	-1.2817e-17	1.6245e-17
5500.8581	-1.2464e-17	1.6324e-17
5501.2581	-1.2104e-17	1.6393e-17
5501.4581	-1.1738e-17	1.6504e-17
5502.4590	-1.1360e-17	1.6603e-17
5502.6590	-1.0977e-17	1.6757e-17
5502.8590	-1.0590e-17	1.6870e-17
5503.0590	-1.0185e-17	1.6997e-17
5503.2589	-9.7799e-18	1.7095e-17
5503.6589	-9.3647e-18	1.7211e-17
5503.8589	-8.9409e-18	1.7323e-17
5504.2589	-8.5093e-18	1.7393e-17
5504.4588	-8.0764e-18	1.7471e-17
5504.6588	-7.6245e-18	1.7567e-17
5505.0588	-7.1799e-18	1.7628e-17
5505.2588	-6.7317e-18	1.7703e-17
5505.8587	-6.2718e-18	1.7794e-17
5506.0587	-5.8151e-18	1.7899e-17
5506.8586	-5.3541e-18	1.7830e-17
5507.4596	-4.8887e-18	1.7933e-17
5507.6596	-4.4179e-18	1.8029e-17
5508.0596	-3.9331e-18	1.8131e-17
5508.2595	-3.4444e-18	1.8230e-17
5508.4595	-2.9502e-18	1.8217e-17
5508.6595	-2.4616e-18	1.8314e-17
5508.8595	-1.9700e-18	1.8411e-17
5509.6594	-1.4570e-18	1.8509e-17
5509.8594	-9.5689e-19	1.8583e-17
5510.4594	-4.5176e-19	1.8681e-17
5510.6593	6.2623e-20	1.8766e-17
5510.8593	5.7120e-19	1.8681e-17
5511.0593	1.0947e-18	1.8769e-17
5511.2593	1.6149e-18	1.8843e-17
5511.4593	2.1508e-18	1.8889e-17
5511.6593	2.6737e-18	1.8967e-17
5512.0592	3.1975e-18	1.9039e-17
5512.2592	3.7347e-18	1.9120e-17
5512.4592	4.2646e-18	1.9196e-17
5512.6602	4.7967e-18	1.9240e-17
5513.0601	5.3417e-18	1.9297e-17
5514.0601	5.8800e-18	1.9318e-17
5514.2600	6.4083e-18	1.9322e-17
5514.4600	6.9402e-18	1.9358e-17
5514.8600	7.4692e-18	1.9409e-17
5515.0600	8.0109e-18	1.9455e-17
5515.4600	8.5487e-18	1.9486e-17
5516.4599	9.0861e-18	1.9509e-17
5516.8598	9.6299e-18	1.9521e-17
5517.2598	1.0167e-17	1.9515e-17
5517.4598	1.0706e-17	1.9496e-17
5517.6598	1.0738e-17	1.9424e-17
5517.8608	1.0483e-17	1.9382e-17
5518.4607	1.0540e-17	1.9216e-17
5519.0607	1.1011e-17	1.9061e-17
5519.2606	1.1233e-17	1.8811e-17
5519.4606	1.0965e-17	1.8797e-17
5519.6606	1.1134e-17	1.8781e-17
5520.0606	1.0980e-17	1.8778e-17
5520.4605	9.4863e-18	1.8766e-17
5520.6605	8.5647e-18	1.8695e-17
5520.8605	5.2506e-18	1.8609e-17
5521.2605	4.3960e-18	1.8604e-17
5521.4605	4.4892e-18	1.8584e-17
5521.6604	5.6216e-18	1.8506e-17
5521.8604	6.0241e-18	1.8488e-17
5522.0604	5.8409e-18	1.8353e-17
5522.2604	5.7506e-18	1.8217e-17
5522.4604	7.0187e-18	1.8177e-17
5523.6613	8.3077e-18	1.8025e-17
5523.8613	8.9337e-18	1.7907e-17
5524.0613	9.4489e-18	1.7875e-17
5524.4612	9.6073e-18	1.7739e-17
5524.8612	1.0511e-17	1.7340e-17
5525.0612	1.1111e-17	1.7272e-17
5525.2612	1.2389e-17	1.7105e-17
5525.4611	1.1439e-17	1.7052e-17
5526.0611	9.6486e-18	1.6586e-17
5526.2611	1.0872e-17	1.6489e-17
5526.4611	1.1853e-17	1.6345e-17
5526.6610	1.2848e-17	1.6259e-17
5526.8610	1.2853e-17	1.6177e-17
5527.0610	1.1971e-17	1.5683e-17
5527.4610	1.0784e-17	1.5596e-17
5527.8609	1.1448e-17	1.5567e-17
5528.0609	1.1893e-17	1.5462e-17
5528.2619	1.2315e-17	1.5431e-17
5528.4619	1.2703e-17	1.5378e-17
5528.6619	1.3078e-17	1.5331e-17
5528.8619	1.3356e-17	1.5247e-17
5529.6618	1.3619e-17	1.5203e-17
5530.0618	1.3843e-17	1.5079e-17
5530.2617	1.4130e-17	1.4919e-17
5530.6617	1.4476e-17	1.4573e-17
5530.8617	1.4823e-17	1.4510e-17
5531.2617	1.5172e-17	1.4315e-17
5531.4617	1.5548e-17	1.4132e-17
5531.8616	1.5941e-17	1.4045e-17
5532.0616	1.6346e-17	1.4016e-17
5532.2616	1.6749e-17	1.3960e-17
5532.6616	1.7162e-17	1.3825e-17
5532.8615	1.7604e-17	1.3782e-17
5533.2615	1.8106e-17	1.3634e-17
5533.6625	1.9162e-17	1.3555e-17
5534.0624	1.9116e-17	1.3470e-17
5535.4623	1.9310e-17	1.3230e-17
5535.6623	1.9445e-17	1.3183e-17
5536.2623	1.9838e-17	1.3164e-17
5537.0622	2.0436e-17	1.3125e-17
5537.4622	2.0461e-17	1.3038e-17
5537.6621	2.1084e-17	1.2978e-17
5537.8621	2.0981e-17	1.2885e-17
5538.0621	2.0033e-17	1.2861e-17
5538.2621	1.9081e-17	1.2792e-17
5538.4621	1.8169e-17	1.2468e-17
5538.6631	1.7460e-17	1.2416e-17
5538.8631	1.6758e-17	1.2250e-17
5539.0630	1.6581e-17	1.1866e-17
5539.2630	1.6425e-17	1.1816e-17
5539.4630	1.6285e-17	1.1739e-17
5539.8630	1.6177e-17	1.1719e-17
5540.6629	1.6215e-17	1.1563e-17
5541.2629	1.6324e-17	1.1333e-17
5541.4628	1.6465e-17	1.1148e-17
5542.6627	1.6137e-17	1.0842e-17
5543.0627	1.5750e-17	1.0734e-17
5543.6627	1.5385e-17	1.0709e-17
5544.0636	1.5176e-17	1.0691e-17
5544.2636	1.5083e-17	1.0622e-17
5544.8636	1.5023e-17	1.0379e-17
5545.0635	1.5040e-17	1.0271e-17
5545.2635	1.5092e-17	1.0248e-17
5545.4635	1.5262e-17	1.0239e-17
5545.6635	1.5527e-17	1.0111e-17
5546.0635	1.5832e-17	1.0142e-17
5546.8634	1.6235e-17	1.0133e-17
5547.6633	1.6770e-17	9.9445e-18
5548.6633	1.6130e-17	9.8881e-18
5548.8632	1.5979e-17	9.8845e-18
5549.0642	1.6370e-17	9.8184e-18
5549.2642	1.6526e-17	9.7346e-18
5550.2641	1.6388e-17	9.7310e-18
5550.4641	1.6722e-17	9.6877e-18
5550.6641	1.5986e-17	9.6304e-18
5550.8641	1.5603e-17	9.5141e-18
5551.2640	1.5172e-17	9.5157e-18
5551.4640	1.4450e-17	9.5149e-18
5551.8640	1.3838e-17	9.4545e-18
5552.0640	1.3726e-17	9.2599e-18
5552.6639	1.3584e-17	9.2633e-18
5552.8639	1.3553e-17	9.2595e-18
5553.8638	1.3109e-17	9.2671e-18
5554.0638	1.3142e-17	9.2352e-18
5554.8648	1.3142e-17	9.2331e-18
5556.2646	1.3557e-17	9.2113e-18
5556.4646	1.3511e-17	9.1172e-18
5557.0646	1.3028e-17	9.0817e-18
5557.2646	1.3306e-17	9.0461e-18
5557.4645	1.3614e-17	8.9506e-18
5557.6645	1.3783e-17	8.9091e-18
5558.2645	1.3887e-17	8.7519e-18
5559.2644	1.2962e-17	8.7315e-18
5559.4644	1.2031e-17	8.7424e-18
5559.6654	1.1565e-17	8.7590e-18
5560.8653	1.1267e-17	8.7576e-18
5561.0652	1.1288e-17	8.7552e-18
5561.2652	1.0952e-17	8.7585e-18
5561.6652	1.1074e-17	8.7586e-18
5561.8652	1.1183e-17	8.5119e-18
5562.4651	1.1281e-17	8.4926e-18
5562.6651	1.1374e-17	8.4820e-18
5562.8651	1.1449e-17	8.4831e-18
5563.0651	1.1512e-17	8.4477e-18
5563.2651	1.1557e-17	8.4465e-18
5563.6650	1.1584e-17	8.2183e-18
5565.0659	1.1616e-17	8.1242e-18
5565.2659	1.1533e-17	7.8504e-18
5566.6658	1.1434e-17	7.5405e-18
5567.8657	1.1319e-17	7.5258e-18
5568.0657	1.1186e-17	7.5009e-18
5568.2657	1.1036e-17	7.4937e-18
5568.8656	1.0856e-17	7.4769e-18
5569.0656	1.0635e-17	7.5075e-18
5569.2656	1.0344e-17	7.5505e-18
5569.4656	1.0030e-17	7.4644e-18
5569.6656	1.0113e-17	7.4600e-18
5570.2665	9.7879e-18	7.4559e-18
5571.2664	9.8687e-18	7.4694e-18
5571.4664	9.7798e-18	7.4673e-18
5571.6664	9.9356e-18	7.4655e-18
5572.2663	9.7040e-18	7.4537e-18
5572.4663	9.4753e-18	7.4517e-18
5572.8663	9.5990e-18	7.4441e-18
5573.0663	9.5415e-18	7.4323e-18
5574.2662	9.5831e-18	7.4243e-18
5575.0661	9.4841e-18	7.4176e-18
5575.2671	9.5775e-18	7.2206e-18
5575.4671	9.4172e-18	7.1879e-18
5576.0670	9.3000e-18	7.1472e-18
5576.2670	9.1503e-18	7.1408e-18
5576.4670	9.1740e-18	7.1332e-18
5576.6670	9.1576e-18	7.0605e-18
5576.8670	9.2205e-18	7.0625e-18
5577.0670	9.0741e-18	7.0802e-18
5579.0668	8.9265e-18	7.0961e-18
5579.6667	8.7851e-18	7.1075e-18
5580.2667	8.6455e-18	7.0830e-18
5580.4677	8.4956e-18	7.0412e-18
5580.6677	8.3361e-18	7.0387e-18
5581.0676	8.1883e-18	7.0582e-18
5581.2676	8.0395e-18	7.0604e-18
5581.8676	7.8967e-18	7.0525e-18
5582.0675	7.7525e-18	7.0563e-18
5582.2675	7.6120e-18	7.0403e-18
5582.4675	7.4689e-18	7.0013e-18
5582.6675	7.4437e-18	6.9711e-18
5584.2674	7.4111e-18	6.9140e-18
5584.4673	7.3753e-18	6.8525e-18
5584.8673	7.3362e-18	6.8084e-18
5585.0673	7.2929e-18	6.7614e-18
5585.4673	7.2435e-18	6.7216e-18
5585.6683	7.1897e-18	6.7012e-18
5586.0682	7.1325e-18	6.6857e-18
5586.2682	7.0689e-18	6.7133e-18
5586.8682	7.0163e-18	6.6846e-18
5587.0681	6.9554e-18	6.6558e-18
5587.2681	6.8867e-18	6.6297e-18
5588.0681	6.7051e-18	6.6072e-18
5588.2680	6.5432e-18	6.5870e-18
5588.4680	6.5559e-18	6.5509e-18
5588.6680	6.5428e-18	6.5209e-18
5589.0680	6.4996e-18	6.5392e-18
5589.6679	6.4398e-18	6.5067e-18
5589.8679	6.4250e-18	6.4606e-18
5590.2679	6.3238e-18	6.4243e-18
5590.6678	6.1311e-18	6.3864e-18
5591.0688	6.0200e-18	6.3329e-18
5591.2688	6.0265e-18	6.2892e-18
5591.4688	6.0488e-18	6.2335e-18
5592.2687	6.0469e-18	6.1734e-18
5592.6687	6.0474e-18	6.1116e-18
5592.8687	6.0413e-18	6.0513e-18
5593.0687	6.0361e-18	5.9801e-18
5593.2686	6.0253e-18	5.9144e-18
5593.6686	6.0115e-18	5.8496e-18
5593.8686	6.0077e-18	5.7810e-18
