#wls	flux	flux_err
5359.6036	8.4100e-16	2.8625e-16
5359.8036	8.3804e-16	2.8625e-16
5362.8034	8.3514e-16	2.8625e-16
5364.8042	8.3224e-16	2.8625e-16
5367.0040	8.2926e-16	2.8625e-16
5368.0039	8.2627e-16	2.8625e-16
5371.0047	8.2336e-16	2.8625e-16
5372.0046	8.2040e-16	2.8625e-16
5372.2046	8.1746e-16	2.8625e-16
5372.8045	8.1451e-16	2.8625e-16
5373.6045	8.1150e-16	2.8625e-16
5373.8045	8.0855e-16	2.8625e-16
5374.4054	8.0562e-16	2.8625e-16
5375.4053	8.0267e-16	2.8625e-16
5377.2052	7.9973e-16	2.8625e-16
5378.0051	7.9679e-16	2.8625e-16
5378.2051	7.9378e-16	2.8625e-16
5378.4051	7.9080e-16	2.8625e-16
5380.0060	7.8782e-16	2.8625e-16
5380.6059	7.8484e-16	2.8625e-16
5380.8059	7.8189e-16	2.8625e-16
5381.2059	7.7885e-16	2.8625e-16
5381.6058	7.7578e-16	2.8625e-16
5382.2058	7.7277e-16	2.8625e-16
5383.2057	7.6976e-16	2.8625e-16
5383.4057	7.6679e-16	2.8625e-16
5383.6057	7.6371e-16	2.8625e-16
5384.6056	7.6068e-16	2.8625e-16
5385.0066	7.5764e-16	2.8625e-16
5385.2065	7.5458e-16	2.8625e-16
5385.8065	7.5158e-16	2.8625e-16
5386.4064	7.4848e-16	2.8625e-16
5387.4064	7.4536e-16	2.8625e-16
5387.6063	7.4226e-16	2.8625e-16
5387.8063	7.3917e-16	2.8625e-16
5388.2063	7.3617e-16	2.8625e-16
5388.6063	7.3316e-16	2.8625e-16
5388.8062	7.3024e-16	2.8625e-16
5389.4062	7.2711e-16	2.8625e-16
5389.6062	7.2404e-16	2.8625e-16
5390.4071	7.2099e-16	2.8625e-16
5391.0071	7.1790e-16	2.8625e-16
5391.6070	7.1485e-16	2.8625e-16
5392.0070	7.1179e-16	2.8625e-16
5392.2070	7.0879e-16	2.8625e-16
5392.4069	7.0563e-16	2.8625e-16
5392.6069	7.0256e-16	2.8625e-16
5392.8069	6.9942e-16	2.8625e-16
5393.0069	6.9637e-16	2.8625e-16
5393.8068	6.9323e-16	2.8625e-16
5394.0068	6.9010e-16	2.8625e-16
5394.6068	6.8700e-16	2.8625e-16
5394.8068	6.8399e-16	2.8625e-16
5395.0067	6.8099e-16	2.8625e-16
5395.6067	6.7797e-16	2.8625e-16
5395.8077	6.7484e-16	2.8625e-16
5396.4076	6.7176e-16	2.8625e-16
5396.6076	6.6864e-16	2.8625e-16
5397.2076	6.6554e-16	2.8625e-16
5397.4075	6.6249e-16	2.8625e-16
5397.6075	6.5938e-16	2.8625e-16
5398.0075	6.5636e-16	2.8625e-16
5398.2075	6.5323e-16	2.8625e-16
5398.4075	6.5014e-16	2.8625e-16
5398.8074	6.4702e-16	2.8625e-16
5399.0074	6.4386e-16	2.8625e-16
5399.2074	6.4082e-16	2.8625e-16
5399.4074	6.3780e-16	2.8625e-16
5399.6074	6.3474e-16	2.8625e-16
5400.0073	6.3170e-16	2.8625e-16
5400.2073	6.2877e-16	2.8625e-16
5400.4073	6.2570e-16	2.8625e-16
5400.6073	6.2261e-16	2.8625e-16
5401.2082	6.1951e-16	2.8625e-16
5401.4082	6.1653e-16	2.8625e-16
5401.8082	6.1356e-16	2.8625e-16
5402.6081	6.1056e-16	2.8625e-16
5402.8081	6.0757e-16	2.8625e-16
5403.2081	6.0452e-16	2.8625e-16
5403.4081	6.0145e-16	2.8625e-16
5403.8080	5.9842e-16	2.8625e-16
5404.4080	5.9539e-16	2.8625e-16
5404.6080	5.9233e-16	2.8625e-16
5405.0079	5.8927e-16	2.8625e-16
5405.2079	5.8621e-16	2.8625e-16
5405.4079	5.8325e-16	2.8625e-16
5405.6079	5.8019e-16	2.8625e-16
5405.8079	5.7714e-16	2.8625e-16
5406.0078	5.7418e-16	2.8625e-16
5406.8088	5.7122e-16	2.8625e-16
5407.2087	5.6827e-16	2.8625e-16
5407.4087	5.6529e-16	2.8625e-16
5407.6087	5.6230e-16	2.8625e-16
5407.8087	5.5935e-16	2.8625e-16
5408.2087	5.5646e-16	2.8625e-16
5408.4086	5.5353e-16	2.8625e-16
5408.6086	5.5056e-16	2.8625e-16
5408.8086	5.4758e-16	2.8625e-16
5409.4086	5.4449e-16	2.8625e-16
5409.6086	5.4152e-16	2.8625e-16
5409.8085	5.3861e-16	2.8625e-16
5410.0085	5.3563e-16	2.8625e-16
5410.2085	5.3270e-16	2.8625e-16
5410.4085	5.2979e-16	2.8625e-16
5410.6085	5.2685e-16	2.8625e-16
5411.0084	5.2398e-16	2.8625e-16
5411.4084	5.2116e-16	2.8625e-16
5411.6084	5.1825e-16	2.8625e-16
5412.0094	5.1531e-16	2.8625e-16
5412.2093	5.1233e-16	2.8625e-16
5412.6093	5.0941e-16	2.8625e-16
5412.8093	5.0645e-16	2.8625e-16
5413.2093	5.0351e-16	2.8625e-16
5413.4092	5.0066e-16	2.8625e-16
5413.8092	4.9775e-16	2.8625e-16
5414.0092	4.9491e-16	2.8625e-16
5414.2092	4.9207e-16	2.8625e-16
5414.4092	4.8923e-16	2.8625e-16
5414.6091	4.8637e-16	2.8625e-16
5414.8091	4.8355e-16	2.8625e-16
5415.0091	4.8072e-16	2.8625e-16
5415.2091	4.7783e-16	2.8625e-16
5415.4091	4.7502e-16	2.8625e-16
5416.0090	4.7216e-16	2.8532e-16
5416.2090	4.6931e-16	2.5871e-16
5416.4090	4.6649e-16	2.5883e-16
5416.8090	4.6372e-16	2.5597e-16
5417.2089	4.6094e-16	2.5193e-16
5417.4099	4.5818e-16	2.5174e-16
5417.8099	4.5540e-16	2.5084e-16
5418.0099	4.5263e-16	2.5039e-16
5418.2099	4.5000e-16	2.4802e-16
5418.4098	4.4730e-16	2.4694e-16
5418.6098	4.4460e-16	2.4294e-16
5418.8098	4.4186e-16	2.3981e-16
5419.0098	4.3913e-16	2.3621e-16
5419.2098	4.3653e-16	2.3617e-16
5419.4098	4.3384e-16	2.3495e-16
5420.0097	4.3109e-16	2.3082e-16
5420.4097	4.2841e-16	2.3071e-16
5420.8096	4.2572e-16	2.2725e-16
5421.0096	4.2297e-16	2.2703e-16
5421.2096	4.2030e-16	2.2560e-16
5421.4096	4.1774e-16	2.2105e-16
5421.6096	4.1515e-16	2.1966e-16
5421.8096	4.1251e-16	2.0978e-16
5422.0095	4.0984e-16	2.0787e-16
5422.2095	4.0728e-16	2.0195e-16
5422.4095	4.0476e-16	2.0135e-16
5422.6095	4.0223e-16	2.0122e-16
5422.8095	3.9957e-16	1.9990e-16
5423.0105	3.9691e-16	1.9999e-16
5423.2104	3.9430e-16	1.9776e-16
5423.4104	3.9177e-16	1.9418e-16
5423.6104	3.8929e-16	1.9409e-16
5423.8104	3.8673e-16	1.9409e-16
5424.0104	3.8424e-16	1.9416e-16
5424.2104	3.8178e-16	1.9417e-16
5424.6103	3.7928e-16	1.9417e-16
5424.8103	3.7683e-16	1.9430e-16
5425.0103	3.7429e-16	1.9457e-16
5425.2103	3.7187e-16	1.9464e-16
5425.6103	3.6947e-16	1.9465e-16
5425.8102	3.6714e-16	1.9461e-16
5426.0102	3.6481e-16	1.9461e-16
5426.2102	3.6244e-16	1.9473e-16
5426.4102	3.6010e-16	1.9475e-16
5426.6102	3.5773e-16	1.9501e-16
5426.8102	3.5535e-16	1.9545e-16
5427.0101	3.5302e-16	1.9582e-16
5427.2101	3.5058e-16	1.9594e-16
5427.4101	3.4826e-16	1.9625e-16
5427.6101	3.4596e-16	1.9639e-16
5427.8101	3.4365e-16	1.9656e-16
5428.0101	3.4132e-16	1.9669e-16
5428.2100	3.3898e-16	1.9490e-16
5428.4110	3.3676e-16	1.9491e-16
5428.6110	3.3453e-16	1.9447e-16
5428.8110	3.3225e-16	1.9404e-16
5429.0110	3.2994e-16	1.9365e-16
5429.6109	3.2772e-16	1.9319e-16
5429.8109	3.2557e-16	1.9304e-16
5430.0109	3.2338e-16	1.9266e-16
5430.2109	3.2122e-16	1.9286e-16
5430.4109	3.1907e-16	1.9266e-16
5430.6108	3.1692e-16	1.9156e-16
5430.8108	3.1476e-16	1.8907e-16
5431.0108	3.1272e-16	1.8830e-16
5431.2108	3.1062e-16	1.8477e-16
5431.4108	3.0849e-16	1.8383e-16
5431.6108	3.0638e-16	1.8316e-16
5431.8107	3.0422e-16	1.8141e-16
5432.0107	3.0214e-16	1.8149e-16
5432.2107	3.0011e-16	1.7931e-16
5432.6107	2.9804e-16	1.7942e-16
5432.8107	2.9606e-16	1.7952e-16
5433.0106	2.9407e-16	1.7969e-16
5433.2106	2.9213e-16	1.7970e-16
5433.4106	2.9011e-16	1.7941e-16
5433.6106	2.8814e-16	1.7947e-16
5433.8116	2.8619e-16	1.7974e-16
5434.0116	2.8424e-16	1.7625e-16
5434.2116	2.8217e-16	1.7625e-16
5434.4115	2.8020e-16	1.7421e-16
5434.6115	2.7826e-16	1.7271e-16
5434.8115	2.7627e-16	1.7182e-16
5435.0115	2.7443e-16	1.7183e-16
5435.2115	2.7259e-16	1.6951e-16
5435.4115	2.7078e-16	1.6794e-16
5435.6114	2.6889e-16	1.6584e-16
5435.8114	2.6703e-16	1.6536e-16
5436.0114	2.6518e-16	1.6395e-16
5436.2114	2.6347e-16	1.6377e-16
5436.4114	2.6171e-16	1.6223e-16
5436.6114	2.5993e-16	1.6216e-16
5436.8113	2.5816e-16	1.6180e-16
5437.0113	2.5635e-16	1.6131e-16
5437.2113	2.5469e-16	1.5993e-16
5437.4113	2.5298e-16	1.5775e-16
5437.6113	2.5122e-16	1.5781e-16
5437.8113	2.4958e-16	1.5413e-16
5438.0112	2.4799e-16	1.5281e-16
5438.2112	2.4638e-16	1.5209e-16
5438.4112	2.4483e-16	1.4520e-16
5438.6112	2.4323e-16	1.4276e-16
5438.8112	2.4155e-16	1.4040e-16
5439.0112	2.3998e-16	1.4015e-16
5439.2121	2.3830e-16	1.3764e-16
5439.4121	2.3676e-16	1.3488e-16
5439.6121	2.3515e-16	1.3358e-16
5439.8121	2.3355e-16	1.3328e-16
5440.0121	2.3198e-16	1.3217e-16
5440.2121	2.3042e-16	1.2994e-16
5440.4120	2.2888e-16	1.2991e-16
5440.6120	2.2740e-16	1.2997e-16
5440.8120	2.2594e-16	1.2649e-16
5441.0120	2.2449e-16	1.2335e-16
5441.2120	2.2302e-16	1.1965e-16
5441.4120	2.2152e-16	1.1924e-16
5441.6119	2.2002e-16	1.1910e-16
5441.8119	2.1860e-16	1.1894e-16
5442.0119	2.1718e-16	1.1897e-16
5442.2119	2.1583e-16	1.1889e-16
5442.4119	2.1448e-16	1.1890e-16
5442.6119	2.1306e-16	1.1900e-16
5442.8119	2.1177e-16	1.1911e-16
5443.0118	2.1042e-16	1.1917e-16
5443.2118	2.0914e-16	1.1908e-16
5443.4118	2.0785e-16	1.1905e-16
5443.6118	2.0652e-16	1.1918e-16
5443.8118	2.0522e-16	1.1655e-16
5444.0118	2.0403e-16	1.1625e-16
5444.2117	2.0283e-16	1.1627e-16
5444.4117	2.0168e-16	1.1534e-16
5444.6127	2.0047e-16	1.1400e-16
5444.8127	1.9928e-16	1.1279e-16
5445.0127	1.9813e-16	1.1243e-16
5445.2127	1.9700e-16	1.1246e-16
5445.4126	1.9589e-16	1.1110e-16
5445.6126	1.9482e-16	1.1071e-16
5445.8126	1.9377e-16	1.1034e-16
5446.0126	1.9274e-16	1.0770e-16
5446.2126	1.9174e-16	1.0776e-16
5446.4126	1.9076e-16	1.0689e-16
5446.6125	1.8981e-16	1.0673e-16
5446.8125	1.8889e-16	1.0646e-16
5447.0125	1.8798e-16	1.0617e-16
5447.2125	1.8710e-16	1.0575e-16
5447.4125	1.8625e-16	1.0435e-16
5447.6125	1.8536e-16	1.0146e-16
5447.8124	1.8447e-16	1.0090e-16
5448.0124	1.8358e-16	9.8984e-17
5448.2124	1.8263e-16	9.8994e-17
5448.4124	1.8162e-16	9.8659e-17
5448.6124	1.8064e-16	9.8750e-17
5448.8124	1.7973e-16	9.8163e-17
5449.0123	1.7895e-16	9.5701e-17
5449.2123	1.7803e-16	9.5373e-17
5449.4123	1.7713e-16	9.5356e-17
5449.6123	1.7624e-16	9.5325e-17
5449.8123	1.7532e-16	9.4037e-17
5450.0133	1.7452e-16	9.2668e-17
5450.2133	1.7381e-16	9.2563e-17
5450.4132	1.7309e-16	9.2419e-17
5450.6132	1.7239e-16	9.2395e-17
5450.8132	1.7154e-16	9.2241e-17
5451.0132	1.7084e-16	9.2210e-17
5451.2132	1.7022e-16	9.0966e-17
5451.4132	1.6952e-16	8.9177e-17
5451.6131	1.6891e-16	8.7911e-17
5451.8131	1.6823e-16	8.7448e-17
5452.0131	1.6756e-16	8.6106e-17
5452.2131	1.6691e-16	8.5600e-17
5452.4131	1.6631e-16	8.4118e-17
5452.6131	1.6565e-16	8.2753e-17
5452.8130	1.6496e-16	8.1296e-17
5453.0130	1.6427e-16	7.9072e-17
5453.2130	1.6358e-16	7.8784e-17
5453.4130	1.6290e-16	7.8096e-17
5453.6130	1.6235e-16	7.7897e-17
5453.8130	1.6183e-16	7.7749e-17
5454.0129	1.6140e-16	7.7659e-17
5454.2129	1.6102e-16	7.7195e-17
5454.4129	1.6050e-16	7.5983e-17
5454.6129	1.6002e-16	7.5853e-17
5454.8129	1.5961e-16	7.5830e-17
5455.0129	1.5914e-16	7.5605e-17
5455.2128	1.5874e-16	7.5678e-17
5455.4138	1.5839e-16	7.5597e-17
5455.6138	1.5804e-16	7.5657e-17
5455.8138	1.5766e-16	7.5252e-17
5456.0138	1.5731e-16	7.4646e-17
5456.2138	1.5699e-16	7.2843e-17
5456.4137	1.5668e-16	7.2719e-17
5456.6137	1.5634e-16	7.2572e-17
5456.8137	1.5597e-16	7.2516e-17
5457.0137	1.5569e-16	7.1591e-17
5457.2137	1.5533e-16	7.1610e-17
5457.4137	1.5506e-16	7.1194e-17
5457.6136	1.5482e-16	7.0634e-17
5457.8136	1.5449e-16	7.0696e-17
5458.0136	1.5428e-16	7.0679e-17
5458.2136	1.5406e-16	7.0189e-17
5458.4136	1.5379e-16	6.9099e-17
5458.6136	1.5356e-16	6.9064e-17
5458.8136	1.5332e-16	6.8918e-17
5459.0135	1.5315e-16	6.7724e-17
5459.2135	1.5303e-16	6.7716e-17
5459.4135	1.5284e-16	6.7697e-17
5459.6135	1.5275e-16	6.7217e-17
5459.8135	1.5269e-16	6.4784e-17
5460.0135	1.5256e-16	6.4827e-17
5460.2134	1.5250e-16	6.4219e-17
5460.4134	1.5255e-16	6.3683e-17
5460.6134	1.5251e-16	6.1531e-17
5460.8134	1.5245e-16	6.1304e-17
5461.0144	1.5239e-16	6.1118e-17
5461.2144	1.5228e-16	6.1101e-17
5461.4143	1.5222e-16	6.1144e-17
5461.6143	1.5224e-16	6.0529e-17
5461.8143	1.5218e-16	6.0425e-17
5462.0143	1.5220e-16	6.0000e-17
5462.2143	1.5228e-16	6.0046e-17
5462.4143	1.5230e-16	6.0168e-17
5462.6142	1.5232e-16	6.0041e-17
5462.8142	1.5241e-16	5.9837e-17
5463.0142	1.5253e-16	5.9833e-17
5463.2142	1.5263e-16	5.9512e-17
5463.4142	1.5270e-16	5.8880e-17
5463.6142	1.5283e-16	5.8889e-17
5463.8141	1.5293e-16	5.8811e-17
5464.0141	1.5306e-16	5.8476e-17
5464.2141	1.5317e-16	5.8195e-17
5464.4141	1.5336e-16	5.8167e-17
5464.6141	1.5359e-16	5.8091e-17
5464.8141	1.5377e-16	5.7023e-17
5465.0140	1.5391e-16	5.6074e-17
5465.2140	1.5409e-16	5.4632e-17
5465.4140	1.5436e-16	5.3351e-17
5465.6140	1.5457e-16	5.3460e-17
5465.8140	1.5481e-16	5.3267e-17
5466.0140	1.5497e-16	5.3354e-17
5466.2140	1.5520e-16	5.3434e-17
5466.4149	1.5541e-16	5.3633e-17
5466.6149	1.5564e-16	5.3577e-17
5466.8149	1.5587e-16	5.3781e-17
5467.0149	1.5618e-16	5.3717e-17
5467.2149	1.5642e-16	5.3314e-17
5467.4149	1.5672e-16	5.3199e-17
5467.6148	1.5703e-16	5.3421e-17
5467.8148	1.5728e-16	5.3355e-17
5468.0148	1.5761e-16	5.2984e-17
5468.2148	1.5794e-16	5.2961e-17
5468.4148	1.5828e-16	5.2694e-17
5468.6148	1.5861e-16	5.2806e-17
5468.8147	1.5891e-16	5.2613e-17
5469.0147	1.5925e-16	5.2306e-17
5469.2147	1.5965e-16	5.1867e-17
5469.4147	1.5999e-16	5.1904e-17
5469.6147	1.6038e-16	5.1081e-17
5469.8147	1.6079e-16	5.0471e-17
5470.0146	1.6111e-16	5.0307e-17
5470.2146	1.6149e-16	4.9797e-17
5470.4146	1.6190e-16	4.9644e-17
5470.6146	1.6230e-16	4.9222e-17
5470.8146	1.6269e-16	4.9296e-17
5471.0146	1.6311e-16	4.9278e-17
5471.2145	1.6350e-16	4.9218e-17
5471.4145	1.6395e-16	4.9240e-17
5471.6145	1.6439e-16	4.9001e-17
5471.8155	1.6478e-16	4.9101e-17
5472.0155	1.6523e-16	4.9221e-17
5472.2155	1.6567e-16	4.9254e-17
5472.4154	1.6613e-16	4.9220e-17
5472.6154	1.6661e-16	4.9045e-17
5472.8154	1.6705e-16	4.9210e-17
5473.0154	1.6749e-16	4.9088e-17
5473.2154	1.6794e-16	4.9117e-17
5473.4154	1.6843e-16	4.9031e-17
5473.6153	1.6893e-16	4.8530e-17
5473.8153	1.6937e-16	4.7937e-17
5474.0153	1.6989e-16	4.8207e-17
5474.2153	1.7036e-16	4.8288e-17
5474.4153	1.7081e-16	4.7975e-17
5474.6153	1.7131e-16	4.7964e-17
5474.8153	1.7182e-16	4.7747e-17
5475.0152	1.7230e-16	4.7778e-17
5475.2152	1.7275e-16	4.7997e-17
5475.4152	1.7324e-16	4.8079e-17
5475.6152	1.7364e-16	4.8130e-17
5475.8152	1.7412e-16	4.8185e-17
5476.0152	1.7467e-16	4.8208e-17
5476.2151	1.7515e-16	4.7998e-17
5476.4151	1.7562e-16	4.7336e-17
5476.6151	1.7615e-16	4.7151e-17
5476.8151	1.7660e-16	4.7167e-17
5477.0151	1.7702e-16	4.7042e-17
5477.2161	1.7755e-16	4.7009e-17
5477.4160	1.7803e-16	4.7169e-17
5477.6160	1.7847e-16	4.7281e-17
5477.8160	1.7891e-16	4.7334e-17
5478.0160	1.7938e-16	4.7287e-17
5478.2160	1.7985e-16	4.7288e-17
5478.4160	1.8033e-16	4.6667e-17
5478.6159	1.8080e-16	4.6674e-17
5478.8159	1.8127e-16	4.6388e-17
5479.0159	1.8173e-16	4.6529e-17
5479.2159	1.8220e-16	4.5955e-17
5479.4159	1.8266e-16	4.5804e-17
5479.6159	1.8313e-16	4.5716e-17
5479.8158	1.8359e-16	4.5406e-17
5480.0158	1.8404e-16	4.5588e-17
5480.2158	1.8450e-16	4.5582e-17
5480.4158	1.8494e-16	4.5498e-17
5480.6158	1.8536e-16	4.5660e-17
5480.8158	1.8582e-16	4.5529e-17
5481.0157	1.8626e-16	4.5358e-17
5481.2157	1.8670e-16	4.5331e-17
5481.4157	1.8710e-16	4.5140e-17
5481.6157	1.8750e-16	4.4947e-17
5481.8157	1.8789e-16	4.3900e-17
5482.0157	1.8819e-16	4.3677e-17
5482.2157	1.8852e-16	4.3802e-17
5482.4156	1.8888e-16	4.3559e-17
5482.6166	1.8920e-16	4.3560e-17
5482.8166	1.8953e-16	4.3165e-17
5483.0166	1.8986e-16	4.3015e-17
5483.2166	1.9016e-16	4.3064e-17
5483.4166	1.9041e-16	4.2993e-17
5483.6165	1.9069e-16	4.3009e-17
5483.8165	1.9097e-16	4.3045e-17
5484.0165	1.9124e-16	4.3066e-17
5484.2165	1.9152e-16	4.3060e-17
5484.4165	1.9175e-16	4.3151e-17
5484.6165	1.9196e-16	4.3144e-17
5484.8164	1.9218e-16	4.3111e-17
5485.0164	1.9242e-16	4.2448e-17
5485.2164	1.9258e-16	4.2296e-17
5485.4164	1.9274e-16	4.2229e-17
5485.6164	1.9293e-16	4.1877e-17
5485.8164	1.9308e-16	4.1727e-17
5486.0163	1.9323e-16	4.1736e-17
5486.2163	1.9335e-16	4.1738e-17
5486.4163	1.9342e-16	4.1657e-17
5486.6163	1.9347e-16	4.1583e-17
5486.8163	1.9352e-16	4.0960e-17
5487.0163	1.9360e-16	4.0585e-17
5487.2162	1.9363e-16	4.0763e-17
5487.4162	1.9362e-16	4.0717e-17
5487.6162	1.9361e-16	4.0569e-17
5487.8162	1.9362e-16	4.0430e-17
5488.0172	1.9363e-16	4.0348e-17
5488.2172	1.9360e-16	3.9989e-17
5488.4171	1.9356e-16	3.9328e-17
5488.6171	1.9351e-16	3.9325e-17
5488.8171	1.9341e-16	3.9386e-17
5489.0171	1.9328e-16	3.8673e-17
5489.2171	1.9311e-16	3.8490e-17
5489.4171	1.9292e-16	3.8591e-17
5489.6170	1.9272e-16	3.8450e-17
5489.8170	1.9252e-16	3.8046e-17
5490.0170	1.9232e-16	3.7909e-17
5490.2170	1.9206e-16	3.7729e-17
5490.4170	1.9177e-16	3.7806e-17
5490.6170	1.9147e-16	3.7368e-17
5490.8170	1.9113e-16	3.7234e-17
5491.0169	1.9079e-16	3.6798e-17
5491.2169	1.9041e-16	3.6802e-17
5491.4169	1.9004e-16	3.6700e-17
5491.6169	1.8968e-16	3.6426e-17
5491.8169	1.8929e-16	3.6297e-17
5492.0169	1.8881e-16	3.6059e-17
5492.2168	1.8830e-16	3.6137e-17
5492.4168	1.8485e-16	3.5932e-17
5492.6168	1.8519e-16	3.4592e-17
5492.8168	1.8652e-16	3.4300e-17
5493.0168	1.8528e-16	3.4214e-17
5493.2168	1.8512e-16	3.4165e-17
5493.4177	1.8455e-16	3.3777e-17
5493.6177	1.8405e-16	3.3254e-17
5493.8177	1.8523e-16	3.3265e-17
5494.0177	1.8464e-16	3.2883e-17
5494.2177	1.8603e-16	3.2705e-17
5494.4177	1.8725e-16	3.2682e-17
5494.6176	1.8603e-16	3.2561e-17
5494.8176	1.8600e-16	3.2617e-17
5495.0176	1.8679e-16	3.2198e-17
5495.2176	1.8555e-16	3.2072e-17
5495.4176	1.8601e-16	3.2062e-17
5495.6176	1.8728e-16	3.1987e-17
5495.8175	1.8706e-16	3.2099e-17
5496.0175	1.8631e-16	3.2125e-17
5496.2175	1.8775e-16	3.2181e-17
5496.4175	1.8856e-16	3.2006e-17
5496.6175	1.8668e-16	3.1921e-17
5496.8175	1.8763e-16	3.1991e-17
5497.0174	1.8617e-16	3.1995e-17
5497.2174	1.8576e-16	3.1869e-17
5497.4174	1.8555e-16	3.1259e-17
5497.6174	1.8625e-16	3.1015e-17
5497.8174	1.8650e-16	3.1211e-17
5498.0174	1.8562e-16	3.1296e-17
5498.2174	1.8679e-16	3.1172e-17
5498.4173	1.8700e-16	3.1100e-17
5498.6173	1.8711e-16	3.1145e-17
5498.8173	1.8719e-16	3.1117e-17
5499.0183	1.8725e-16	3.1024e-17
5499.2183	1.8726e-16	3.0662e-17
5499.4183	1.8723e-16	3.0571e-17
5499.6182	1.8716e-16	3.0678e-17
5499.8182	1.8703e-16	3.0664e-17
5500.0182	1.8687e-16	3.0684e-17
5500.2182	1.8662e-16	3.0805e-17
5500.4182	1.8642e-16	3.0944e-17
5500.6182	1.8629e-16	3.0720e-17
5500.8181	1.8618e-16	3.0738e-17
5501.0181	1.8604e-16	3.0739e-17
5501.2181	1.8589e-16	3.0418e-17
5501.4181	1.8575e-16	3.0437e-17
5501.6181	1.8562e-16	2.9769e-17
5501.8181	1.8550e-16	2.9498e-17
5502.0180	1.8543e-16	2.8528e-17
5502.2180	1.8537e-16	2.8417e-17
5502.4180	1.8535e-16	2.8291e-17
5502.6180	1.8449e-16	2.7352e-17
5502.8180	1.8431e-16	2.7436e-17
5503.0180	1.8376e-16	2.7455e-17
5503.2179	1.8414e-16	2.7437e-17
5503.4179	1.8350e-16	2.6825e-17
5503.6179	1.8386e-16	2.6652e-17
5503.8179	1.8400e-16	2.6774e-17
5504.0179	1.8333e-16	2.6712e-17
5504.2179	1.8318e-16	2.6214e-17
5504.4188	1.8339e-16	2.6060e-17
5504.6188	1.8396e-16	2.6037e-17
5504.8188	1.8476e-16	2.6041e-17
5505.0188	1.8517e-16	2.6371e-17
5505.2188	1.8391e-16	2.6019e-17
5505.4188	1.8309e-16	2.5821e-17
5505.6188	1.8342e-16	2.5814e-17
5505.8187	1.8245e-16	2.5823e-17
5506.0187	1.8214e-16	2.5812e-17
5506.2187	1.8106e-16	2.5877e-17
5506.4187	1.8103e-16	2.5875e-17
5506.6187	1.8117e-16	2.5959e-17
5506.8187	1.8082e-16	2.6014e-17
5507.0186	1.8063e-16	2.6200e-17
5507.2186	1.8069e-16	2.6189e-17
5507.4186	1.8053e-16	2.6184e-17
5507.6186	1.8029e-16	2.6190e-17
5507.8186	1.8110e-16	2.6151e-17
5508.0186	1.8073e-16	2.6331e-17
5508.2185	1.8132e-16	2.6083e-17
5508.4185	1.8044e-16	2.6078e-17
5508.6185	1.8072e-16	2.6153e-17
5508.8185	1.8063e-16	2.6221e-17
5509.0185	1.8124e-16	2.6274e-17
5509.2185	1.8172e-16	2.6405e-17
5509.4184	1.8069e-16	2.6405e-17
5509.6184	1.8090e-16	2.6385e-17
5509.8194	1.8139e-16	2.6375e-17
5510.0194	1.8147e-16	2.6626e-17
5510.2194	1.8196e-16	2.6645e-17
5510.4194	1.8203e-16	2.6663e-17
5510.6193	1.8145e-16	2.6667e-17
5510.8193	1.8164e-16	2.6637e-17
5511.0193	1.8206e-16	2.6646e-17
5511.2193	1.8260e-16	2.6685e-17
5511.4193	1.8248e-16	2.6623e-17
5511.6193	1.8124e-16	2.6434e-17
5511.8192	1.8037e-16	2.6705e-17
5512.0192	1.7963e-16	2.6678e-17
5512.2192	1.7798e-16	2.7083e-17
5512.4192	1.7848e-16	2.7195e-17
5512.6192	1.7902e-16	2.7179e-17
5512.8192	1.7904e-16	2.7265e-17
5513.0191	1.7958e-16	2.7222e-17
5513.2191	1.8021e-16	2.7327e-17
5513.4191	1.8053e-16	2.7326e-17
5513.6191	1.8057e-16	2.7326e-17
5513.8191	1.8091e-16	2.7297e-17
5514.0191	1.8144e-16	2.7298e-17
5514.2191	1.8136e-16	2.7261e-17
5514.4190	1.8103e-16	2.7022e-17
5514.6190	1.8173e-16	2.7066e-17
5514.8190	1.8236e-16	2.6972e-17
5515.0190	1.8308e-16	2.6966e-17
5515.2200	1.8264e-16	2.6982e-17
5515.4200	1.8219e-16	2.6962e-17
5515.6199	1.8177e-16	2.6928e-17
5515.8199	1.8139e-16	2.6810e-17
5516.0199	1.8105e-16	2.6854e-17
5516.2199	1.8074e-16	2.6878e-17
5516.4199	1.8048e-16	2.6932e-17
5516.6199	1.8021e-16	2.6891e-17
5516.8198	1.8003e-16	2.6836e-17
5517.0198	1.7992e-16	2.6843e-17
5517.2198	1.7988e-16	2.6838e-17
5517.4198	1.7990e-16	2.6815e-17
5517.6198	1.8041e-16	2.6779e-17
5517.8198	1.8046e-16	2.6875e-17
5518.0197	1.8027e-16	2.6909e-17
5518.2197	1.7957e-16	2.7032e-17
5518.4197	1.7877e-16	2.7032e-17
