#wls	flux	flux_err
5337.4184	4.6232e-16	5.3662e-16
5337.6194	4.6358e-16	5.3662e-16
5339.2193	4.6483e-16	5.3662e-16
5339.6192	4.6607e-16	5.3662e-16
5339.8192	4.6731e-16	5.3662e-16
5340.0192	4.6849e-16	5.3662e-16
5340.8191	4.6967e-16	5.3662e-16
5342.0190	4.7083e-16	5.3662e-16
5342.4190	4.7195e-16	5.3662e-16
5342.6190	4.7314e-16	5.3662e-16
5342.8200	4.7433e-16	5.3662e-16
5343.2199	4.7539e-16	5.3662e-16
5343.6199	4.7654e-16	5.3662e-16
5344.0199	4.7762e-16	5.3662e-16
5344.2199	4.7862e-16	5.3662e-16
5345.2198	4.7959e-16	5.3662e-16
5345.6198	4.8059e-16	5.3662e-16
5346.6197	4.8165e-16	5.3662e-16
5346.8197	4.8263e-16	5.3662e-16
5347.0196	4.8359e-16	5.3662e-16
5347.2196	4.8452e-16	5.3662e-16
5347.4196	4.8543e-16	5.3662e-16
5347.8196	4.8635e-16	5.3662e-16
5348.0196	4.8721e-16	5.3662e-16
5348.4205	4.8805e-16	5.3662e-16
5348.6205	4.8890e-16	5.3662e-16
5349.0205	4.8969e-16	5.3662e-16
5349.8204	4.9047e-16	5.3662e-16
5350.4204	4.9130e-16	5.3662e-16
5350.6203	4.9210e-16	5.3662e-16
5352.0202	4.9279e-16	5.3662e-16
5352.2202	4.9350e-16	5.3662e-16
5352.6202	4.9421e-16	5.3662e-16
5353.4201	4.9486e-16	5.3662e-16
5353.8211	4.9549e-16	5.3662e-16
5354.8210	4.9613e-16	5.3662e-16
5355.6209	4.9672e-16	5.3662e-16
5356.4209	4.9733e-16	5.3662e-16
5356.8208	4.9797e-16	5.3662e-16
5357.4208	4.9852e-16	5.3662e-16
5357.6208	4.9904e-16	5.3662e-16
5358.0207	4.9965e-16	5.3662e-16
5358.2207	5.0016e-16	5.3662e-16
5358.8217	5.0067e-16	5.3662e-16
5359.2216	5.0122e-16	5.3662e-16
5359.6216	5.0172e-16	5.3662e-16
5359.8216	5.0212e-16	5.3662e-16
5360.6215	5.0257e-16	5.3662e-16
5361.4215	5.0299e-16	5.3662e-16
5361.8214	5.0342e-16	5.3662e-16
5362.2214	5.0379e-16	5.3662e-16
5362.4214	5.0413e-16	5.3662e-16
5362.6214	5.0443e-16	5.3662e-16
5362.8214	5.0470e-16	5.3662e-16
5363.2213	5.0499e-16	5.3662e-16
5364.0213	5.0531e-16	5.3662e-16
5364.4222	5.0559e-16	5.3662e-16
5364.6222	5.0585e-16	5.3662e-16
5364.8222	5.0602e-16	5.3662e-16
5365.8221	5.0618e-16	5.3662e-16
5367.4220	5.0639e-16	5.3662e-16
5368.0219	5.0654e-16	5.3662e-16
5368.2219	5.0666e-16	5.3662e-16
5369.2218	5.0675e-16	5.3662e-16
5369.8228	5.0693e-16	5.3662e-16
5370.0228	5.0703e-16	5.3662e-16
5372.0226	5.0705e-16	5.3662e-16
5372.2226	5.0705e-16	5.3662e-16
5372.4226	5.0708e-16	5.3662e-16
5372.6226	5.0713e-16	5.3662e-16
5373.0225	5.0709e-16	5.3662e-16
5373.2225	5.0708e-16	5.3662e-16
5373.6225	5.0699e-16	5.3662e-16
5373.8225	5.0689e-16	5.3662e-16
5374.0224	5.0684e-16	5.3662e-16
5375.6233	5.0673e-16	5.3662e-16
5376.2233	5.0662e-16	5.3662e-16
5376.4232	5.0648e-16	5.3662e-16
5377.0232	5.0632e-16	5.3662e-16
5377.2232	5.0614e-16	5.3662e-16
5377.4232	5.0594e-16	5.3662e-16
5377.6232	5.0572e-16	5.3662e-16
5377.8231	5.0547e-16	5.3662e-16
5378.0231	5.0520e-16	5.3662e-16
5378.2231	5.0492e-16	5.3662e-16
5378.4231	5.0461e-16	5.3662e-16
5378.6231	5.0428e-16	5.3662e-16
5379.2230	5.0392e-16	5.3662e-16
5379.4230	5.0355e-16	5.3662e-16
5380.4239	5.0315e-16	5.3662e-16
5380.6239	5.0274e-16	5.3662e-16
5381.2239	5.0230e-16	5.3662e-16
5381.4238	5.0184e-16	5.3662e-16
5382.4238	5.0136e-16	5.3662e-16
5382.6237	5.0087e-16	5.3662e-16
5383.8236	5.0035e-16	5.3662e-16
5384.6236	4.9981e-16	5.3662e-16
5384.8236	4.9926e-16	5.3662e-16
5385.0235	4.9868e-16	5.3662e-16
5385.2235	4.9809e-16	5.3662e-16
5385.6245	4.9748e-16	5.3662e-16
5385.8245	4.9686e-16	5.3662e-16
5386.2245	4.9622e-16	5.3662e-16
5386.8244	4.9556e-16	5.3662e-16
5387.0244	4.9489e-16	5.3662e-16
5387.2244	4.9421e-16	5.3662e-16
5389.0242	4.9350e-16	5.3662e-16
5389.8242	4.9278e-16	5.3662e-16
5390.2241	4.9204e-16	5.3662e-16
5390.4241	4.9129e-16	5.3662e-16
5391.4250	4.9050e-16	5.3662e-16
5391.8250	4.8969e-16	5.3662e-16
5393.0249	4.8889e-16	5.3662e-16
5393.2249	4.8808e-16	5.3662e-16
5393.8248	4.8725e-16	5.3662e-16
5394.0248	4.8639e-16	5.3662e-16
5394.4248	4.8551e-16	5.3662e-16
5395.6247	4.8460e-16	5.3662e-16
5395.8247	4.8366e-16	5.3662e-16
5396.2256	4.8275e-16	5.3563e-16
5396.4256	4.8176e-16	5.3153e-16
5396.6256	4.8079e-16	5.3207e-16
5397.0256	4.7979e-16	5.3113e-16
5397.2256	4.7882e-16	5.3145e-16
5397.6255	4.7784e-16	5.3178e-16
5398.8254	4.7677e-16	5.3187e-16
5399.0254	4.7568e-16	5.3150e-16
5400.6253	4.7460e-16	5.1474e-16
5401.0252	4.7351e-16	5.1009e-16
5401.2252	4.7241e-16	5.0951e-16
5401.6262	4.7129e-16	4.8969e-16
5401.8262	4.7012e-16	4.8958e-16
5402.2262	4.6895e-16	4.8990e-16
5402.8261	4.6776e-16	4.8931e-16
5404.0260	4.6656e-16	4.8950e-16
5404.2260	4.6536e-16	4.8797e-16
5404.4260	4.6416e-16	4.8816e-16
5404.6260	4.6289e-16	4.8357e-16
5405.2259	4.6163e-16	4.7335e-16
5405.6259	4.6032e-16	4.6794e-16
5406.2258	4.5902e-16	4.5984e-16
5406.4258	4.5768e-16	4.5999e-16
5406.6258	4.5632e-16	4.4844e-16
5407.2267	4.5497e-16	4.4599e-16
5407.4267	4.5360e-16	4.4614e-16
5407.8267	4.5219e-16	4.4637e-16
5408.2267	4.5075e-16	4.4344e-16
5409.0266	4.4931e-16	4.4273e-16
5409.2266	4.4787e-16	4.4038e-16
5410.0265	4.4642e-16	4.4035e-16
5410.6265	4.4492e-16	4.4012e-16
5410.8265	4.4341e-16	4.3663e-16
5411.0264	4.4191e-16	4.3029e-16
5412.0264	4.4037e-16	4.2280e-16
5412.2273	4.3882e-16	4.2236e-16
5412.8273	4.3726e-16	4.2121e-16
5413.2273	4.3567e-16	4.1640e-16
5413.4272	4.3409e-16	4.0676e-16
5413.6272	4.3252e-16	3.9895e-16
5413.8272	4.3091e-16	3.9170e-16
5414.2272	4.2926e-16	3.8554e-16
5414.8271	4.2765e-16	3.7985e-16
5416.0270	4.2602e-16	3.7578e-16
5416.6270	4.2432e-16	3.7261e-16
5416.8270	4.2260e-16	3.7029e-16
5417.0269	4.2088e-16	3.6829e-16
5417.8279	4.1914e-16	3.6753e-16
5418.0279	4.1741e-16	3.6737e-16
5418.2279	4.1565e-16	3.6736e-16
5418.6278	4.1386e-16	3.6598e-16
5418.8278	4.1207e-16	3.6595e-16
5420.0277	4.1028e-16	3.6592e-16
5420.4277	4.0849e-16	3.6524e-16
5420.6277	4.0665e-16	3.6522e-16
5421.2276	4.0480e-16	3.5566e-16
5421.6276	4.0299e-16	3.5432e-16
5422.2275	4.0112e-16	3.4819e-16
5423.0285	3.9924e-16	3.4802e-16
5423.4284	3.9735e-16	3.4778e-16
5423.6284	3.9542e-16	3.4752e-16
5424.6283	3.9348e-16	3.4720e-16
5424.8283	3.9154e-16	3.4685e-16
5425.0283	3.8957e-16	3.4636e-16
5425.2283	3.8760e-16	3.4578e-16
5425.4283	3.8562e-16	3.4515e-16
5425.6282	3.8366e-16	3.4409e-16
5425.8282	3.8165e-16	3.4299e-16
5426.0282	3.7964e-16	3.4183e-16
5427.0281	3.7761e-16	3.4061e-16
5427.4281	3.7556e-16	3.3927e-16
5428.2290	3.7352e-16	3.3786e-16
5428.6290	3.7148e-16	3.3671e-16
5428.8290	3.6940e-16	3.3666e-16
5429.0290	3.6731e-16	3.3493e-16
5429.4289	3.6520e-16	3.3253e-16
5429.6289	3.6309e-16	3.2657e-16
5429.8289	3.6098e-16	3.1543e-16
5430.0289	3.5884e-16	3.1536e-16
5430.2289	3.5672e-16	3.0237e-16
5430.4289	3.5456e-16	3.0073e-16
5431.0288	3.5239e-16	2.8665e-16
5431.4288	3.5023e-16	2.8665e-16
5431.6288	3.4805e-16	2.7949e-16
5432.2287	3.4586e-16	2.7847e-16
5432.6287	3.4367e-16	2.7833e-16
5432.8287	3.4144e-16	2.7487e-16
5433.6296	3.3921e-16	2.7191e-16
5434.2295	3.3697e-16	2.7164e-16
5434.4295	3.3473e-16	2.6960e-16
5434.8295	3.3249e-16	2.6881e-16
5435.0295	3.3022e-16	2.6792e-16
5435.2295	3.2795e-16	2.6477e-16
5435.4295	3.2569e-16	2.6386e-16
5435.8294	3.2340e-16	2.6259e-16
5436.0294	3.2111e-16	2.6261e-16
5437.2293	3.1880e-16	2.6175e-16
5437.4293	3.1647e-16	2.6042e-16
5437.6293	3.1414e-16	2.5854e-16
5437.8293	3.1180e-16	2.5603e-16
5438.0292	3.0945e-16	2.5191e-16
5438.2292	3.0712e-16	2.4673e-16
5439.0302	3.0475e-16	2.3913e-16
5439.2301	3.0239e-16	2.2694e-16
5439.4301	3.0003e-16	2.1224e-16
5440.0301	2.9765e-16	1.9436e-16
5440.2301	2.9525e-16	1.9434e-16
5440.4300	2.9288e-16	1.9063e-16
5440.6300	2.9046e-16	1.9041e-16
5440.8300	2.8802e-16	1.8716e-16
5441.6299	2.8559e-16	1.8419e-16
5441.8299	2.8315e-16	1.8356e-16
5442.2299	2.8070e-16	1.8274e-16
5442.4299	2.7825e-16	1.8294e-16
5443.0298	2.7580e-16	1.8316e-16
5443.2298	2.7334e-16	1.8065e-16
5443.4298	2.7089e-16	1.7941e-16
5443.6298	2.6842e-16	1.4960e-16
5443.8298	2.6595e-16	1.4989e-16
5444.6307	2.6348e-16	1.4992e-16
5445.0307	2.6101e-16	1.5026e-16
5445.2307	2.5852e-16	1.5067e-16
5445.4306	2.5605e-16	1.4874e-16
5446.2306	2.5354e-16	1.4511e-16
5446.4306	2.5104e-16	1.4431e-16
5447.0305	2.4851e-16	1.4446e-16
5447.4305	2.4599e-16	1.4477e-16
5447.6305	2.4346e-16	1.4484e-16
5448.0304	2.4094e-16	1.4480e-16
5448.2304	2.3841e-16	1.4372e-16
5448.4304	2.3588e-16	1.4403e-16
5448.8304	2.3335e-16	1.3658e-16
5449.0303	2.3082e-16	1.3571e-16
5449.2303	2.2826e-16	1.3496e-16
5449.6313	2.2571e-16	1.3514e-16
5450.0313	2.2317e-16	1.3550e-16
5450.2312	2.2063e-16	1.3552e-16
5450.4312	2.1807e-16	1.3582e-16
5450.6312	2.1554e-16	1.3621e-16
5450.8312	2.1301e-16	1.3107e-16
5451.4312	2.1046e-16	1.2975e-16
5451.6311	2.0791e-16	1.3034e-16
5451.8311	2.0535e-16	1.3035e-16
5452.0311	2.0278e-16	1.2944e-16
5452.4311	2.0021e-16	1.2929e-16
5452.6311	1.9765e-16	1.2934e-16
5452.8310	1.9511e-16	1.2991e-16
5453.0310	1.9255e-16	1.2865e-16
5453.2310	1.8996e-16	1.2838e-16
5453.8310	1.8740e-16	1.2724e-16
5454.2309	1.8484e-16	1.2754e-16
5455.4318	1.8227e-16	1.2726e-16
5455.6318	1.7970e-16	1.2597e-16
5455.8318	1.7716e-16	1.2632e-16
5456.0318	1.7458e-16	1.2655e-16
5456.2318	1.7200e-16	1.2688e-16
5456.4317	1.6943e-16	1.2609e-16
5456.6317	1.6687e-16	1.2650e-16
5456.8317	1.6430e-16	1.2615e-16
5457.8316	1.6175e-16	1.2634e-16
5458.0316	1.5921e-16	1.2681e-16
5458.6316	1.5666e-16	1.2677e-16
5459.2315	1.5408e-16	1.2717e-16
5459.4315	1.5154e-16	1.2613e-16
5459.6315	1.4900e-16	1.2636e-16
5459.8315	1.4646e-16	1.2667e-16
5460.0315	1.4392e-16	1.2686e-16
5460.2324	1.4136e-16	1.2583e-16
5460.6324	1.3882e-16	1.2612e-16
5460.8324	1.3630e-16	1.2655e-16
5461.0324	1.3378e-16	1.2666e-16
5461.2324	1.3126e-16	1.2697e-16
5461.4323	1.2877e-16	1.2727e-16
5461.8323	1.2624e-16	1.2639e-16
5462.0323	1.2373e-16	1.2674e-16
5462.2323	1.2123e-16	1.2717e-16
5462.6322	1.1873e-16	1.2654e-16
5462.8322	1.1623e-16	1.2592e-16
5463.0322	1.1373e-16	1.2500e-16
5463.2322	1.1122e-16	1.2548e-16
5463.6322	1.0873e-16	1.2572e-16
5464.6321	1.0628e-16	1.2611e-16
5465.0320	1.0384e-16	1.2648e-16
5465.2320	1.0139e-16	1.2633e-16
5465.4320	9.8940e-17	1.2668e-16
5465.6330	9.6486e-17	1.2684e-16
5466.0330	9.4037e-17	1.2718e-16
5466.2329	9.1606e-17	1.2673e-16
5466.4329	8.9171e-17	1.2591e-16
5466.6329	8.6744e-17	1.2635e-16
5466.8329	8.4337e-17	1.2539e-16
5467.2329	8.1925e-17	1.2478e-16
5467.4329	7.9522e-17	1.2367e-16
5467.6328	7.7119e-17	1.2347e-16
5468.2328	7.4726e-17	1.2364e-16
5468.4328	7.2340e-17	1.2244e-16
5468.8327	6.9994e-17	1.2181e-16
5469.4327	6.7649e-17	1.2219e-16
5469.6327	6.5294e-17	1.2230e-16
5469.8327	6.2960e-17	1.2129e-16
5470.0326	6.0648e-17	1.2046e-16
5470.2326	5.8337e-17	1.1954e-16
5470.4326	5.6030e-17	1.1879e-16
5470.6326	5.3763e-17	1.1837e-16
5470.8326	5.1490e-17	1.1818e-16
5471.0336	4.9227e-17	1.1808e-16
5471.2335	4.6984e-17	1.1697e-16
5471.4335	4.4760e-17	1.1726e-16
5471.6335	4.2548e-17	1.1684e-16
5472.8334	4.0348e-17	1.1662e-16
5473.0334	3.8137e-17	1.1636e-16
5473.2334	3.5945e-17	1.1564e-16
5473.8333	3.3777e-17	1.1437e-16
5474.0333	3.1610e-17	1.1339e-16
5475.2332	2.9480e-17	1.1244e-16
5475.4332	2.7355e-17	1.1129e-16
5475.6332	2.5233e-17	1.1031e-16
5476.2341	2.3130e-17	1.0889e-16
5476.4341	2.1029e-17	1.0777e-16
5476.8341	1.8950e-17	1.0722e-16
5477.0341	1.6917e-17	1.0594e-16
5477.2341	1.4888e-17	1.0599e-16
5477.4340	1.2856e-17	1.0589e-16
5477.6340	1.0839e-17	1.0467e-16
5478.0340	8.8603e-18	1.0378e-16
5478.2340	6.8815e-18	1.0257e-16
5478.4340	4.9335e-18	1.0164e-16
5478.6339	3.0156e-18	1.0108e-16
5478.8339	1.1052e-18	1.0061e-16
5479.0339	-7.9509e-19	1.0004e-16
5479.8338	-2.6687e-18	9.9722e-17
5481.0337	-4.5257e-18	9.9300e-17
5481.2337	-6.3716e-18	9.8243e-17
5481.4337	-8.1987e-18	9.7047e-17
5482.2346	-1.0025e-17	9.6999e-17
5482.8346	-1.1824e-17	9.6943e-17
5483.0346	-1.3606e-17	9.6781e-17
5483.2346	-1.5355e-17	9.5908e-17
5484.0345	-1.7075e-17	9.4791e-17
5484.6345	-1.8766e-17	9.4040e-17
5484.8344	-2.0441e-17	9.3615e-17
5485.2344	-2.2125e-17	9.2828e-17
5485.4344	-2.3773e-17	9.1750e-17
5485.6344	-2.5386e-17	9.0285e-17
5485.8344	-2.6990e-17	8.9285e-17
5486.0343	-2.8567e-17	8.8144e-17
5486.2343	-3.0110e-17	8.7764e-17
5486.8353	-3.1646e-17	8.7494e-17
5487.0353	-3.3171e-17	8.6915e-17
5487.6352	-3.4653e-17	8.5774e-17
5487.8352	-3.6104e-17	8.5089e-17
5488.0352	-3.7534e-17	8.3944e-17
5488.2352	-3.8956e-17	8.2659e-17
5488.4351	-4.0343e-17	8.1950e-17
5488.6351	-4.1712e-17	8.1170e-17
5488.8351	-4.3055e-17	8.0408e-17
5489.0351	-4.4380e-17	8.0079e-17
5489.2351	-4.5666e-17	7.9626e-17
5489.6350	-4.6919e-17	7.8331e-17
5489.8350	-4.8175e-17	7.7187e-17
5490.0350	-4.9364e-17	7.5906e-17
5490.4350	-5.0548e-17	7.5384e-17
5490.6350	-5.1714e-17	7.4291e-17
5491.0349	-5.2860e-17	7.3533e-17
5491.4349	-5.3967e-17	7.2548e-17
5491.8349	-5.5048e-17	7.1517e-17
5492.2358	-5.6096e-17	7.0969e-17
5492.6358	-5.7124e-17	6.9884e-17
5493.0358	-5.8105e-17	6.8741e-17
5493.4357	-5.9054e-17	6.7837e-17
5493.6357	-5.9995e-17	6.7138e-17
5493.8357	-6.0906e-17	6.6687e-17
5494.0357	-6.1779e-17	6.5908e-17
5494.2357	-6.2613e-17	6.4912e-17
5494.4357	-6.3431e-17	6.3824e-17
5494.6356	-6.4206e-17	6.3412e-17
5494.8356	-6.4947e-17	6.2505e-17
5495.0356	-6.5653e-17	6.1744e-17
5495.2356	-6.6321e-17	6.1045e-17
5495.4356	-6.6950e-17	6.0089e-17
5495.6356	-6.7574e-17	5.9346e-17
5495.8355	-6.8160e-17	5.8291e-17
5496.0355	-6.8698e-17	5.7513e-17
5496.6355	-6.9200e-17	5.6443e-17
5497.2354	-6.9677e-17	5.6137e-17
5497.4354	-7.0115e-17	5.5831e-17
5497.6364	-7.0525e-17	5.5122e-17
5498.0364	-7.0908e-17	5.4837e-17
5498.2363	-7.1256e-17	5.4171e-17
5498.6363	-7.1559e-17	5.3423e-17
5498.8363	-7.1822e-17	5.3116e-17
5499.2363	-7.2041e-17	5.2598e-17
5499.4363	-7.2230e-17	5.2480e-17
5499.6362	-7.2399e-17	5.2044e-17
5500.0362	-7.2520e-17	5.1379e-17
5500.2362	-7.2622e-17	5.1417e-17
5500.4362	-7.2675e-17	5.1010e-17
5500.6362	-7.2678e-17	5.0593e-17
5501.0361	-7.2656e-17	5.0025e-17
5501.4361	-7.2579e-17	4.9414e-17
5501.8361	-7.2479e-17	4.8607e-17
5502.2360	-7.2330e-17	4.7894e-17
5502.4360	-7.2140e-17	4.7769e-17
5502.8370	-7.1918e-17	4.7516e-17
5503.0370	-7.1647e-17	4.6935e-17
5503.8369	-7.1336e-17	4.6394e-17
5504.2369	-7.0990e-17	4.6162e-17
5504.6368	-7.0591e-17	4.5778e-17
5505.0368	-7.0153e-17	4.5253e-17
5505.2368	-6.9671e-17	4.4822e-17
5505.4368	-6.9161e-17	4.4352e-17
5505.6367	-6.8615e-17	4.4064e-17
5505.8367	-6.8011e-17	4.3514e-17
5506.0367	-6.7355e-17	4.3431e-17
5507.0366	-6.6647e-17	4.3106e-17
5507.2366	-6.5907e-17	4.2922e-17
5507.4366	-6.5130e-17	4.2581e-17
5507.6366	-6.4306e-17	4.2453e-17
5507.8366	-6.3450e-17	4.2143e-17
5508.0366	-6.2544e-17	4.1833e-17
5508.2375	-6.1586e-17	4.1822e-17
5508.4375	-6.0590e-17	4.1688e-17
5508.6375	-5.9530e-17	4.1412e-17
5508.8375	-5.8431e-17	4.1506e-17
5509.0375	-5.7282e-17	4.1348e-17
5509.8374	-5.6089e-17	4.1309e-17
5510.0374	-5.4829e-17	4.1258e-17
5510.8373	-5.3535e-17	4.1239e-17
5511.0373	-5.2202e-17	4.1350e-17
5511.4373	-5.0809e-17	4.1535e-17
5511.6373	-4.9354e-17	4.1473e-17
5511.8372	-4.7855e-17	4.1564e-17
5512.0372	-4.6324e-17	4.1621e-17
5512.2372	-4.4736e-17	4.1632e-17
5512.6372	-4.3078e-17	4.1737e-17
5514.2381	-4.1367e-17	4.1896e-17
5514.8380	-3.9620e-17	4.2088e-17
5515.4380	-3.7818e-17	4.2226e-17
5515.6379	-3.5950e-17	4.2276e-17
5516.2379	-3.4025e-17	4.2350e-17
5516.4379	-3.2056e-17	4.2485e-17
5516.6379	-3.0055e-17	4.2624e-17
5516.8378	-2.7990e-17	4.2680e-17
5517.0378	-2.5866e-17	4.2720e-17
5517.6378	-2.3692e-17	4.2807e-17
5517.8378	-2.1461e-17	4.2925e-17
5518.2377	-1.9179e-17	4.3072e-17
5518.4377	-1.6822e-17	4.3158e-17
5518.6377	-1.4422e-17	4.3217e-17
5518.8387	-1.1975e-17	4.3279e-17
5519.0387	-9.4612e-18	4.3355e-17
5519.2386	-6.8873e-18	4.3454e-17
5519.4386	-4.2476e-18	4.3543e-17
5519.6386	-1.5664e-18	4.3676e-17
5519.8386	1.1767e-18	4.3810e-17
5520.0386	6.9716e-19	4.3848e-17
5520.2386	2.4968e-18	4.4004e-17
5520.4385	3.0029e-18	4.4049e-17
5520.6385	4.7151e-18	4.4143e-17
5520.8385	6.7465e-18	4.4160e-17
5521.0385	9.1426e-18	4.4161e-17
5521.2385	1.1927e-17	4.4245e-17
5521.4385	9.6370e-18	4.4385e-17
5521.6384	9.1685e-18	4.4469e-17
5522.2384	9.9999e-18	4.4532e-17
5522.4384	7.3685e-18	4.4572e-17
5522.6384	9.6227e-18	4.4641e-17
5523.6383	1.0957e-17	4.4745e-17
5524.8392	1.3563e-17	4.4803e-17
5525.4391	1.4823e-17	4.4853e-17
5525.6391	1.5240e-17	4.4914e-17
5526.0391	1.6671e-17	4.4941e-17
5526.2391	1.6302e-17	4.4939e-17
5526.8390	1.4949e-17	4.4816e-17
5527.0390	1.4397e-17	4.4690e-17
5527.2390	1.3343e-17	4.4780e-17
5527.8389	1.4503e-17	4.4802e-17
5528.6389	1.2927e-17	4.4624e-17
5528.8389	1.2944e-17	4.4514e-17
5529.0388	1.4548e-17	4.4483e-17
5530.6397	1.6312e-17	4.4365e-17
5530.8397	1.6256e-17	4.4411e-17
5531.0397	1.6910e-17	4.4356e-17
5531.2397	1.6999e-17	4.4417e-17
5531.4397	1.8901e-17	4.4340e-17
5531.8396	2.1098e-17	4.4167e-17
5532.0396	2.0937e-17	4.4147e-17
5532.2396	2.0199e-17	4.4106e-17
5532.6396	1.9253e-17	4.4006e-17
5532.8395	2.1388e-17	4.3663e-17
5533.0395	2.3927e-17	4.3597e-17
5533.6395	2.3506e-17	4.3565e-17
5533.8395	2.2263e-17	4.3532e-17
5534.0394	2.1294e-17	4.3407e-17
5534.4394	2.0386e-17	4.3251e-17
5534.6394	1.9650e-17	4.2930e-17
5534.8404	1.8974e-17	4.2841e-17
5535.0404	1.8567e-17	4.2746e-17
5535.2403	1.8323e-17	4.2621e-17
5535.6403	1.8283e-17	4.2354e-17
5536.2403	1.8313e-17	4.2201e-17
5536.4402	1.8775e-17	4.2115e-17
5536.6402	1.9665e-17	4.1955e-17
5536.8402	2.0766e-17	4.1678e-17
5537.0402	2.1004e-17	4.1586e-17
5537.4402	2.2048e-17	4.1456e-17
5537.6402	2.3514e-17	4.1164e-17
5537.8401	2.5499e-17	4.0850e-17
5538.0401	2.6645e-17	4.0431e-17
5538.2401	2.5371e-17	4.0178e-17
5538.4401	2.5649e-17	4.0051e-17
5538.6401	2.4856e-17	3.9789e-17
5538.8401	2.6410e-17	3.9377e-17
5539.2400	2.7201e-17	3.9014e-17
5539.4400	2.7987e-17	3.8764e-17
5539.6400	2.8719e-17	3.8392e-17
5540.0400	2.9428e-17	3.8197e-17
5540.4409	3.0068e-17	3.7876e-17
5540.6409	3.0636e-17	3.7628e-17
5540.8409	3.1185e-17	3.7176e-17
5541.2409	3.1550e-17	3.6960e-17
5542.2408	3.1872e-17	3.6445e-17
5542.4408	3.2162e-17	3.6238e-17
5542.6407	3.2424e-17	3.5866e-17
5542.8407	3.2629e-17	3.5494e-17
5543.2407	3.2802e-17	3.5057e-17
5543.4407	3.4772e-17	3.4797e-17
5543.6407	3.5707e-17	3.3850e-17
5543.8406	3.5795e-17	3.3632e-17
5544.0406	3.5690e-17	3.3308e-17
5544.6406	3.4855e-17	3.3092e-17
5544.8406	3.3313e-17	3.2613e-17
5545.0405	3.4521e-17	3.2108e-17
5545.2405	3.2758e-17	3.1261e-17
5545.6415	3.2731e-17	3.0963e-17
5546.0415	3.0841e-17	3.0249e-17
5546.2415	3.1648e-17	2.9591e-17
5546.6414	3.0534e-17	2.8697e-17
5546.8414	3.2092e-17	2.8046e-17
5547.0414	3.2645e-17	2.7775e-17
5547.6413	3.2135e-17	2.7238e-17
5547.8413	3.1703e-17	2.6963e-17
5548.0413	3.2866e-17	2.6386e-17
5548.4413	3.2626e-17	2.5173e-17
5548.6413	3.4045e-17	2.4879e-17
5548.8412	3.5516e-17	2.4419e-17
5549.0412	3.5059e-17	2.3820e-17
5549.2412	3.6556e-17	2.3558e-17
5549.4412	3.8152e-17	2.3041e-17
5549.6412	3.8891e-17	2.2590e-17
5549.8412	3.9052e-17	2.2275e-17
5550.0411	3.9046e-17	2.1837e-17
5550.2411	3.8876e-17	2.1547e-17
5550.4411	3.8514e-17	2.1140e-17
5551.4420	3.7823e-17	2.0946e-17
5551.6420	3.6959e-17	2.0411e-17
5551.8420	3.5761e-17	1.9876e-17
5552.6419	3.4067e-17	1.9406e-17
5552.8419	3.2164e-17	1.9255e-17
5553.0419	3.0030e-17	1.9024e-17
5553.2419	3.0706e-17	1.8200e-17
5553.4419	2.9957e-17	1.7465e-17
5553.6419	3.0737e-17	1.7265e-17
5553.8418	3.0038e-17	1.7077e-17
5554.0418	2.9364e-17	1.6868e-17
5554.2418	2.9207e-17	1.6660e-17
5554.4418	3.0121e-17	1.6463e-17
5554.6418	3.0502e-17	1.6278e-17
5555.8417	3.0944e-17	1.6104e-17
5556.0417	3.0315e-17	1.5944e-17
5556.4426	2.9914e-17	1.5797e-17
5556.8426	2.7131e-17	1.5666e-17
5557.0426	2.7347e-17	1.5549e-17
5557.2426	2.7258e-17	1.5449e-17
5557.8425	2.7308e-17	1.5339e-17
5558.0425	2.7630e-17	1.5238e-17
5558.4425	2.6999e-17	1.4999e-17
5558.6424	2.6091e-17	1.4980e-17
5559.0424	2.6775e-17	1.4909e-17
5561.0423	2.7197e-17	1.4851e-17
5561.6432	2.7191e-17	1.4856e-17
5561.8432	2.7545e-17	1.4415e-17
5562.0432	2.7311e-17	1.3921e-17
5562.2432	2.6799e-17	1.3914e-17
5563.2431	2.6969e-17	1.3301e-17
5563.4431	2.5601e-17	1.3125e-17
5563.8430	2.5051e-17	1.3125e-17
5564.0430	2.5616e-17	1.3121e-17
5564.2430	2.5386e-17	1.3083e-17
5564.4430	2.5312e-17	1.2654e-17
5564.8429	2.5624e-17	1.2572e-17
5565.0429	2.5305e-17	1.2474e-17
5565.6429	2.5038e-17	1.2418e-17
5565.8429	2.3836e-17	1.2413e-17
5566.6428	2.4438e-17	1.2271e-17
5566.8438	2.4149e-17	1.2263e-17
5568.4437	2.4484e-17	1.2259e-17
5568.6436	2.3794e-17	1.2175e-17
5568.8436	2.4127e-17	1.2170e-17
5569.4436	2.3708e-17	1.2169e-17
5569.8435	2.3469e-17	1.1924e-17
