#wls	flux	flux_err
5338.0354	9.0055e-16	4.6328e-16
5338.2354	8.9812e-16	4.6328e-16
5338.4353	8.9568e-16	4.6328e-16
5338.6353	8.9322e-16	4.6328e-16
5339.2353	8.9076e-16	4.6328e-16
5340.2352	8.8823e-16	4.6328e-16
5340.4352	8.8561e-16	4.6328e-16
5340.6352	8.8306e-16	4.6328e-16
5340.8351	8.8043e-16	4.6328e-16
5341.0351	8.7783e-16	4.6328e-16
5341.4361	8.7517e-16	4.6328e-16
5341.6361	8.7251e-16	4.6328e-16
5341.8361	8.6985e-16	4.6328e-16
5342.0360	8.6718e-16	4.6328e-16
5342.2360	8.6449e-16	4.6328e-16
5342.6360	8.6179e-16	4.6328e-16
5343.2359	8.5907e-16	4.6328e-16
5343.8359	8.5633e-16	4.6328e-16
5344.0359	8.5358e-16	4.6328e-16
5344.2359	8.5082e-16	4.6328e-16
5344.4359	8.4804e-16	4.6328e-16
5346.4357	8.4525e-16	4.6328e-16
5346.6357	8.4244e-16	4.6328e-16
5346.8367	8.3962e-16	4.6328e-16
5347.0366	8.3680e-16	4.6328e-16
5347.2366	8.3400e-16	4.6328e-16
5347.6366	8.3115e-16	4.6328e-16
5347.8366	8.2827e-16	4.6328e-16
5348.0366	8.2535e-16	4.6328e-16
5348.2365	8.2242e-16	4.6328e-16
5348.6365	8.1957e-16	4.6328e-16
5349.0365	8.1666e-16	4.6328e-16
5349.8364	8.1372e-16	4.6328e-16
5350.2364	8.1081e-16	4.6328e-16
5351.0363	8.0781e-16	4.6328e-16
5351.2363	8.0484e-16	4.6328e-16
5351.4363	8.0182e-16	4.6328e-16
5351.6363	7.9885e-16	4.6328e-16
5352.0372	7.9587e-16	4.6328e-16
5352.4372	7.9285e-16	4.6328e-16
5352.6372	7.8982e-16	4.6328e-16
5353.0372	7.8678e-16	4.6328e-16
5353.2371	7.8373e-16	4.6328e-16
5354.0371	7.8068e-16	4.6328e-16
5354.2371	7.7761e-16	4.6328e-16
5354.4370	7.7454e-16	4.6328e-16
5355.0370	7.7146e-16	4.6328e-16
5355.2370	7.6836e-16	4.6328e-16
5355.4370	7.6526e-16	4.6328e-16
5355.6369	7.6215e-16	4.6328e-16
5356.8368	7.5903e-16	4.6328e-16
5357.0368	7.5591e-16	4.6328e-16
5357.4378	7.5274e-16	4.6328e-16
5357.6378	7.4954e-16	4.6328e-16
5357.8378	7.4632e-16	4.6328e-16
5358.0377	7.4311e-16	4.6328e-16
5358.4377	7.3990e-16	4.6328e-16
5359.8376	7.3672e-16	4.6328e-16
5360.4375	7.3349e-16	4.6328e-16
5360.6375	7.3021e-16	4.6328e-16
5361.0375	7.2696e-16	4.6328e-16
5361.8374	7.2369e-16	4.6328e-16
5362.0374	7.2041e-16	4.6328e-16
5362.2374	7.1712e-16	4.6328e-16
5362.4374	7.1381e-16	4.6328e-16
5362.6384	7.1055e-16	4.6328e-16
5363.4383	7.0731e-16	4.6328e-16
5363.8383	7.0405e-16	4.6328e-16
5364.0383	7.0078e-16	4.6328e-16
5364.6382	6.9749e-16	4.6328e-16
5364.8382	6.9419e-16	4.6328e-16
5365.8381	6.9088e-16	4.6328e-16
5366.0381	6.8755e-16	4.6328e-16
5366.2381	6.8421e-16	4.6328e-16
5367.0380	6.8086e-16	4.6328e-16
5367.2380	6.7750e-16	4.6328e-16
5368.2389	6.7413e-16	4.6328e-16
5368.4389	6.7073e-16	4.6328e-16
5368.6389	6.6733e-16	4.6328e-16
5368.8389	6.6393e-16	4.6328e-16
5369.4388	6.6052e-16	4.6328e-16
5370.0388	6.5710e-16	4.6328e-16
5370.2388	6.5367e-16	4.6328e-16
5370.6387	6.5024e-16	4.6328e-16
5371.2387	6.4680e-16	4.6328e-16
5371.4387	6.4336e-16	4.6328e-16
5372.6386	6.3991e-16	4.6328e-16
5372.8385	6.3646e-16	4.6328e-16
5374.0394	6.3300e-16	4.6328e-16
5375.2393	6.2954e-16	4.6328e-16
5375.4393	6.2607e-16	4.6328e-16
5375.6393	6.2260e-16	4.6328e-16
5377.2392	6.1912e-16	4.6328e-16
5377.8391	6.1564e-16	4.6328e-16
5378.0391	6.1215e-16	4.6328e-16
5378.6401	6.0866e-16	4.6328e-16
5378.8401	6.0517e-16	4.6328e-16
5379.0400	6.0167e-16	4.6328e-16
5380.4399	5.9817e-16	4.6328e-16
5380.8399	5.9467e-16	4.6328e-16
5381.0399	5.9117e-16	4.6328e-16
5381.8398	5.8770e-16	4.6328e-16
5382.8397	5.8420e-16	4.6328e-16
5383.0397	5.8067e-16	4.6328e-16
5383.2397	5.7717e-16	4.6328e-16
5384.6406	5.7370e-16	4.6328e-16
5386.0405	5.7017e-16	4.6328e-16
5386.2405	5.6667e-16	4.6328e-16
5386.8404	5.6316e-16	4.6328e-16
5387.4404	5.5965e-16	4.6328e-16
5388.0403	5.5613e-16	4.6328e-16
5388.2403	5.5262e-16	4.6328e-16
5388.4403	5.4910e-16	4.6328e-16
5388.8412	5.4558e-16	4.6328e-16
5389.2412	5.4206e-16	4.6328e-16
5389.4412	5.3854e-16	4.6323e-16
5389.6412	5.3503e-16	4.4767e-16
5390.4411	5.3151e-16	4.4666e-16
5390.6411	5.2799e-16	4.4622e-16
5390.8411	5.2447e-16	4.4358e-16
5391.0411	5.2096e-16	4.3828e-16
5391.2410	5.1748e-16	4.3725e-16
5391.4410	5.1397e-16	4.3704e-16
5391.8410	5.1044e-16	4.3396e-16
5392.0410	5.0692e-16	4.3297e-16
5392.4409	5.0338e-16	4.3239e-16
5393.0409	4.9987e-16	4.3238e-16
5393.2409	4.9639e-16	4.2898e-16
5394.0418	4.9289e-16	4.2850e-16
5395.0417	4.8937e-16	4.2455e-16
5395.6417	4.8588e-16	4.2459e-16
5395.8417	4.8237e-16	4.2356e-16
5396.0417	4.7885e-16	4.2214e-16
5396.2416	4.7531e-16	4.2199e-16
5397.0416	4.7179e-16	4.1918e-16
5397.6415	4.6828e-16	4.1790e-16
5397.8415	4.6478e-16	3.9913e-16
5398.0415	4.6131e-16	3.9568e-16
5398.2415	4.5781e-16	3.9251e-16
5399.6424	4.5430e-16	3.8966e-16
5399.8423	4.5078e-16	3.8706e-16
5400.8423	4.4729e-16	3.8508e-16
5401.2422	4.4379e-16	3.8335e-16
5401.8422	4.4032e-16	3.8184e-16
5403.0421	4.3683e-16	3.8056e-16
5403.2421	4.3338e-16	3.7971e-16
5404.4420	4.2992e-16	3.7919e-16
5404.8429	4.2645e-16	3.7911e-16
5405.0429	4.2297e-16	3.7916e-16
5405.6429	4.1950e-16	3.7786e-16
5405.8429	4.1603e-16	3.6711e-16
5406.0428	4.1257e-16	3.6711e-16
5406.4428	4.0915e-16	3.6638e-16
5407.0428	4.0570e-16	3.6494e-16
5407.6427	4.0229e-16	3.6431e-16
5407.8427	3.9888e-16	3.6422e-16
5408.0427	3.9546e-16	3.6422e-16
5408.2427	3.9206e-16	3.6378e-16
5408.4426	3.8863e-16	3.5488e-16
5409.4426	3.8522e-16	3.4479e-16
5409.6425	3.8183e-16	3.1727e-16
5409.8435	3.7843e-16	3.1683e-16
5410.0435	3.7505e-16	3.1419e-16
5411.0434	3.7167e-16	3.0433e-16
5411.2434	3.6829e-16	2.9274e-16
5411.4434	3.6494e-16	2.9228e-16
5411.6434	3.6159e-16	2.9229e-16
5411.8434	3.5823e-16	2.9052e-16
5412.8433	3.5487e-16	2.9049e-16
5413.0433	3.5153e-16	2.9050e-16
5414.2432	3.4823e-16	2.8993e-16
5414.4432	3.4493e-16	2.8711e-16
5414.6431	3.4160e-16	2.8585e-16
5414.8431	3.3829e-16	2.8582e-16
5415.4441	3.3501e-16	2.6377e-16
5415.8440	3.3170e-16	2.6366e-16
5416.4440	3.2838e-16	2.6259e-16
5416.6440	3.2511e-16	2.6209e-16
5416.8440	3.2183e-16	2.6171e-16
5417.0439	3.1855e-16	2.6146e-16
5417.4439	3.1527e-16	2.6136e-16
5418.0439	3.1202e-16	2.6137e-16
5418.2438	3.0879e-16	2.6136e-16
5419.0438	3.0555e-16	2.6130e-16
5419.2438	3.0231e-16	2.6091e-16
5419.4438	2.9909e-16	2.6052e-16
5420.6447	2.9592e-16	2.6019e-16
5421.2446	2.9273e-16	2.5993e-16
5422.0445	2.8953e-16	2.5961e-16
5422.2445	2.8634e-16	2.5934e-16
5422.4445	2.8318e-16	2.5908e-16
5422.8445	2.8001e-16	2.5887e-16
5423.6444	2.7684e-16	2.5870e-16
5424.0444	2.7370e-16	2.5853e-16
5425.0443	2.7057e-16	2.5839e-16
5425.2443	2.6746e-16	2.5824e-16
5425.4443	2.6436e-16	2.5824e-16
5425.8452	2.6128e-16	2.5826e-16
5426.0452	2.5823e-16	2.5795e-16
5426.2452	2.5515e-16	2.5637e-16
5426.4452	2.5209e-16	2.5446e-16
5426.8451	2.4908e-16	2.5443e-16
5427.0451	2.4607e-16	2.5371e-16
5427.2451	2.4309e-16	2.5287e-16
5427.6451	2.4006e-16	2.5097e-16
5427.8451	2.3706e-16	2.5103e-16
5428.0451	2.3408e-16	2.5030e-16
5428.2450	2.3109e-16	2.5027e-16
5429.0450	2.2812e-16	2.4986e-16
5429.2450	2.2520e-16	2.4984e-16
5430.0449	2.2227e-16	2.4267e-16
5430.4449	2.1936e-16	2.4231e-16
5430.6448	2.1647e-16	2.4227e-16
5431.0458	2.1357e-16	2.4223e-16
5431.4458	2.1068e-16	2.4120e-16
5432.0457	2.0780e-16	2.3922e-16
5432.2457	2.0496e-16	2.2750e-16
5432.4457	2.0214e-16	2.2523e-16
5432.8457	1.9934e-16	2.2528e-16
5433.0456	1.9652e-16	2.1197e-16
5433.2456	1.9373e-16	1.9781e-16
5434.0456	1.9097e-16	1.9531e-16
5434.2455	1.8823e-16	1.9375e-16
5434.6455	1.8549e-16	1.8949e-16
5435.2455	1.8274e-16	1.8943e-16
5435.8454	1.8000e-16	1.8927e-16
5436.4464	1.7728e-16	1.8848e-16
5436.6464	1.7459e-16	1.8690e-16
5437.4463	1.7190e-16	1.8625e-16
5437.6463	1.6924e-16	1.7680e-16
5438.2462	1.6659e-16	1.7567e-16
5438.8462	1.6394e-16	1.7572e-16
5440.0461	1.6132e-16	1.7574e-16
5440.2461	1.5871e-16	1.7324e-16
5440.4460	1.5612e-16	1.7197e-16
5440.6460	1.5353e-16	1.7165e-16
5441.0460	1.5096e-16	1.7056e-16
5441.2470	1.4843e-16	1.7041e-16
5441.4470	1.4591e-16	1.6449e-16
5441.6469	1.4340e-16	1.6189e-16
5442.2469	1.4091e-16	1.5950e-16
5442.4469	1.3845e-16	1.5707e-16
5442.6469	1.3598e-16	1.5716e-16
5443.2468	1.3355e-16	1.5689e-16
5443.4468	1.3111e-16	1.5558e-16
5444.0468	1.2870e-16	1.5309e-16
5444.2467	1.2632e-16	1.4082e-16
5444.6467	1.2392e-16	1.2682e-16
5444.8467	1.2154e-16	1.2685e-16
5447.0475	1.1919e-16	1.2435e-16
5447.6475	1.1686e-16	1.2445e-16
5447.8474	1.1453e-16	1.2461e-16
5448.2474	1.1223e-16	1.2378e-16
5448.4474	1.0995e-16	1.2393e-16
5448.6474	1.0768e-16	1.2373e-16
5449.4473	1.0546e-16	1.2311e-16
5450.4472	1.0323e-16	1.2129e-16
5450.6472	1.0101e-16	1.2136e-16
5450.8472	9.8849e-17	1.1943e-16
5451.2472	9.6682e-17	1.1902e-16
5451.4472	9.4508e-17	1.0753e-16
5451.6471	9.2374e-17	1.0560e-16
5451.8481	9.0240e-17	1.0455e-16
5452.0481	8.8141e-17	1.0357e-16
5452.4481	8.6044e-17	1.0282e-16
5452.6481	8.3969e-17	1.0223e-16
5452.8480	8.1918e-17	1.0161e-16
5453.0480	7.9878e-17	1.0111e-16
5454.8479	7.7876e-17	1.0066e-16
5455.0479	7.5884e-17	1.0030e-16
5456.0478	7.3900e-17	1.0019e-16
5456.2478	7.1959e-17	1.0000e-16
5456.4477	7.0011e-17	9.9769e-17
5456.6477	6.8099e-17	9.9643e-17
5457.0487	6.6185e-17	9.9737e-17
5457.4487	6.4300e-17	9.8831e-17
5457.6486	6.2450e-17	9.8323e-17
5457.8486	6.0615e-17	9.6734e-17
5458.0486	5.8786e-17	9.5286e-17
5458.4486	5.6964e-17	9.3862e-17
5458.6486	5.5204e-17	9.2257e-17
5458.8485	5.3434e-17	9.0688e-17
5459.0485	5.1668e-17	8.9111e-17
5459.2485	4.9934e-17	8.7256e-17
5460.2484	4.8206e-17	8.5346e-17
5460.4484	4.6499e-17	8.3175e-17
5460.6484	4.4853e-17	8.0983e-17
5460.8484	4.3210e-17	7.8803e-17
5461.4483	4.1558e-17	7.6510e-17
5461.6483	3.9954e-17	7.3986e-17
5461.8483	3.8365e-17	7.1974e-17
5462.0483	3.6777e-17	7.2028e-17
5462.4493	3.5201e-17	6.9111e-17
5462.6492	3.3650e-17	6.9081e-17
5462.8492	3.2126e-17	6.9066e-17
5463.8491	3.0621e-17	6.9094e-17
5464.0491	2.9128e-17	6.9133e-17
5464.2491	2.7671e-17	6.9302e-17
5464.6491	2.6212e-17	6.9397e-17
5464.8491	2.4792e-17	6.9513e-17
5465.2490	2.3404e-17	6.9540e-17
5465.4490	2.2033e-17	6.9576e-17
5466.0490	2.0669e-17	6.9640e-17
5466.6489	1.9325e-17	6.9657e-17
5466.8489	1.7997e-17	6.9674e-17
5467.4489	1.6685e-17	6.9722e-17
5467.6498	1.5395e-17	6.9781e-17
5467.8498	1.4111e-17	6.9789e-17
5468.0498	1.2860e-17	6.9034e-17
5468.4498	1.1621e-17	6.6904e-17
5468.6498	1.0423e-17	6.6182e-17
5468.8497	9.2309e-18	6.4295e-17
5469.0497	8.0547e-18	6.4106e-17
5469.2497	6.8913e-18	6.4052e-17
5469.4497	5.7533e-18	6.2747e-17
5469.6497	4.6422e-18	6.2725e-17
5469.8497	3.5607e-18	6.1395e-17
5470.0496	2.5089e-18	5.9342e-17
5470.4496	1.4551e-18	5.8179e-17
5470.8496	4.2063e-19	5.7020e-17
5471.0496	-5.8006e-19	5.7004e-17
5471.4495	-1.5680e-18	5.6612e-17
5471.6495	-2.5463e-18	5.5986e-17
5472.0495	-3.5130e-18	5.3921e-17
5472.6494	-4.4512e-18	5.3909e-17
5472.8504	-5.3598e-18	5.3497e-17
5473.0504	-6.2680e-18	5.3453e-17
5473.2504	-7.1341e-18	5.2395e-17
5473.8503	-7.9933e-18	5.0941e-17
5474.0503	-8.8324e-18	4.8988e-17
5474.4503	-9.6400e-18	4.8476e-17
5474.6503	-1.0447e-17	4.8374e-17
5475.0502	-1.1235e-17	4.7490e-17
5475.2502	-1.2004e-17	4.6322e-17
5475.4502	-1.2752e-17	4.6191e-17
5475.8502	-1.3481e-17	4.6098e-17
5476.0502	-1.4189e-17	4.6004e-17
5476.4501	-1.4877e-17	4.5910e-17
5476.8501	-1.5545e-17	4.5830e-17
5477.4500	-1.6191e-17	4.5762e-17
5477.6500	-1.6816e-17	4.5710e-17
5477.8500	-1.7422e-17	4.5671e-17
5478.0510	-1.8009e-17	4.5643e-17
5479.0509	-1.8576e-17	4.5627e-17
5479.2509	-1.9122e-17	4.5622e-17
5479.6509	-1.9658e-17	4.5636e-17
5479.8508	-2.0184e-17	4.5431e-17
5480.0508	-2.0686e-17	4.4479e-17
5480.2508	-2.1172e-17	4.3294e-17
5480.4508	-2.1637e-17	4.2151e-17
5480.6508	-2.2078e-17	4.1888e-17
5481.0507	-2.2496e-17	4.1078e-17
5481.4507	-2.2908e-17	4.1024e-17
5481.8507	-2.3303e-17	4.1019e-17
5482.0507	-2.3682e-17	4.0888e-17
5482.6506	-2.4036e-17	4.0709e-17
5483.2516	-2.4367e-17	4.0701e-17
5483.4516	-2.4690e-17	3.9869e-17
5483.6515	-2.4972e-17	3.9245e-17
5484.0515	-2.5254e-17	3.9255e-17
5484.2515	-2.5529e-17	3.9057e-17
5484.4515	-2.5755e-17	3.8224e-17
5484.6515	-2.5970e-17	3.8232e-17
5485.0514	-2.6175e-17	3.8096e-17
5485.6514	-2.6371e-17	3.7551e-17
5485.8514	-2.6555e-17	3.6716e-17
5486.0513	-2.6714e-17	3.6185e-17
5487.8512	-2.6857e-17	3.5289e-17
5488.0512	-2.6985e-17	3.5139e-17
5488.4521	-2.7095e-17	3.4400e-17
5488.6521	-2.7182e-17	3.3555e-17
5488.8521	-2.7250e-17	3.3415e-17
5489.6520	-2.7311e-17	3.2757e-17
5490.2520	-2.7352e-17	3.2090e-17
5490.4520	-2.7390e-17	3.1332e-17
5490.6520	-2.7400e-17	3.1285e-17
5491.0519	-2.7393e-17	3.1182e-17
5491.2519	-2.7372e-17	3.0442e-17
5491.4519	-2.7332e-17	3.0307e-17
5491.8519	-2.7285e-17	2.9639e-17
5492.0519	-2.7219e-17	2.8917e-17
5492.2518	-2.7138e-17	2.8106e-17
5492.6518	-2.7045e-17	2.7789e-17
5492.8518	-2.6936e-17	2.7319e-17
5493.0518	-2.6801e-17	2.6986e-17
5493.2518	-2.6654e-17	2.6552e-17
5493.4517	-2.6494e-17	2.6121e-17
5493.6517	-2.6321e-17	2.5824e-17
5493.8527	-2.6135e-17	2.5120e-17
5494.0527	-2.5936e-17	2.4944e-17
5494.2527	-2.5725e-17	2.4601e-17
5494.6526	-2.5500e-17	2.4593e-17
5494.8526	-2.5265e-17	2.4270e-17
5495.0526	-2.5017e-17	2.3893e-17
5495.2526	-2.4757e-17	2.3672e-17
5495.4526	-2.4485e-17	2.3668e-17
5495.6526	-2.4191e-17	2.3698e-17
5495.8525	-2.3898e-17	2.3646e-17
5496.0525	-2.3578e-17	2.3485e-17
5496.2525	-2.3252e-17	2.3475e-17
5496.4525	-2.2908e-17	2.3222e-17
5497.8524	-2.2561e-17	2.3223e-17
5498.0524	-2.2185e-17	2.3262e-17
5498.2523	-2.1802e-17	2.3271e-17
5498.4523	-2.1419e-17	2.3273e-17
5498.6523	-2.1014e-17	2.3159e-17
5498.8523	-2.0587e-17	2.2913e-17
5499.0533	-2.0155e-17	2.2811e-17
5499.4533	-1.9715e-17	2.2960e-17
5499.6532	-1.9276e-17	2.2655e-17
5500.0532	-1.8816e-17	2.2599e-17
5500.2532	-1.8344e-17	2.2571e-17
5500.4532	-1.7873e-17	2.2550e-17
5500.6532	-1.7393e-17	2.2491e-17
5501.0531	-1.6883e-17	2.2439e-17
5501.4531	-1.6382e-17	2.2426e-17
5501.6531	-1.5867e-17	2.2247e-17
5502.0530	-1.5334e-17	2.2156e-17
5502.6530	-1.4804e-17	2.2030e-17
5503.0530	-1.4275e-17	2.1957e-17
5503.2529	-1.3730e-17	2.2024e-17
5503.4529	-1.3160e-17	2.2110e-17
5504.0529	-1.2594e-17	2.2216e-17
5504.2539	-1.2022e-17	2.2195e-17
5505.0538	-1.1454e-17	2.2217e-17
5505.4538	-1.0884e-17	2.2331e-17
5505.6537	-1.0307e-17	2.2426e-17
5505.8537	-9.6903e-18	2.2566e-17
5506.0537	-9.0633e-18	2.2629e-17
5506.2537	-8.4580e-18	2.2741e-17
5506.8537	-7.8420e-18	2.2859e-17
5507.0536	-7.2069e-18	2.3016e-17
5507.2536	-6.5661e-18	2.3157e-17
5507.8536	-5.9267e-18	2.3306e-17
5508.0536	-5.2834e-18	2.3479e-17
5508.2535	-4.6463e-18	2.3648e-17
5508.4535	-4.0038e-18	2.3822e-17
5508.6535	-3.3552e-18	2.3956e-17
5508.8535	-2.7049e-18	2.4139e-17
5509.0535	-2.0452e-18	2.4314e-17
5509.6544	-1.3847e-18	2.4476e-17
5509.8544	-7.2004e-19	2.4652e-17
5510.0544	-6.6814e-20	2.4788e-17
5510.2544	5.9128e-19	2.4959e-17
5510.4544	1.2656e-18	2.5129e-17
5511.0543	1.9314e-18	2.5194e-17
5511.4543	2.5899e-18	2.5313e-17
5511.6543	3.2578e-18	2.5509e-17
5512.2542	3.9380e-18	2.5484e-17
5512.4542	4.6043e-18	2.5509e-17
5513.6541	5.2937e-18	2.5678e-17
5514.0541	5.9591e-18	2.5542e-17
5514.2540	6.6471e-18	2.5491e-17
5514.6540	7.3063e-18	2.5579e-17
5514.8550	7.9791e-18	2.5673e-17
5515.0550	8.6360e-18	2.5758e-17
5515.2550	9.3018e-18	2.5745e-17
5515.4550	9.9617e-18	2.5842e-17
5515.8549	1.0630e-17	2.5897e-17
5516.0549	7.7881e-18	2.5911e-17
5516.2549	7.6397e-18	2.5925e-17
5516.4549	7.7691e-18	2.5936e-17
5516.8548	1.0085e-17	2.6006e-17
5517.0548	8.7314e-18	2.5752e-17
5517.4548	8.5310e-18	2.5567e-17
5517.8548	8.8538e-18	2.5570e-17
5518.0547	1.1225e-17	2.5607e-17
5518.6547	1.2936e-17	2.5678e-17
5518.8547	1.4454e-17	2.5622e-17
5519.0547	1.5406e-17	2.5672e-17
5519.2546	1.7971e-17	2.5641e-17
5519.8546	1.8269e-17	2.5591e-17
5520.0556	1.7361e-17	2.5184e-17
5520.2556	1.8290e-17	2.5141e-17
5520.6555	2.0088e-17	2.5095e-17
5520.8555	1.9906e-17	2.5148e-17
5521.2555	2.0394e-17	2.5117e-17
5521.4555	2.2791e-17	2.5201e-17
5521.6554	2.4747e-17	2.5250e-17
5521.8554	2.1843e-17	2.5166e-17
5522.6554	2.1068e-17	2.4776e-17
5522.8554	2.0322e-17	2.4705e-17
5523.6553	1.9627e-17	2.4720e-17
5525.0552	1.9005e-17	2.4756e-17
5525.2562	1.8498e-17	2.4475e-17
5525.4561	1.8056e-17	2.4281e-17
5526.4561	1.7669e-17	2.4210e-17
5526.6560	1.7353e-17	2.4178e-17
5526.8560	1.7197e-17	2.4191e-17
5527.0560	1.7187e-17	2.4158e-17
5527.2560	1.7540e-17	2.4098e-17
5527.6560	1.8060e-17	2.4014e-17
5527.8559	1.9656e-17	2.3879e-17
5528.0559	1.7508e-17	2.3487e-17
5528.2559	1.8099e-17	2.3287e-17
5529.2558	1.9412e-17	2.3038e-17
5529.4558	1.8968e-17	2.2919e-17
5529.6558	2.0199e-17	2.2896e-17
5529.8558	2.1056e-17	2.2380e-17
5530.4567	2.1615e-17	2.2167e-17
5531.8566	2.2752e-17	2.2125e-17
5532.0566	2.0853e-17	2.1946e-17
5532.8565	1.8766e-17	2.1900e-17
5533.0565	1.5039e-17	2.1877e-17
5533.2565	1.5926e-17	2.1702e-17
5533.8565	1.7573e-17	2.1529e-17
5534.0564	1.5539e-17	2.1339e-17
5534.2564	1.3284e-17	2.0990e-17
5534.4564	1.4077e-17	2.0971e-17
5534.6564	1.4313e-17	2.0781e-17
5535.0564	1.5620e-17	2.0503e-17
5535.6573	1.5726e-17	2.0454e-17
5535.8573	1.5941e-17	2.0408e-17
5536.0573	1.6822e-17	2.0380e-17
5536.4572	1.8399e-17	2.0239e-17
5536.8572	1.7910e-17	1.9867e-17
5537.0572	1.8430e-17	1.9587e-17
5537.4572	1.5313e-17	1.9409e-17
5537.6571	1.5292e-17	1.9278e-17
5538.4571	1.6285e-17	1.8876e-17
5538.6571	1.6018e-17	1.8790e-17
5539.6570	1.5801e-17	1.8689e-17
5539.8570	1.5639e-17	1.8672e-17
5540.0570	1.5558e-17	1.8557e-17
5540.8569	1.5763e-17	1.8533e-17
5541.0579	1.6113e-17	1.8136e-17
5541.4578	1.6554e-17	1.7928e-17
5541.8578	1.7230e-17	1.7689e-17
5542.0578	1.7904e-17	1.7697e-17
5542.6577	1.8556e-17	1.7661e-17
5542.8577	1.9207e-17	1.7524e-17
5543.0577	1.9856e-17	1.7500e-17
5543.2577	2.0486e-17	1.7514e-17
5543.8576	2.1113e-17	1.7409e-17
5544.6576	2.1715e-17	1.7240e-17
5544.8576	2.2312e-17	1.7210e-17
5545.2575	2.2904e-17	1.7227e-17
5545.4575	2.3492e-17	1.7219e-17
5545.6575	2.4063e-17	1.6977e-17
5546.2585	2.4267e-17	1.6961e-17
5546.8584	2.4437e-17	1.6470e-17
5547.0584	2.5127e-17	1.6223e-17
5547.2584	2.4496e-17	1.5995e-17
5547.4584	2.5732e-17	1.5718e-17
5547.6583	2.6229e-17	1.5622e-17
5547.8583	2.7120e-17	1.5597e-17
5548.0583	2.6732e-17	1.5358e-17
5548.4583	2.7989e-17	1.5183e-17
5548.6583	2.8317e-17	1.5198e-17
5548.8582	2.9222e-17	1.5127e-17
5549.2582	2.9729e-17	1.5058e-17
5549.4582	2.9553e-17	1.5055e-17
5549.6582	3.0049e-17	1.4998e-17
5549.8582	2.8466e-17	1.4808e-17
5550.2581	2.9145e-17	1.4704e-17
5550.4581	2.9242e-17	1.4645e-17
5550.6581	2.9266e-17	1.4611e-17
5551.2580	3.0211e-17	1.4608e-17
5551.4590	3.1425e-17	1.4556e-17
5551.6590	2.9372e-17	1.4223e-17
5551.8590	3.0597e-17	1.4223e-17
5552.4589	3.0845e-17	1.4129e-17
5552.6589	2.8676e-17	1.4110e-17
5552.8589	2.6439e-17	1.3943e-17
5553.8588	2.7513e-17	1.3833e-17
5554.0588	2.8409e-17	1.3823e-17
5554.2588	2.7253e-17	1.3803e-17
5554.4588	2.7619e-17	1.3754e-17
5554.8588	2.8008e-17	1.3667e-17
5555.0587	2.7525e-17	1.3571e-17
5555.2587	2.8384e-17	1.3436e-17
5555.4587	2.7950e-17	1.3270e-17
5556.0587	2.6187e-17	1.3075e-17
5556.2586	2.5543e-17	1.2798e-17
5556.4586	2.5370e-17	1.2419e-17
5557.4595	2.5527e-17	1.1976e-17
5558.6594	2.4562e-17	1.1441e-17
5559.0594	2.5194e-17	1.1332e-17
5559.2594	2.5596e-17	1.1328e-17
5559.6594	2.4904e-17	1.1159e-17
5559.8593	2.5113e-17	1.1153e-17
5560.8593	2.3647e-17	1.1089e-17
5561.4592	2.4464e-17	1.1099e-17
5562.0602	2.5273e-17	1.1099e-17
5562.2602	2.4314e-17	1.1079e-17
5562.4601	2.4114e-17	1.1111e-17
5562.6601	2.4360e-17	1.1103e-17
5563.8600	2.4932e-17	1.1111e-17
5564.0600	2.5729e-17	1.1106e-17
5564.8599	2.3749e-17	1.1107e-17
5565.4599	2.1690e-17	1.1117e-17
5566.0598	2.1301e-17	1.1120e-17
5566.2598	2.0303e-17	1.1126e-17
5566.4598	2.0150e-17	1.1126e-17
5566.6598	1.9814e-17	1.1126e-17
5566.8598	1.9035e-17	1.1127e-17
5567.0598	1.8805e-17	1.1114e-17
5567.2607	1.8794e-17	1.0953e-17
5567.6607	1.8932e-17	1.0932e-17
5568.2607	1.9379e-17	1.0983e-17
5568.8606	1.9293e-17	1.0961e-17
5569.4606	1.8321e-17	1.0944e-17
5569.6606	1.7661e-17	1.0787e-17
5569.8605	1.5751e-17	1.0743e-17
5570.0605	1.6049e-17	1.0748e-17
5570.6605	1.6183e-17	1.0614e-17
5570.8605	1.6316e-17	1.0595e-17
5571.0604	1.6412e-17	1.0597e-17
5571.2604	1.6489e-17	1.0581e-17
5572.0604	1.6554e-17	1.0500e-17
5572.2603	1.6589e-17	1.0426e-17
5572.6613	1.6599e-17	1.0419e-17
5572.8613	1.6575e-17	1.0428e-17
5573.4612	1.6540e-17	1.0426e-17
5573.6612	1.6488e-17	1.0419e-17
5573.8612	1.6411e-17	1.0430e-17
5574.0612	1.6322e-17	1.0405e-17
5574.2612	1.6033e-17	1.0369e-17
5574.8611	1.5251e-17	1.0291e-17
5575.0611	1.5248e-17	1.0216e-17
