#wls	flux	flux_err
5337.8194	7.0266e-16	3.6503e-16
5338.4193	7.0064e-16	3.6503e-16
5338.8193	6.9859e-16	3.6503e-16
5339.0193	6.9651e-16	3.6503e-16
5339.6192	6.9443e-16	3.6503e-16
5341.0191	6.9231e-16	3.6503e-16
5341.8201	6.9026e-16	3.6503e-16
5342.4200	6.8811e-16	3.6503e-16
5342.8200	6.8598e-16	3.6503e-16
5343.2199	6.8388e-16	3.6503e-16
5343.4199	6.8175e-16	3.6503e-16
5343.8199	6.7956e-16	3.6503e-16
5344.2199	6.7736e-16	3.6503e-16
5345.6198	6.7518e-16	3.6503e-16
5346.0197	6.7301e-16	3.6503e-16
5346.4197	6.7084e-16	3.6503e-16
5346.8207	6.6860e-16	3.6503e-16
5348.0206	6.6639e-16	3.6503e-16
5349.2205	6.6422e-16	3.6503e-16
5349.6204	6.6201e-16	3.6503e-16
5349.8204	6.5981e-16	3.6503e-16
5350.2204	6.5767e-16	3.6503e-16
5351.8202	6.5547e-16	3.6503e-16
5352.6212	6.5320e-16	3.6503e-16
5352.8212	6.5088e-16	3.6503e-16
5353.0212	6.4857e-16	3.6503e-16
5353.2211	6.4628e-16	3.6503e-16
5355.2210	6.4399e-16	3.6503e-16
5355.4210	6.4172e-16	3.6503e-16
5355.6209	6.3949e-16	3.6503e-16
5356.6209	6.3719e-16	3.6503e-16
5357.0208	6.3482e-16	3.6503e-16
5357.2208	6.3249e-16	3.6503e-16
5358.6217	6.3012e-16	3.6503e-16
5359.2216	6.2771e-16	3.6503e-16
5359.4216	6.2536e-16	3.6503e-16
5359.6216	6.2298e-16	3.6503e-16
5359.8216	6.2056e-16	3.6503e-16
5360.0216	6.1817e-16	3.6503e-16
5360.8215	6.1581e-16	3.6503e-16
5361.6215	6.1344e-16	3.6503e-16
5361.8214	6.1105e-16	3.6503e-16
5362.8224	6.0865e-16	3.6503e-16
5363.0223	6.0622e-16	3.6503e-16
5363.6223	6.0378e-16	3.6503e-16
5364.0223	6.0133e-16	3.6503e-16
5364.2222	5.9887e-16	3.6503e-16
5364.8222	5.9640e-16	3.6503e-16
5365.8221	5.9391e-16	3.6503e-16
5366.8220	5.9141e-16	3.6503e-16
5367.6220	5.8889e-16	3.6503e-16
5368.4229	5.8637e-16	3.6503e-16
5370.0228	5.8386e-16	3.6503e-16
5370.2228	5.8134e-16	3.6503e-16
5370.4227	5.7882e-16	3.6503e-16
5370.6227	5.7631e-16	3.6503e-16
5371.2227	5.7380e-16	3.6503e-16
5371.4227	5.7129e-16	3.6503e-16
5372.4226	5.6878e-16	3.6503e-16
5372.6226	5.6626e-16	3.6503e-16
5373.2225	5.6375e-16	3.6503e-16
5374.0234	5.6124e-16	3.6503e-16
5374.8234	5.5872e-16	3.6503e-16
5375.4233	5.5620e-16	3.6503e-16
5375.6233	5.5370e-16	3.6503e-16
5375.8233	5.5113e-16	3.6503e-16
5376.0233	5.4857e-16	3.6503e-16
5376.2233	5.4595e-16	3.6503e-16
5376.6232	5.4334e-16	3.6503e-16
5377.0232	5.4072e-16	3.6503e-16
5377.2232	5.3810e-16	3.6503e-16
5377.8231	5.3549e-16	3.6503e-16
5380.2239	5.3287e-16	3.6503e-16
5380.4239	5.3026e-16	3.6503e-16
5380.6239	5.2764e-16	3.6503e-16
5380.8239	5.2502e-16	3.6503e-16
5381.2239	5.2239e-16	3.6503e-16
5381.4238	5.1977e-16	3.6503e-16
5381.6238	5.1715e-16	3.6503e-16
5382.8237	5.1451e-16	3.6503e-16
5384.0236	5.1190e-16	3.6503e-16
5384.2246	5.0929e-16	3.6503e-16
5385.0245	5.0667e-16	3.6503e-16
5385.2245	5.0403e-16	3.6503e-16
5386.2245	5.0136e-16	3.6503e-16
5386.6244	4.9868e-16	3.6503e-16
5386.8244	4.9605e-16	3.6503e-16
5387.6243	4.9341e-16	3.6503e-16
5387.8243	4.9072e-16	3.6503e-16
5388.4243	4.8812e-16	3.6503e-16
5388.6243	4.8548e-16	3.6503e-16
5388.8242	4.8284e-16	3.6503e-16
5389.0242	4.8023e-16	3.6503e-16
5389.4242	4.7756e-16	3.6503e-16
5390.0251	4.7485e-16	3.6503e-16
5390.2251	4.7224e-16	3.6503e-16
5390.4251	4.6954e-16	3.6503e-16
5390.6251	4.6684e-16	3.6503e-16
5391.2250	4.6416e-16	3.6503e-16
5391.8250	4.6151e-16	3.6503e-16
5392.0250	4.5881e-16	3.6503e-16
5392.6249	4.5612e-16	3.6503e-16
5392.8249	4.5346e-16	3.6503e-16
5393.2249	4.5081e-16	3.6503e-16
5393.4249	4.4814e-16	3.6503e-16
5393.6249	4.4544e-16	3.6503e-16
5394.4248	4.4278e-16	3.6503e-16
5394.6248	4.4017e-16	3.6503e-16
5394.8258	4.3752e-16	3.6503e-16
5395.2257	4.3482e-16	3.6503e-16
5396.2256	4.3210e-16	3.6503e-16
5397.0256	4.2945e-16	3.6503e-16
5397.2256	4.2677e-16	3.6503e-16
5397.6255	4.2415e-16	3.6503e-16
5398.2255	4.2153e-16	3.6503e-16
5398.4255	4.1881e-16	3.6503e-16
5398.8254	4.1610e-16	3.6503e-16
5399.0254	4.1341e-16	3.6503e-16
5399.6254	4.1068e-16	3.6503e-16
5399.8253	4.0796e-16	3.6497e-16
5401.0262	4.0525e-16	3.6381e-16
5401.2262	4.0253e-16	3.6230e-16
5401.6262	3.9988e-16	3.4704e-16
5402.2262	3.9716e-16	3.4424e-16
5402.4261	3.9447e-16	3.2662e-16
5403.6260	3.9178e-16	3.2629e-16
5403.8260	3.8912e-16	3.2472e-16
5404.0260	3.8647e-16	3.2216e-16
5404.2260	3.8376e-16	3.2141e-16
5404.4260	3.8107e-16	3.1958e-16
5404.6260	3.7836e-16	2.5050e-16
5404.8259	3.7574e-16	2.4763e-16
5405.0259	3.7312e-16	2.4763e-16
5405.2259	3.7046e-16	2.4383e-16
5405.6269	3.6776e-16	2.3790e-16
5406.0268	3.6510e-16	2.3719e-16
5406.2268	3.6247e-16	2.3453e-16
5406.4268	3.5978e-16	2.2320e-16
5407.2267	3.5712e-16	2.2159e-16
5407.4267	3.5446e-16	2.1795e-16
5407.6267	3.5180e-16	2.1477e-16
5407.8267	3.4915e-16	2.1336e-16
5408.4266	3.4652e-16	2.1257e-16
5409.0266	3.4388e-16	2.1189e-16
5409.2266	3.4122e-16	2.1132e-16
5409.4266	3.3858e-16	2.1084e-16
5409.6265	3.3595e-16	2.1084e-16
5410.4265	3.3329e-16	2.1082e-16
5410.6265	3.3065e-16	2.1080e-16
5410.8275	3.2810e-16	2.1074e-16
5412.2273	3.2552e-16	2.1065e-16
5413.0273	3.2290e-16	2.1054e-16
5413.2273	3.2030e-16	2.1031e-16
5413.4272	3.1766e-16	2.1001e-16
5415.4271	3.1505e-16	2.0969e-16
5415.6271	3.1247e-16	2.0934e-16
5415.8270	3.0988e-16	2.0900e-16
5416.8280	3.0730e-16	2.0862e-16
5417.0279	3.0473e-16	2.0811e-16
5417.6279	3.0213e-16	2.0748e-16
5418.2279	2.9954e-16	2.0682e-16
5418.4278	2.9695e-16	2.0597e-16
5418.8278	2.9442e-16	2.0508e-16
5419.2278	2.9189e-16	2.0405e-16
5419.4278	2.8937e-16	2.0295e-16
5419.6277	2.8680e-16	2.0180e-16
5420.4277	2.8422e-16	2.0174e-16
5420.6277	2.8170e-16	2.0171e-16
5420.8276	2.7917e-16	2.0170e-16
5421.0276	2.7662e-16	2.0171e-16
5422.6285	2.7408e-16	2.0170e-16
5422.8285	2.7160e-16	2.0165e-16
5423.6284	2.6907e-16	2.0161e-16
5423.8284	2.6658e-16	2.0153e-16
5424.4283	2.6408e-16	2.0145e-16
5424.6283	2.6156e-16	2.0133e-16
5425.4283	2.5905e-16	2.0121e-16
5425.6282	2.5657e-16	2.0101e-16
5425.8282	2.5409e-16	2.0080e-16
5426.0282	2.5163e-16	1.9922e-16
5426.2282	2.4920e-16	1.9820e-16
5426.4282	2.4677e-16	1.9535e-16
5426.6282	2.4432e-16	1.9367e-16
5426.8292	2.4188e-16	1.9229e-16
5427.0291	2.3946e-16	1.9120e-16
5428.0291	2.3706e-16	1.9037e-16
5428.2290	2.3463e-16	1.8976e-16
5428.4290	2.3223e-16	1.8949e-16
5428.6290	2.2983e-16	1.8943e-16
5429.0290	2.2745e-16	1.8944e-16
5429.6289	2.2508e-16	1.8938e-16
5430.2289	2.2272e-16	1.8592e-16
5430.4289	2.2034e-16	1.8177e-16
5431.2288	2.1799e-16	1.7693e-16
5431.8287	2.1566e-16	1.7224e-16
5432.0287	2.1332e-16	1.6819e-16
5432.2297	2.1097e-16	1.6438e-16
5432.8297	2.0864e-16	1.6083e-16
5433.8296	2.0635e-16	1.5909e-16
5434.0296	2.0406e-16	1.5857e-16
5434.2295	2.0180e-16	1.5818e-16
5434.4295	1.9952e-16	1.5814e-16
5434.6295	1.9724e-16	1.5821e-16
5435.2295	1.9499e-16	1.5823e-16
5435.6294	1.9276e-16	1.5824e-16
5436.8293	1.9051e-16	1.5831e-16
5437.0293	1.8826e-16	1.5835e-16
5437.2293	1.8606e-16	1.5843e-16
5437.4293	1.8384e-16	1.5839e-16
5438.2302	1.8162e-16	1.5821e-16
5438.4302	1.7944e-16	1.5805e-16
5439.0302	1.7724e-16	1.5778e-16
5439.2301	1.7505e-16	1.5743e-16
5439.6301	1.7288e-16	1.5689e-16
5440.6300	1.7073e-16	1.5642e-16
5440.8300	1.6859e-16	1.5598e-16
5441.0300	1.6645e-16	1.5557e-16
5441.2300	1.6433e-16	1.5538e-16
5441.4300	1.6222e-16	1.5514e-16
5441.8299	1.6009e-16	1.5497e-16
5442.0299	1.5798e-16	1.5487e-16
5442.2299	1.5589e-16	1.5478e-16
5443.6308	1.5380e-16	1.5477e-16
5444.2307	1.5173e-16	1.5469e-16
5444.4307	1.4967e-16	1.5457e-16
5444.6307	1.4762e-16	1.5431e-16
5445.2307	1.4558e-16	1.5403e-16
5445.4306	1.4355e-16	1.5378e-16
5445.6306	1.4154e-16	1.5334e-16
5446.0306	1.3953e-16	1.5269e-16
5446.2306	1.3754e-16	1.5165e-16
5446.6305	1.3558e-16	1.5051e-16
5446.8305	1.3363e-16	1.4933e-16
5447.0305	1.3169e-16	1.4877e-16
5447.2305	1.2974e-16	1.4867e-16
5447.4305	1.2782e-16	1.4758e-16
5448.4314	1.2591e-16	1.4665e-16
5449.0313	1.2402e-16	1.4460e-16
5449.2313	1.2217e-16	1.4331e-16
5449.4313	1.2033e-16	1.4319e-16
5449.6313	1.1847e-16	1.3605e-16
5449.8313	1.1663e-16	1.3590e-16
5450.0313	1.1481e-16	1.3527e-16
5450.2312	1.1298e-16	1.3357e-16
5451.0312	1.1117e-16	1.3281e-16
5451.2312	1.0940e-16	1.2583e-16
5451.4312	1.0762e-16	1.2588e-16
5452.2311	1.0583e-16	1.1999e-16
5452.4311	1.0409e-16	1.1311e-16
5452.6311	1.0235e-16	1.1292e-16
5452.8310	1.0061e-16	1.1285e-16
5453.0310	9.8898e-17	1.1248e-16
5453.2310	9.7191e-17	1.1100e-16
5453.6320	9.5490e-17	1.0320e-16
5453.8320	9.3814e-17	1.0233e-16
5454.0319	9.2164e-17	1.0230e-16
5454.2319	9.0499e-17	1.0208e-16
5454.6319	8.8883e-17	1.0017e-16
5454.8319	8.7269e-17	9.9670e-17
5455.0319	8.5669e-17	9.8239e-17
5455.2318	8.4099e-17	9.8060e-17
5455.8318	8.2534e-17	9.6465e-17
5456.0318	8.0940e-17	9.6488e-17
5456.2318	7.9380e-17	9.6293e-17
5456.6317	7.7846e-17	9.5027e-17
5456.8317	7.6318e-17	9.4239e-17
5457.0317	7.4793e-17	9.4203e-17
5457.6316	7.3289e-17	8.3756e-17
5457.8316	7.1809e-17	8.2945e-17
5458.2316	7.0328e-17	8.0867e-17
5458.4316	6.8850e-17	7.9881e-17
5459.0325	6.7385e-17	7.8846e-17
5460.0325	6.5947e-17	7.7686e-17
5460.2324	6.4538e-17	7.7513e-17
5460.6324	6.3138e-17	7.5597e-17
5461.0324	6.1743e-17	7.0808e-17
5461.4323	6.0392e-17	6.9651e-17
5461.8323	5.9058e-17	6.9082e-17
5462.2323	5.7710e-17	6.9120e-17
5462.4323	5.6364e-17	6.9256e-17
5462.6322	5.5034e-17	6.9323e-17
5462.8322	5.3721e-17	6.9207e-17
5463.0322	5.2429e-17	6.7709e-17
5463.2322	5.1130e-17	6.5638e-17
5463.4322	4.9877e-17	6.5640e-17
5464.0321	4.8638e-17	6.5121e-17
5464.4331	4.7394e-17	6.3814e-17
5464.6331	4.6161e-17	6.3638e-17
5464.8331	4.4949e-17	6.2953e-17
5466.4329	4.3756e-17	6.1131e-17
5466.6329	4.2560e-17	5.9870e-17
5467.4329	4.1380e-17	5.9240e-17
5467.6328	4.0243e-17	5.8463e-17
5467.8328	3.9107e-17	5.8533e-17
5468.0328	3.7959e-17	5.7855e-17
5468.2328	3.6833e-17	5.7795e-17
5468.4328	3.5711e-17	5.7509e-17
5469.0327	3.4629e-17	5.7274e-17
5469.2327	3.3584e-17	5.7032e-17
5469.4327	3.2521e-17	5.6663e-17
5470.2336	3.1483e-17	5.4716e-17
5470.4336	3.0468e-17	5.3562e-17
5470.8336	2.9473e-17	5.2066e-17
5471.0336	2.8463e-17	5.2232e-17
5471.4335	2.7468e-17	5.2021e-17
5471.6335	2.6497e-17	5.1783e-17
5471.8335	2.5542e-17	5.1722e-17
5472.4334	2.4579e-17	5.1101e-17
5472.6334	2.3622e-17	5.1135e-17
5472.8334	2.2709e-17	5.0833e-17
5473.0334	2.1828e-17	5.0272e-17
5473.2334	2.0931e-17	5.0358e-17
5473.4334	2.0078e-17	5.0364e-17
5473.6333	1.9207e-17	5.0307e-17
5473.8333	1.8353e-17	4.9934e-17
5474.0333	1.7515e-17	4.9371e-17
5474.4333	1.6685e-17	4.9084e-17
5475.4342	1.5879e-17	4.8978e-17
5475.6342	1.5090e-17	4.8925e-17
5475.8342	1.4299e-17	4.7894e-17
5476.2341	1.3538e-17	4.7728e-17
5476.8341	1.2776e-17	4.7715e-17
5477.0341	1.2073e-17	4.6509e-17
5477.2341	1.1354e-17	4.5058e-17
5478.0340	1.0650e-17	4.4774e-17
5478.2340	9.9770e-18	4.3817e-17
5478.4340	9.2905e-18	4.3416e-17
5479.8338	8.6195e-18	4.2253e-17
5480.0338	7.9707e-18	4.2253e-17
5480.6348	7.3268e-18	4.1620e-17
5480.8348	6.6844e-18	4.1551e-17
5481.0347	6.0788e-18	4.1482e-17
5481.8347	5.4756e-18	4.1410e-17
5482.0347	4.8818e-18	4.1313e-17
5482.2346	4.3152e-18	4.1260e-17
5482.6346	3.7505e-18	4.1168e-17
5482.8346	3.2211e-18	4.1072e-17
5483.0346	2.6946e-18	4.1014e-17
5483.2346	2.1883e-18	4.0920e-17
5483.4346	1.6845e-18	4.0817e-17
5483.6345	1.1987e-18	4.0714e-17
5483.8345	7.1945e-19	4.0560e-17
5484.0345	2.5606e-19	4.0350e-17
5484.4345	-2.0602e-19	4.0302e-17
5484.6345	-6.2968e-19	3.9124e-17
5485.2344	-1.0269e-18	3.9012e-17
5485.4344	-1.4221e-18	3.9016e-17
5485.6354	-1.7992e-18	3.8834e-17
5485.8354	-2.1931e-18	3.8743e-17
5486.0353	-2.5715e-18	3.8667e-17
5486.2353	-2.9318e-18	3.8232e-17
5486.4353	-3.2550e-18	3.8018e-17
5486.6353	-3.5818e-18	3.7407e-17
5486.8353	-3.8849e-18	3.7398e-17
5487.4352	-4.1957e-18	3.7411e-17
5488.2352	-4.4826e-18	3.7139e-17
5488.4351	-4.7352e-18	3.7097e-17
5488.6351	-4.9644e-18	3.6440e-17
5488.8351	-5.2032e-18	3.5592e-17
5489.0351	-5.4202e-18	3.5596e-17
5489.2351	-5.6507e-18	3.5365e-17
5489.8350	-5.8688e-18	3.4767e-17
5490.0350	-6.0635e-18	3.4340e-17
5490.2350	-6.2345e-18	3.3594e-17
5490.4350	-6.4039e-18	3.2809e-17
5490.6350	-6.5802e-18	3.2206e-17
5491.0359	-6.7291e-18	3.1707e-17
5491.4359	-6.8547e-18	3.1214e-17
5491.6359	-6.9640e-18	3.0703e-17
5491.8359	-7.0818e-18	3.0201e-17
5492.0359	-7.1675e-18	2.9716e-17
5492.2358	-7.2610e-18	2.9281e-17
5492.4358	-7.3329e-18	2.8846e-17
5492.6358	-7.4106e-18	2.8441e-17
5492.8358	-7.4746e-18	2.8038e-17
5493.0358	-7.5154e-18	2.7669e-17
5493.2358	-7.5338e-18	2.7496e-17
5494.0357	-7.5385e-18	2.7228e-17
5494.6356	-7.5305e-18	2.6920e-17
5494.8356	-7.4958e-18	2.6678e-17
5495.2356	-7.4738e-18	2.6465e-17
5495.4356	-7.4371e-18	2.6258e-17
5495.6356	-7.4065e-18	2.6075e-17
5495.8355	-7.3644e-18	2.5949e-17
5496.0355	-7.3173e-18	2.5967e-17
5496.2365	-7.2361e-18	2.5865e-17
5496.4365	-7.1691e-18	2.5814e-17
5496.6365	-7.0718e-18	2.5344e-17
5496.8365	-6.9835e-18	2.5165e-17
5497.6364	-6.8810e-18	2.4698e-17
5497.8364	-6.7518e-18	2.4267e-17
5498.4363	-6.6122e-18	2.3995e-17
5498.8363	-6.4694e-18	2.4030e-17
5499.0363	-6.2926e-18	2.3775e-17
5499.6362	-6.1257e-18	2.3528e-17
5499.8362	-5.9436e-18	2.3358e-17
5500.0362	-5.7636e-18	2.3236e-17
5500.2362	-5.5903e-18	2.3213e-17
5500.4362	-5.4069e-18	2.3169e-17
5500.6362	-5.2064e-18	2.3129e-17
5500.8361	-4.9924e-18	2.3143e-17
5501.0361	-4.7652e-18	2.3171e-17
5501.4371	-4.5435e-18	2.3205e-17
5501.6371	-4.3227e-18	2.3026e-17
5502.0370	-4.0703e-18	2.2709e-17
5502.2370	-3.8115e-18	2.2745e-17
5502.4370	-3.5565e-18	2.2617e-17
5502.8370	-3.2810e-18	2.2559e-17
5503.2369	-3.0046e-18	2.2625e-17
5504.2369	-2.7372e-18	2.2413e-17
5504.4368	-2.4350e-18	2.2187e-17
5504.6368	-2.1370e-18	2.2006e-17
5505.2368	-1.8344e-18	2.1961e-17
5505.8367	-1.5087e-18	2.1969e-17
5506.0367	-1.1933e-18	2.1972e-17
5506.2367	-8.7256e-19	2.1970e-17
5506.4367	-5.3817e-19	2.1954e-17
5506.6367	-1.8712e-19	2.1935e-17
5506.8377	1.7489e-19	2.1914e-17
5507.0376	5.3095e-19	2.1881e-17
5507.6376	8.9959e-19	2.1887e-17
5507.8376	1.2723e-18	2.1844e-17
5508.0376	1.6504e-18	2.1960e-17
5508.6375	2.0186e-18	2.2045e-17
5509.4374	2.3922e-18	2.2123e-17
5510.0374	2.7756e-18	2.2232e-17
5510.4374	3.1684e-18	2.2345e-17
5510.6373	3.5783e-18	2.2416e-17
5510.8373	3.9758e-18	2.2504e-17
5511.0373	4.3702e-18	2.2501e-17
5511.6373	4.7688e-18	2.2540e-17
5511.8372	5.1862e-18	2.2591e-17
5512.0372	5.6063e-18	2.2624e-17
5512.2382	6.0268e-18	2.2653e-17
5512.4382	6.4433e-18	2.2649e-17
5513.0381	6.8726e-18	2.2586e-17
5513.4381	7.3012e-18	2.2564e-17
5513.8381	7.7321e-18	2.2515e-17
5514.0381	8.1580e-18	2.2501e-17
5514.2381	8.5758e-18	2.2511e-17
5514.4380	9.0124e-18	2.2554e-17
5514.6380	9.4497e-18	2.2522e-17
5514.8380	9.8885e-18	2.2417e-17
5515.0380	1.0334e-17	2.2248e-17
5515.2380	1.0779e-17	2.2026e-17
5515.8379	1.1230e-17	2.2032e-17
5516.4379	1.1690e-17	2.1943e-17
5516.8378	1.2137e-17	2.1954e-17
5518.8387	1.2586e-17	2.1993e-17
5519.0387	1.3046e-17	2.2052e-17
5519.2386	1.3503e-17	2.2063e-17
5519.4386	1.3946e-17	2.2135e-17
5519.6386	1.4378e-17	2.2217e-17
5519.8386	1.4834e-17	2.2010e-17
5520.0386	1.5268e-17	2.2012e-17
5520.2386	1.5698e-17	2.2073e-17
5520.4385	1.6145e-17	2.2093e-17
5520.8385	1.6592e-17	2.2088e-17
5521.0385	1.7021e-17	2.1955e-17
5521.4385	1.7478e-17	2.1959e-17
5521.6384	1.7927e-17	2.2021e-17
5521.8384	1.8368e-17	2.2021e-17
5522.0384	1.8812e-17	2.2035e-17
5522.6384	1.9225e-17	2.1813e-17
5523.6393	1.9628e-17	2.1871e-17
5523.8393	2.0050e-17	2.1719e-17
5524.2392	2.0454e-17	2.1717e-17
5524.4392	2.0868e-17	2.1731e-17
5524.8392	2.1268e-17	2.1241e-17
5525.2392	2.1702e-17	2.1015e-17
5525.8391	2.2085e-17	2.1108e-17
5526.0391	2.2452e-17	2.1185e-17
5526.2391	2.2842e-17	2.1190e-17
5526.6390	2.3241e-17	2.1338e-17
5526.8390	2.2967e-17	2.1379e-17
5527.2390	2.2532e-17	2.1509e-17
5527.4390	1.9908e-17	2.1624e-17
5527.6390	2.1764e-17	2.1479e-17
5528.6399	1.8947e-17	2.1582e-17
5529.4398	1.8926e-17	2.1644e-17
5529.6398	2.0378e-17	2.1651e-17
5529.8398	2.2117e-17	2.1600e-17
5530.0398	2.1949e-17	2.1539e-17
5530.2398	2.1393e-17	2.1643e-17
5530.4397	1.5761e-17	2.1684e-17
5530.8397	1.4916e-17	2.1816e-17
5531.6396	1.5139e-17	2.1363e-17
5532.2396	1.4109e-17	2.1186e-17
5532.8395	1.2735e-17	2.1187e-17
5533.6405	1.3538e-17	2.0771e-17
5534.0404	1.4867e-17	2.0785e-17
5534.2404	1.2916e-17	2.0784e-17
5535.0404	1.2326e-17	2.0805e-17
5535.2403	1.1313e-17	2.0767e-17
5535.4403	1.0331e-17	2.0274e-17
5535.6403	9.7045e-18	2.0212e-17
5535.8403	9.2746e-18	1.9992e-17
5536.0403	8.8717e-18	1.9822e-17
5536.2403	8.5042e-18	1.9832e-17
5536.4402	8.1526e-18	1.9894e-17
5536.6402	8.2811e-18	1.9938e-17
5536.8402	8.4600e-18	1.9964e-17
5537.6402	8.6548e-18	2.0012e-17
5538.0401	8.9037e-18	1.9970e-17
5538.2401	9.1607e-18	1.9850e-17
5538.4401	9.4335e-18	1.9789e-17
5538.6401	9.8061e-18	1.9791e-17
5538.8411	1.0228e-17	1.9801e-17
5539.0410	1.0704e-17	1.9792e-17
5539.2410	1.1195e-17	1.9829e-17
5539.4410	1.1698e-17	1.9802e-17
5539.8410	1.2222e-17	1.9719e-17
5540.0410	1.2792e-17	1.9678e-17
5540.2409	1.3423e-17	1.9659e-17
5540.6409	1.4091e-17	1.9707e-17
5541.4408	1.4833e-17	1.9519e-17
5541.6408	1.5605e-17	1.9468e-17
5541.8408	1.6435e-17	1.9437e-17
5542.0408	1.7298e-17	1.9344e-17
5542.4408	1.8180e-17	1.9346e-17
5542.6407	1.8244e-17	1.9390e-17
5543.0407	1.8366e-17	1.9460e-17
5543.4407	1.8547e-17	1.9458e-17
5543.6407	1.8793e-17	1.9453e-17
5543.8406	1.9051e-17	1.9495e-17
5544.0406	1.9431e-17	1.9521e-17
5544.2416	1.9810e-17	1.9506e-17
5544.6416	2.0194e-17	1.9519e-17
5544.8416	2.0603e-17	1.9467e-17
5545.0415	2.1051e-17	1.9420e-17
5545.2415	2.1517e-17	1.9420e-17
5545.4415	2.2055e-17	1.9387e-17
5545.6415	2.2598e-17	1.9379e-17
5545.8415	2.2076e-17	1.9388e-17
5546.0415	2.1696e-17	1.9223e-17
5546.2415	2.0881e-17	1.9121e-17
5546.8414	2.1877e-17	1.9078e-17
5547.0414	2.2816e-17	1.8907e-17
5547.2414	2.3680e-17	1.8928e-17
5548.0413	2.4462e-17	1.8550e-17
5548.6413	2.5193e-17	1.8084e-17
5548.8412	2.5785e-17	1.8087e-17
5549.8422	2.6224e-17	1.8090e-17
5550.0421	2.6574e-17	1.7936e-17
5550.2421	2.6679e-17	1.7902e-17
5550.4421	2.5866e-17	1.7905e-17
5550.6421	2.4908e-17	1.7815e-17
5550.8421	2.3817e-17	1.7597e-17
5551.0421	2.2764e-17	1.7601e-17
5551.4420	2.1787e-17	1.7571e-17
5551.6420	2.0809e-17	1.7564e-17
5551.8420	1.9839e-17	1.7521e-17
5552.0420	1.9170e-17	1.7427e-17
5552.2420	1.8807e-17	1.7335e-17
5552.6419	1.8476e-17	1.7317e-17
5552.8419	1.8367e-17	1.7320e-17
5553.0419	1.8273e-17	1.7319e-17
5553.6419	1.8297e-17	1.6707e-17
5553.8418	1.8365e-17	1.6149e-17
5554.0418	1.8460e-17	1.5802e-17
5554.4418	1.8624e-17	1.5664e-17
5554.6418	1.8778e-17	1.5672e-17
5554.8428	1.9008e-17	1.5653e-17
5555.0427	1.9271e-17	1.5657e-17
5555.4427	1.9548e-17	1.5667e-17
5555.6427	1.9854e-17	1.5668e-17
5556.0427	2.0202e-17	1.5702e-17
5556.4426	2.0607e-17	1.5729e-17
5556.6426	2.1023e-17	1.5734e-17
5557.0426	2.1436e-17	1.5720e-17
5557.2426	2.1821e-17	1.5582e-17
5557.4425	2.2178e-17	1.5565e-17
5557.6425	2.2511e-17	1.5549e-17
5558.4425	2.2812e-17	1.5421e-17
5558.6424	2.3061e-17	1.5430e-17
5559.6424	2.3322e-17	1.5458e-17
5559.8423	2.3560e-17	1.5484e-17
5560.0433	2.3800e-17	1.5496e-17
5560.8433	2.4057e-17	1.5496e-17
5561.0433	2.4388e-17	1.5518e-17
5561.2432	2.4739e-17	1.5483e-17
5561.4432	2.5118e-17	1.5479e-17
5561.6432	2.5574e-17	1.5373e-17
5561.8432	2.6126e-17	1.5391e-17
5562.0432	2.6756e-17	1.5275e-17
5562.2432	2.7454e-17	1.5283e-17
5562.4431	2.8174e-17	1.5273e-17
5562.6431	2.7837e-17	1.5272e-17
5563.0431	2.8114e-17	1.5266e-17
5563.2431	2.8764e-17	1.5253e-17
5563.4431	2.8360e-17	1.5152e-17
5564.4430	2.9219e-17	1.5139e-17
5565.2429	2.9923e-17	1.5123e-17
5565.8439	3.0257e-17	1.5139e-17
5566.0438	2.9027e-17	1.5147e-17
5566.2438	2.9380e-17	1.5150e-17
5566.4438	2.9065e-17	1.5128e-17
5566.6438	2.9799e-17	1.5034e-17
5566.8438	3.0348e-17	1.5014e-17
5567.0438	2.9159e-17	1.5015e-17
5568.0437	2.9259e-17	1.5008e-17
5568.6436	2.8129e-17	1.4997e-17
5568.8436	2.6922e-17	1.4964e-17
5570.0435	2.6692e-17	1.4936e-17
5570.2435	2.6435e-17	1.4936e-17
5570.4435	2.6097e-17	1.4920e-17
5571.2444	2.6635e-17	1.4892e-17
5571.4444	2.5337e-17	1.4883e-17
5572.0444	2.5687e-17	1.4886e-17
5572.2443	2.5754e-17	1.4768e-17
5572.4443	2.5478e-17	1.4722e-17
5572.6443	2.6029e-17	1.4605e-17
5573.6442	2.6332e-17	1.4003e-17
5573.8442	2.6818e-17	1.3694e-17
5574.0442	2.6528e-17	1.3682e-17
5574.2442	2.7062e-17	1.3707e-17
5574.4442	2.7004e-17	1.3723e-17
5574.6441	2.6770e-17	1.3702e-17
5574.8441	2.7205e-17	1.3628e-17
5575.0441	2.7565e-17	1.3441e-17
5575.2441	2.7663e-17	1.2847e-17
5575.4441	2.6283e-17	1.2689e-17
