#wls	flux	flux_err
6000.1677	8.1989e-18	5.3051e-18
6000.3677	8.2357e-18	5.3051e-18
6000.5677	8.2512e-18	5.3051e-18
6000.7676	8.2654e-18	5.3051e-18
6000.9676	8.2943e-18	5.3051e-18
6001.1676	8.3384e-18	5.3051e-18
6001.3686	8.3773e-18	5.3051e-18
6001.5686	8.4105e-18	5.3051e-18
6001.7686	8.4377e-18	5.3051e-18
6001.9685	8.4455e-18	5.3051e-18
6002.1685	8.4609e-18	5.3051e-18
6002.3685	8.4930e-18	5.3051e-18
6002.5685	8.4945e-18	5.3051e-18
6002.7685	8.5127e-18	5.3051e-18
6002.9685	8.5431e-18	5.3051e-18
6003.1684	8.5529e-18	5.3051e-18
6003.3684	8.5862e-18	5.3051e-18
6003.5684	8.6196e-18	5.3051e-18
6003.7684	8.6481e-18	5.3051e-18
6003.9684	8.6621e-18	5.3051e-18
6004.1684	8.6811e-18	5.3051e-18
6004.3684	8.7028e-18	5.3051e-18
6004.5683	8.7296e-18	5.3051e-18
6004.7683	8.7519e-18	5.3051e-18
6004.9683	8.7670e-18	5.3051e-18
6005.1683	8.7762e-18	5.3051e-18
6005.3683	8.7893e-18	5.3051e-18
6005.5683	8.7983e-18	5.3051e-18
6005.7682	8.8213e-18	5.3051e-18
6005.9682	8.8541e-18	5.3051e-18
6006.1682	8.8959e-18	5.3051e-18
6006.3692	8.9244e-18	5.3051e-18
6006.5692	8.9352e-18	5.3051e-18
6006.9691	8.9457e-18	5.3051e-18
6007.1691	8.9661e-18	5.3051e-18
6007.3691	8.9950e-18	5.3051e-18
6007.5691	9.0272e-18	5.3051e-18
6007.7691	9.0345e-18	5.3051e-18
6007.9691	9.0598e-18	5.3051e-18
6008.1690	9.0845e-18	5.3051e-18
6008.3690	9.1229e-18	5.3051e-18
6008.7690	9.1568e-18	5.3051e-18
6008.9690	9.1853e-18	5.3051e-18
6009.1690	9.1969e-18	5.3051e-18
6009.3689	9.2056e-18	5.3051e-18
6009.5689	9.2138e-18	5.3051e-18
6009.7689	9.2325e-18	5.3051e-18
6009.9689	9.2615e-18	5.3051e-18
6010.1689	9.2939e-18	5.3051e-18
6010.3689	9.3184e-18	5.3051e-18
6010.5689	9.3269e-18	5.3051e-18
6010.7688	9.3332e-18	5.3051e-18
6010.9688	9.3644e-18	5.3051e-18
6011.1688	9.3856e-18	5.3051e-18
6011.3698	9.3977e-18	5.3051e-18
6011.5698	9.4172e-18	5.3051e-18
6011.7698	9.4546e-18	5.3051e-18
6011.9697	9.4962e-18	5.3051e-18
6012.1697	9.5145e-18	5.3051e-18
6012.3697	9.5414e-18	5.3051e-18
6012.5697	9.5588e-18	5.3051e-18
6012.7697	9.5728e-18	5.3051e-18
6012.9697	9.6099e-18	5.3051e-18
6013.1696	9.6529e-18	5.3051e-18
6013.3696	9.6799e-18	5.3051e-18
6013.5696	9.7032e-18	5.3051e-18
6013.7696	9.7212e-18	5.3051e-18
6013.9696	9.7486e-18	5.3051e-18
6014.1696	9.7526e-18	5.3051e-18
6014.3695	9.7759e-18	5.3051e-18
6014.5695	9.8014e-18	5.3051e-18
6014.7695	9.8285e-18	5.3051e-18
6014.9695	9.8740e-18	5.3051e-18
6015.1695	9.9049e-18	5.3051e-18
6015.3695	9.9263e-18	5.3051e-18
6015.5694	9.9504e-18	5.3051e-18
6015.7694	9.9511e-18	5.3051e-18
6015.9694	9.9799e-18	5.3051e-18
6016.1694	9.9899e-18	5.3051e-18
6016.3704	1.0009e-17	5.3051e-18
6016.5704	1.0026e-17	5.3051e-18
6016.7704	1.0030e-17	5.3051e-18
6016.9703	1.0044e-17	5.3051e-18
6017.1703	1.0054e-17	5.3051e-18
6017.3703	1.0082e-17	5.3051e-18
6017.5703	1.0096e-17	5.3051e-18
6017.7703	1.0110e-17	5.3051e-18
6017.9703	1.0130e-17	5.3051e-18
6018.1702	1.0132e-17	5.3051e-18
6018.3702	1.0166e-17	5.3051e-18
6018.5702	1.0214e-17	5.3051e-18
6018.7702	1.0238e-17	5.3051e-18
6018.9702	1.0264e-17	5.3051e-18
6019.1702	1.0288e-17	5.3051e-18
6019.3701	1.0298e-17	5.3051e-18
6019.5701	1.0318e-17	5.3051e-18
6019.7701	1.0346e-17	5.3051e-18
6019.9701	1.0379e-17	5.3051e-18
6020.1701	1.0394e-17	5.3051e-18
6020.3701	1.0410e-17	5.3051e-18
6020.5700	1.0425e-17	5.3051e-18
6020.7700	1.0429e-17	5.3051e-18
6020.9700	1.0448e-17	5.3051e-18
6021.1700	1.0475e-17	5.3051e-18
6021.3710	1.0478e-17	5.3051e-18
6021.5710	1.0506e-17	5.3051e-18
6021.7709	1.0532e-17	5.3051e-18
6021.9709	1.0537e-17	5.3051e-18
6022.1709	1.0557e-17	5.3051e-18
6022.3709	1.0588e-17	5.3051e-18
6022.5709	1.0608e-17	5.3051e-18
6022.7709	1.0614e-17	5.3051e-18
6022.9708	1.0635e-17	5.3051e-18
6023.1708	1.0651e-17	5.3051e-18
6023.3708	1.0649e-17	5.3051e-18
6023.5708	1.0657e-17	5.3051e-18
6023.7708	1.0662e-17	5.3051e-18
6023.9708	1.0673e-17	5.3051e-18
6024.1708	1.0696e-17	5.3051e-18
6024.3707	1.0698e-17	5.3051e-18
6024.5707	1.0699e-17	5.3136e-18
6024.7707	1.0716e-17	5.3345e-18
6024.9707	1.0727e-17	5.3277e-18
6025.1707	1.0726e-17	5.3470e-18
6025.3707	1.0740e-17	5.3629e-18
6025.5706	1.0753e-17	5.3707e-18
6025.7706	1.0760e-17	5.3683e-18
6025.9706	1.0785e-17	5.3722e-18
6026.1716	1.0807e-17	5.3938e-18
6026.3716	1.0809e-17	5.3930e-18
6026.5716	1.0836e-17	5.3925e-18
6026.7715	1.0876e-17	5.3881e-18
6026.9715	1.0912e-17	5.3902e-18
6027.1715	1.0931e-17	5.3915e-18
6027.3715	1.0934e-17	5.4053e-18
6027.5715	1.0939e-17	5.4051e-18
6027.7715	1.0959e-17	5.4106e-18
6027.9714	1.0984e-17	5.4109e-18
6028.1714	1.1000e-17	5.3760e-18
6028.3714	1.1012e-17	5.3390e-18
6028.5714	1.1027e-17	5.3345e-18
6028.7714	1.1037e-17	5.3213e-18
6028.9714	1.1045e-17	5.1592e-18
6029.3713	1.1066e-17	5.1494e-18
6029.5713	1.1099e-17	5.1362e-18
6029.7713	1.1121e-17	5.1290e-18
6029.9713	1.1131e-17	5.1268e-18
6030.1713	1.1146e-17	5.1204e-18
6030.3713	1.1170e-17	5.1066e-18
6030.5712	1.1203e-17	5.0947e-18
6030.7712	1.1221e-17	4.9108e-18
6030.9712	1.1229e-17	4.8371e-18
6031.1722	1.1261e-17	4.8563e-18
6031.3722	1.1284e-17	4.8678e-18
6031.5722	1.1294e-17	4.8835e-18
6031.7721	1.1310e-17	4.8900e-18
6031.9721	1.1319e-17	4.9147e-18
6032.1721	1.1320e-17	4.8987e-18
6032.3721	1.1318e-17	4.8674e-18
6032.5721	1.1352e-17	4.8660e-18
6032.7721	1.1377e-17	4.8775e-18
6032.9720	1.1406e-17	4.8848e-18
6033.1720	1.1412e-17	4.8804e-18
6033.3720	1.1425e-17	4.8816e-18
6033.5720	1.1430e-17	4.8754e-18
6033.7720	1.1429e-17	4.8222e-18
6033.9720	1.1433e-17	4.8212e-18
6034.1719	1.1450e-17	4.8167e-18
6034.3719	1.1448e-17	4.8302e-18
6034.5719	1.1470e-17	4.8062e-18
6034.7719	1.1470e-17	4.8074e-18
6034.9719	1.1469e-17	4.7962e-18
6035.1719	1.1479e-17	4.7978e-18
6035.3718	1.1492e-17	4.7917e-18
6035.5718	1.1487e-17	4.8176e-18
6035.7718	1.1484e-17	4.8011e-18
6035.9718	1.1483e-17	4.7916e-18
6036.1728	1.1477e-17	4.8016e-18
6036.3728	1.1466e-17	4.8234e-18
6036.5728	1.1475e-17	4.8250e-18
6036.7727	1.1494e-17	4.8012e-18
6036.9727	1.1501e-17	4.8014e-18
6037.1727	1.1510e-17	4.7988e-18
6037.3727	1.1521e-17	4.7847e-18
6037.5727	1.1523e-17	4.7824e-18
6037.7727	1.1515e-17	4.7568e-18
6037.9726	1.1519e-17	4.7576e-18
6038.1726	1.1533e-17	4.8043e-18
6038.3726	1.1543e-17	4.8097e-18
6038.7726	1.1552e-17	4.8225e-18
6038.9726	1.1566e-17	4.8369e-18
6039.1725	1.1581e-17	4.8516e-18
6039.3725	1.1598e-17	4.8489e-18
6039.5725	1.1593e-17	4.8377e-18
6039.7725	1.1586e-17	4.8500e-18
6039.9725	1.1579e-17	4.8467e-18
6040.1725	1.1583e-17	4.8182e-18
6040.3724	1.1581e-17	4.7801e-18
6040.5724	1.1577e-17	4.7408e-18
6040.7724	1.1582e-17	4.7172e-18
6040.9724	1.1581e-17	4.7168e-18
6041.1734	1.1574e-17	4.7136e-18
6041.3734	1.1581e-17	4.7129e-18
6041.5733	1.1602e-17	4.7132e-18
6041.7733	1.1600e-17	4.7087e-18
6041.9733	1.1591e-17	4.7057e-18
6042.1733	1.1591e-17	4.7264e-18
6042.3733	1.1596e-17	4.7267e-18
6042.5733	1.1601e-17	4.8045e-18
6042.7733	1.1601e-17	4.7911e-18
6042.9732	1.1599e-17	4.8108e-18
6043.1732	1.1600e-17	4.7968e-18
6043.3732	1.1601e-17	4.7912e-18
6043.5732	1.1614e-17	4.7842e-18
6043.7732	1.1615e-17	4.8246e-18
6043.9732	1.1606e-17	4.8216e-18
6044.1731	1.1601e-17	4.8413e-18
6044.3731	1.1618e-17	4.8621e-18
6044.5731	1.1635e-17	4.8725e-18
6044.7731	1.1639e-17	4.8857e-18
6044.9731	1.1644e-17	4.8797e-18
6045.1731	1.1661e-17	4.8505e-18
6045.3730	1.1686e-17	4.8296e-18
6045.5730	1.1686e-17	4.8341e-18
6045.7730	1.1689e-17	4.8213e-18
6045.9730	1.1689e-17	4.8372e-18
6046.1740	1.1683e-17	4.8547e-18
6046.3740	1.1690e-17	4.8541e-18
6046.7739	1.1703e-17	4.8533e-18
6046.9739	1.1699e-17	4.8380e-18
6047.3739	1.1708e-17	4.8377e-18
6047.5739	1.1727e-17	4.8232e-18
6047.7738	1.1737e-17	4.8154e-18
6047.9738	1.1740e-17	4.8278e-18
6048.1738	1.1741e-17	4.8419e-18
6048.3738	1.1737e-17	4.8804e-18
6048.5738	1.1727e-17	4.8894e-18
6048.7738	1.1715e-17	4.9166e-18
6048.9737	1.1721e-17	4.9300e-18
6049.1737	1.1726e-17	4.9327e-18
6049.3737	1.1711e-17	4.9302e-18
6049.5737	1.1718e-17	4.9233e-18
6049.7737	1.1722e-17	4.9195e-18
6049.9737	1.1716e-17	4.9200e-18
6050.1737	1.1721e-17	4.9174e-18
6050.3736	1.1728e-17	4.9141e-18
6050.5736	1.1728e-17	4.9266e-18
6050.7736	1.1715e-17	4.9302e-18
6050.9746	1.1711e-17	4.9295e-18
6051.1746	1.1696e-17	4.9421e-18
6051.3746	1.1681e-17	4.9578e-18
6051.5745	1.1691e-17	4.9514e-18
6051.7745	1.1691e-17	4.9510e-18
6051.9745	1.1682e-17	4.9291e-18
6052.1745	1.1691e-17	4.9374e-18
6052.3745	1.1693e-17	4.9156e-18
6052.5745	1.1705e-17	4.8799e-18
6052.7744	1.1688e-17	4.8782e-18
6052.9744	1.1685e-17	4.9053e-18
6053.1744	1.1697e-17	4.9029e-18
6053.3744	1.1703e-17	4.9016e-18
6053.5744	1.1701e-17	4.8872e-18
6053.7744	1.1694e-17	4.8795e-18
6053.9743	1.1705e-17	4.8962e-18
6054.1743	1.1713e-17	4.8962e-18
6054.3743	1.1714e-17	4.8945e-18
6054.5743	1.1697e-17	4.8993e-18
6054.7743	1.1687e-17	4.9086e-18
6054.9743	1.1698e-17	4.9070e-18
6055.1742	1.1688e-17	4.9069e-18
6055.3742	1.1683e-17	4.8817e-18
6055.5742	1.1672e-17	4.8853e-18
6055.7742	1.1664e-17	4.8825e-18
6055.9752	1.1658e-17	4.9229e-18
6056.1752	1.1656e-17	4.9363e-18
6056.3752	1.1651e-17	4.9364e-18
6056.5751	1.1656e-17	4.9482e-18
6056.7751	1.1651e-17	4.9680e-18
6056.9751	1.1640e-17	4.9599e-18
6057.1751	1.1627e-17	4.9583e-18
6057.3751	1.1620e-17	4.9209e-18
6057.5751	1.1624e-17	4.9180e-18
6057.7750	1.1626e-17	4.9169e-18
6057.9750	1.1633e-17	4.9219e-18
6058.5750	1.1634e-17	4.9219e-18
6058.7750	1.1640e-17	4.9488e-18
6058.9749	1.1650e-17	4.9683e-18
6059.1749	1.1641e-17	4.9440e-18
6059.3749	1.1629e-17	4.9771e-18
6059.5749	1.1619e-17	4.9978e-18
6059.7749	1.1612e-17	5.0335e-18
6059.9749	1.1610e-17	5.0475e-18
6060.1748	1.1615e-17	5.0516e-18
6060.3748	1.1624e-17	5.0729e-18
6060.5748	1.1625e-17	5.0686e-18
6060.7748	1.1631e-17	5.0980e-18
6060.9758	1.1636e-17	5.1009e-18
6061.1758	1.1641e-17	5.0766e-18
6061.3757	1.1663e-17	5.1256e-18
6061.5757	1.1676e-17	5.1340e-18
6061.7757	1.1656e-17	5.1491e-18
6061.9757	1.1638e-17	5.1602e-18
6062.1757	1.1631e-17	5.1630e-18
6062.3757	1.1629e-17	5.1626e-18
6062.5757	1.1632e-17	5.1989e-18
6062.7756	1.1616e-17	5.2106e-18
6062.9756	1.1613e-17	5.2272e-18
6063.1756	1.1615e-17	5.2441e-18
6063.3756	1.1634e-17	5.2555e-18
6063.5756	1.1637e-17	5.2631e-18
6063.7756	1.1623e-17	5.2641e-18
6063.9755	1.1615e-17	5.1941e-18
6064.1755	1.1622e-17	5.1954e-18
6064.3755	1.1605e-17	5.1552e-18
6064.5755	1.1595e-17	5.1431e-18
6064.7755	1.1588e-17	5.1316e-18
6064.9755	1.1594e-17	5.1319e-18
6065.1754	1.1601e-17	5.1367e-18
6065.3754	1.1610e-17	5.1913e-18
6065.5754	1.1606e-17	5.1723e-18
6065.7754	1.1594e-17	5.1328e-18
6065.9764	1.1583e-17	5.1194e-18
6066.1764	1.1575e-17	5.1249e-18
6066.3763	1.1577e-17	5.1190e-18
6066.5763	1.1586e-17	5.1123e-18
6066.7763	1.1573e-17	5.1136e-18
6066.9763	1.1569e-17	5.1204e-18
6067.1763	1.1560e-17	5.1160e-18
6067.3763	1.1568e-17	5.1043e-18
6067.5762	1.1580e-17	5.1027e-18
6067.7762	1.1583e-17	5.1144e-18
6067.9762	1.1582e-17	5.1143e-18
6068.1762	1.1597e-17	5.0878e-18
6068.3762	1.1587e-17	5.1077e-18
6068.5762	1.1587e-17	5.1123e-18
6068.7762	1.1577e-17	5.1105e-18
6068.9761	1.1581e-17	5.1057e-18
6069.3761	1.1582e-17	5.1027e-18
6069.5761	1.1579e-17	5.0822e-18
6069.7761	1.1576e-17	5.0861e-18
6069.9761	1.1586e-17	5.0886e-18
6070.1760	1.1584e-17	5.1123e-18
6070.3760	1.1580e-17	5.1123e-18
6070.5760	1.1577e-17	5.1196e-18
6070.7770	1.1557e-17	5.1149e-18
6070.9770	1.1554e-17	5.1401e-18
6071.1770	1.1564e-17	5.1363e-18
6071.3769	1.1563e-17	5.1049e-18
6071.5769	1.1571e-17	5.0935e-18
6071.7769	1.1568e-17	5.1012e-18
6071.9769	1.1568e-17	5.0929e-18
6072.1769	1.1574e-17	5.0809e-18
6072.3769	1.1574e-17	5.0583e-18
6072.5768	1.1552e-17	5.0646e-18
6072.7768	1.1541e-17	5.0735e-18
6072.9768	1.1548e-17	5.0934e-18
6073.1768	1.1550e-17	5.0894e-18
6073.3768	1.1543e-17	5.0800e-18
6073.5768	1.1527e-17	5.0929e-18
6073.7767	1.1515e-17	5.0829e-18
6073.9767	1.1505e-17	5.0625e-18
6074.1767	1.1500e-17	5.0754e-18
6074.3767	1.1506e-17	5.0652e-18
6074.5767	1.1521e-17	5.0480e-18
6074.7767	1.1519e-17	5.0245e-18
6074.9767	1.1506e-17	5.0718e-18
6075.1766	1.1500e-17	5.0964e-18
6075.3766	1.1498e-17	5.0899e-18
6075.5766	1.1501e-17	5.0924e-18
6075.7776	1.1500e-17	5.1152e-18
6075.9776	1.1497e-17	5.1210e-18
6076.1776	1.1478e-17	5.1088e-18
6076.3775	1.1450e-17	5.1495e-18
6076.5775	1.1424e-17	5.1387e-18
6076.9775	1.1400e-17	5.1427e-18
6077.1775	1.1378e-17	5.1577e-18
6077.3775	1.1358e-17	5.1658e-18
6077.5774	1.1345e-17	5.1746e-18
6077.7774	1.1334e-17	5.1753e-18
6077.9774	1.1324e-17	5.1806e-18
6078.1774	1.1316e-17	5.1791e-18
6078.3774	1.1309e-17	5.1762e-18
6078.5774	1.1304e-17	5.1750e-18
6078.7773	1.1299e-17	5.1719e-18
6078.9773	1.1302e-17	5.1747e-18
6079.1773	1.1289e-17	5.1910e-18
6079.3773	1.1268e-17	5.1981e-18
6079.5773	1.1245e-17	5.2161e-18
6079.7773	1.1238e-17	5.2117e-18
6079.9772	1.1228e-17	5.1959e-18
6080.1772	1.1243e-17	5.2055e-18
6080.3772	1.1269e-17	5.1815e-18
6080.5772	1.1269e-17	5.1878e-18
6080.7782	1.1261e-17	5.1854e-18
6080.9782	1.1252e-17	5.1728e-18
6081.1781	1.1234e-17	5.1557e-18
6081.3781	1.1211e-17	5.1524e-18
6081.5781	1.1216e-17	5.1783e-18
6081.7781	1.1231e-17	5.1788e-18
6081.9781	1.1242e-17	5.1691e-18
6082.1781	1.1233e-17	5.1874e-18
6082.3781	1.1206e-17	5.1926e-18
6082.5780	1.1210e-17	5.1952e-18
6082.7780	1.1226e-17	5.1984e-18
6082.9780	1.1224e-17	5.2178e-18
6083.1780	1.1201e-17	5.2332e-18
6083.3780	1.1175e-17	5.2214e-18
6083.5780	1.1169e-17	5.2102e-18
6083.7779	1.1158e-17	5.2195e-18
6083.9779	1.1138e-17	5.2194e-18
6084.1779	1.1118e-17	5.2382e-18
6084.3779	1.1106e-17	5.2639e-18
6084.5779	1.1095e-17	5.2694e-18
6084.7779	1.1098e-17	5.2421e-18
6085.1778	1.1094e-17	5.2530e-18
6085.3778	1.1084e-17	5.2530e-18
6085.5778	1.1067e-17	5.2670e-18
6085.7788	1.1062e-17	5.2848e-18
6085.9788	1.1070e-17	5.2851e-18
6086.1787	1.1074e-17	5.2767e-18
6086.3787	1.1093e-17	5.2764e-18
6086.5787	1.1088e-17	5.2791e-18
6086.7787	1.1067e-17	5.3036e-18
6086.9787	1.1050e-17	5.3530e-18
6087.1787	1.1067e-17	5.3498e-18
6087.3786	1.1088e-17	5.3500e-18
6087.5786	1.1099e-17	5.3114e-18
6087.7786	1.1106e-17	5.3123e-18
6087.9786	1.1110e-17	5.3293e-18
6088.1786	1.1100e-17	5.3156e-18
6088.3786	1.1086e-17	5.3009e-18
6088.5786	1.1074e-17	5.3004e-18
6088.7785	1.1063e-17	5.3667e-18
6088.9785	1.1057e-17	5.3519e-18
6089.1785	1.1052e-17	5.3325e-18
6089.3785	1.1049e-17	5.3320e-18
6089.5785	1.1048e-17	5.3664e-18
6089.7785	1.1049e-17	5.3654e-18
6089.9784	1.1052e-17	5.3743e-18
6090.1784	1.1056e-17	5.3644e-18
6090.3784	1.1063e-17	5.3414e-18
6090.5784	1.1070e-17	5.3572e-18
6090.7794	1.1080e-17	5.3603e-18
6090.9794	1.1090e-17	5.3676e-18
6091.1793	1.1099e-17	5.3751e-18
6091.3793	1.1086e-17	5.3499e-18
6091.5793	1.1090e-17	5.3536e-18
6091.7793	1.1083e-17	5.2841e-18
6091.9793	1.1065e-17	5.3140e-18
6092.1793	1.1077e-17	5.3157e-18
6092.3792	1.1085e-17	5.4001e-18
6092.5792	1.1066e-17	5.4017e-18
6092.7792	1.1065e-17	5.3998e-18
6092.9792	1.1082e-17	5.3689e-18
6093.1792	1.1089e-17	5.3732e-18
6093.3792	1.1069e-17	5.3490e-18
6093.5791	1.1077e-17	5.3223e-18
6093.7791	1.1080e-17	5.3344e-18
6093.9791	1.1063e-17	5.3167e-18
6094.1791	1.1071e-17	5.3169e-18
6094.3791	1.1080e-17	5.3157e-18
6094.5791	1.1077e-17	5.3288e-18
6094.7791	1.1063e-17	5.3182e-18
6094.9790	1.1047e-17	5.3268e-18
6095.1790	1.1044e-17	5.3252e-18
6095.3790	1.1044e-17	5.3218e-18
6095.5800	1.1028e-17	5.3297e-18
6095.7800	1.1018e-17	5.3421e-18
6095.9800	1.1010e-17	5.3433e-18
6096.1799	1.1019e-17	5.3670e-18
6096.3799	1.1012e-17	5.3661e-18
6096.5799	1.1005e-17	5.3749e-18
6096.7799	1.1018e-17	5.3429e-18
6096.9799	1.1028e-17	5.3063e-18
6097.1799	1.1022e-17	5.2996e-18
6097.3798	1.1010e-17	5.2802e-18
6097.5798	1.1001e-17	5.2670e-18
6097.7798	1.1005e-17	5.2568e-18
6097.9798	1.1037e-17	5.2513e-18
6098.1798	1.1039e-17	5.2707e-18
6098.3798	1.1041e-17	5.2962e-18
6098.5797	1.1031e-17	5.2941e-18
6098.7797	1.1045e-17	5.2964e-18
6099.1797	1.1044e-17	5.3266e-18
6099.3797	1.1034e-17	5.3263e-18
6099.5797	1.1022e-17	5.3190e-18
6099.7796	1.1028e-17	5.3194e-18
6099.9796	1.1025e-17	5.3255e-18
6100.1796	1.1031e-17	5.3184e-18
6100.3796	1.1040e-17	5.3244e-18
6100.5806	1.1048e-17	5.3365e-18
6100.9806	1.1047e-17	5.3938e-18
6101.1805	1.1047e-17	5.4358e-18
6101.3805	1.1032e-17	5.4214e-18
6101.5805	1.1036e-17	5.4350e-18
6101.7805	1.1050e-17	5.4347e-18
6101.9805	1.1064e-17	5.4296e-18
6102.1805	1.1065e-17	5.4214e-18
6102.3804	1.1045e-17	5.4184e-18
6102.5804	1.1026e-17	5.4166e-18
6102.7804	1.1023e-17	5.4159e-18
6102.9804	1.1015e-17	5.4128e-18
6103.1804	1.0957e-17	5.3991e-18
6103.3804	1.0960e-17	5.4039e-18
6103.5803	1.0960e-17	5.4407e-18
6103.7803	1.0959e-17	5.4255e-18
6104.1803	1.0988e-17	5.3912e-18
6104.3803	1.0989e-17	5.3747e-18
6104.5803	1.0992e-17	5.3908e-18
6104.7802	1.0996e-17	5.4329e-18
6104.9802	1.0959e-17	5.4275e-18
6105.1802	1.0933e-17	5.4277e-18
6105.3802	1.0940e-17	5.4438e-18
6105.5812	1.0938e-17	5.4404e-18
6105.7812	1.0923e-17	5.4361e-18
6105.9811	1.0915e-17	5.4239e-18
6106.1811	1.0915e-17	5.4092e-18
6106.5811	1.0892e-17	5.4050e-18
6106.7811	1.0881e-17	5.4080e-18
6106.9811	1.0897e-17	5.4680e-18
6107.1811	1.0902e-17	5.4923e-18
6107.3810	1.0895e-17	5.5308e-18
6107.5810	1.0883e-17	5.5231e-18
6107.7810	1.0877e-17	5.5252e-18
6107.9810	1.0878e-17	5.5024e-18
6108.1810	1.0842e-17	5.4946e-18
6108.3810	1.0827e-17	5.4915e-18
6108.5809	1.0838e-17	5.4758e-18
6108.7809	1.0836e-17	5.4551e-18
6108.9809	1.0825e-17	5.4286e-18
6109.1809	1.0828e-17	5.4038e-18
6109.3809	1.0843e-17	5.4095e-18
6109.5809	1.0841e-17	5.3950e-18
6109.7808	1.0827e-17	5.3964e-18
6109.9808	1.0849e-17	5.3751e-18
6110.1808	1.0837e-17	5.3843e-18
6110.3808	1.0823e-17	5.3812e-18
6110.5818	1.0827e-17	5.3651e-18
6110.7818	1.0818e-17	5.3675e-18
6110.9817	1.0817e-17	5.3493e-18
6111.1817	1.0814e-17	5.3521e-18
6111.3817	1.0812e-17	5.3448e-18
6111.5817	1.0808e-17	5.3427e-18
6111.7817	1.0796e-17	5.3141e-18
6111.9817	1.0805e-17	5.2956e-18
6112.1816	1.0833e-17	5.3021e-18
6112.3816	1.0846e-17	5.2902e-18
6112.5816	1.0840e-17	5.2841e-18
6112.7816	1.0849e-17	5.2778e-18
6112.9816	1.0854e-17	5.2733e-18
6113.1816	1.0843e-17	5.2753e-18
6113.3816	1.0835e-17	5.2814e-18
6113.5815	1.0819e-17	5.2940e-18
6113.7815	1.0836e-17	5.3056e-18
6113.9815	1.0850e-17	5.3233e-18
6114.1815	1.0841e-17	5.3423e-18
6114.3815	1.0844e-17	5.3299e-18
6114.5815	1.0836e-17	5.2868e-18
6114.7814	1.0818e-17	5.2973e-18
6114.9814	1.0798e-17	5.2952e-18
6115.1814	1.0778e-17	5.3010e-18
6115.3814	1.0760e-17	5.3138e-18
6115.5824	1.0737e-17	5.3137e-18
6115.7824	1.0748e-17	5.3322e-18
6115.9823	1.0754e-17	5.3380e-18
6116.1823	1.0751e-17	5.3511e-18
6116.3823	1.0769e-17	5.3513e-18
6116.5823	1.0773e-17	5.3491e-18
6116.7823	1.0762e-17	5.3483e-18
6116.9823	1.0756e-17	5.3391e-18
6117.1822	1.0766e-17	5.3459e-18
6117.3822	1.0740e-17	5.3484e-18
6117.5822	1.0727e-17	5.3252e-18
6117.7822	1.0723e-17	5.3237e-18
6117.9822	1.0720e-17	5.3258e-18
6118.1822	1.0732e-17	5.3437e-18
6118.3821	1.0746e-17	5.3401e-18
6118.5821	1.0757e-17	5.3505e-18
6118.7821	1.0751e-17	5.3619e-18
6118.9821	1.0742e-17	5.3595e-18
6119.1821	1.0726e-17	5.3352e-18
6119.3821	1.0737e-17	5.3370e-18
6119.5821	1.0764e-17	5.3474e-18
6119.7820	1.0770e-17	5.3433e-18
6119.9820	1.0762e-17	5.3204e-18
6120.1820	1.0786e-17	5.3068e-18
6120.3830	1.0802e-17	5.3162e-18
6120.5830	1.0791e-17	5.3167e-18
6120.7830	1.0778e-17	5.3087e-18
6120.9829	1.0756e-17	5.3087e-18
6121.1829	1.0754e-17	5.3103e-18
6121.3829	1.0733e-17	5.3355e-18
6121.5829	1.0705e-17	5.3271e-18
6121.7829	1.0671e-17	5.3200e-18
6121.9829	1.0644e-17	5.3012e-18
6122.1828	1.0632e-17	5.3063e-18
6122.3828	1.0647e-17	5.3143e-18
6122.5828	1.0649e-17	5.3266e-18
6122.7828	1.0643e-17	5.3268e-18
6122.9828	1.0633e-17	5.3259e-18
6123.1828	1.0615e-17	5.3410e-18
6123.3827	1.0606e-17	5.3352e-18
6123.5827	1.0593e-17	5.3255e-18
6123.7827	1.0605e-17	5.3311e-18
6123.9827	1.0613e-17	5.2882e-18
6124.1827	1.0611e-17	5.2639e-18
6124.3827	1.0597e-17	5.2529e-18
6124.5826	1.0581e-17	5.2739e-18
6124.9826	1.0573e-17	5.2553e-18
6125.1826	1.0573e-17	5.2843e-18
6125.3836	1.0581e-17	5.3061e-18
6125.5836	1.0567e-17	5.2641e-18
6125.7835	1.0561e-17	5.2621e-18
6125.9835	1.0555e-17	5.2710e-18
6126.1835	1.0541e-17	5.2559e-18
6126.3835	1.0533e-17	5.2454e-18
6126.5835	1.0507e-17	5.2444e-18
6126.7835	1.0485e-17	5.2784e-18
6126.9835	1.0497e-17	5.2739e-18
6127.1834	1.0497e-17	5.2813e-18
6127.3834	1.0498e-17	5.2834e-18
6127.5834	1.0468e-17	5.2835e-18
6127.7834	1.0455e-17	5.2911e-18
6127.9834	1.0439e-17	5.2952e-18
