#wls	flux	flux_err
5337.5984	6.4569e-16	5.1742e-16
5337.9984	6.4555e-16	5.1742e-16
5338.1984	6.4537e-16	5.1742e-16
5338.3983	6.4512e-16	5.1742e-16
5338.5983	6.4487e-16	5.1742e-16
5338.9983	6.4462e-16	5.1742e-16
5339.5982	6.4434e-16	5.1742e-16
5339.7982	6.4412e-16	5.1742e-16
5340.5982	6.4387e-16	5.1742e-16
5341.1981	6.4354e-16	5.1742e-16
5341.3981	6.4319e-16	5.1742e-16
5341.5981	6.4288e-16	5.1742e-16
5341.7981	6.4252e-16	5.1742e-16
5342.7990	6.4214e-16	5.1742e-16
5342.9990	6.4170e-16	5.1742e-16
5343.9989	6.4128e-16	5.1742e-16
5344.1989	6.4082e-16	5.1742e-16
5344.3989	6.4036e-16	5.1742e-16
5344.7988	6.3992e-16	5.1742e-16
5345.7987	6.3941e-16	5.1742e-16
5345.9987	6.3898e-16	5.1742e-16
5346.3987	6.3848e-16	5.1742e-16
5346.5987	6.3795e-16	5.1742e-16
5346.7987	6.3745e-16	5.1742e-16
5346.9986	6.3688e-16	5.1742e-16
5347.1986	6.3631e-16	5.1742e-16
5347.3996	6.3576e-16	5.1742e-16
5347.9996	6.3516e-16	5.1742e-16
5348.1995	6.3454e-16	5.1742e-16
5348.9995	6.3395e-16	5.1742e-16
5349.1995	6.3333e-16	5.1742e-16
5349.5994	6.3269e-16	5.1742e-16
5350.9993	6.3207e-16	5.1742e-16
5351.1993	6.3136e-16	5.1742e-16
5351.5993	6.3071e-16	5.1742e-16
5351.7993	6.3001e-16	5.1742e-16
5351.9992	6.2923e-16	5.1742e-16
5352.1992	6.2854e-16	5.1742e-16
5352.3992	6.2780e-16	5.1742e-16
5352.5992	6.2704e-16	5.1742e-16
5352.7992	6.2622e-16	5.1742e-16
5353.0002	6.2536e-16	5.1742e-16
5353.2001	6.2451e-16	5.1742e-16
5353.8001	6.2364e-16	5.1742e-16
5354.0001	6.2276e-16	5.1742e-16
5355.2000	6.2187e-16	5.1742e-16
5355.7999	6.2096e-16	5.1742e-16
5356.1999	6.2006e-16	5.1742e-16
5356.9998	6.1915e-16	5.1742e-16
5357.1998	6.1825e-16	5.1742e-16
5357.3998	6.1731e-16	5.1742e-16
5357.5998	6.1634e-16	5.1742e-16
5358.8007	6.1533e-16	5.1742e-16
5360.4006	6.1433e-16	5.1742e-16
5360.6005	6.1330e-16	5.1742e-16
5361.2005	6.1225e-16	5.1742e-16
5362.8004	6.1123e-16	5.1742e-16
5363.4003	6.1022e-16	5.1742e-16
5363.8013	6.0916e-16	5.1742e-16
5364.4012	6.0810e-16	5.1742e-16
5365.4011	6.0702e-16	5.1742e-16
5365.6011	6.0592e-16	5.1742e-16
5366.0011	6.0481e-16	5.1742e-16
5366.2011	6.0367e-16	5.1742e-16
5367.0010	6.0252e-16	5.1742e-16
5367.4010	6.0136e-16	5.1742e-16
5368.2009	6.0017e-16	5.1742e-16
5368.8009	5.9896e-16	5.1742e-16
5369.0009	5.9773e-16	5.1742e-16
5369.2018	5.9649e-16	5.1742e-16
5370.2018	5.9524e-16	5.1742e-16
5370.6017	5.9403e-16	5.1742e-16
5370.8017	5.9281e-16	5.1742e-16
5371.0017	5.9154e-16	5.1742e-16
5371.2017	5.9026e-16	5.1742e-16
5371.6016	5.8896e-16	5.1742e-16
5371.8016	5.8769e-16	5.1742e-16
5372.0016	5.8634e-16	5.1742e-16
5372.2016	5.8503e-16	5.1742e-16
5373.6015	5.8366e-16	5.1742e-16
5373.8015	5.8230e-16	5.1742e-16
5375.0024	5.8093e-16	5.1742e-16
5375.2023	5.7952e-16	5.1742e-16
5375.4023	5.7807e-16	5.1742e-16
5375.6023	5.7667e-16	5.1742e-16
5375.8023	5.7527e-16	5.1742e-16
5376.0023	5.7385e-16	5.1742e-16
5376.4023	5.7240e-16	5.1742e-16
5376.8022	5.7092e-16	5.1742e-16
5378.0021	5.6947e-16	5.1742e-16
5378.2021	5.6804e-16	5.1742e-16
5378.4021	5.6650e-16	5.1742e-16
5378.6021	5.6502e-16	5.1742e-16
5379.2020	5.6345e-16	5.1742e-16
5379.8020	5.6194e-16	5.1742e-16
5380.0020	5.6036e-16	5.1742e-16
5380.4029	5.5875e-16	5.1742e-16
5380.6029	5.5714e-16	5.1742e-16
5381.6028	5.5555e-16	5.1742e-16
5381.8028	5.5398e-16	5.1742e-16
5382.0028	5.5235e-16	5.1742e-16
5382.6027	5.5071e-16	5.1742e-16
5382.8027	5.4908e-16	5.1742e-16
5383.4027	5.4739e-16	5.1742e-16
5383.6027	5.4574e-16	5.1742e-16
5383.8026	5.4406e-16	5.1742e-16
5384.0026	5.4236e-16	5.1742e-16
5384.2026	5.4062e-16	5.1742e-16
5384.4026	5.3890e-16	5.1742e-16
5384.8026	5.3719e-16	5.1742e-16
5385.6035	5.3547e-16	5.1742e-16
5385.8035	5.3369e-16	5.1742e-16
5386.0035	5.3189e-16	5.1742e-16
5386.2035	5.3009e-16	5.1742e-16
5386.8034	5.2827e-16	5.1742e-16
5387.0034	5.2645e-16	5.1742e-16
5387.4034	5.2461e-16	5.1742e-16
5387.6033	5.2277e-16	5.1742e-16
5389.2032	5.2093e-16	5.1742e-16
5389.6032	5.1907e-16	5.1742e-16
5389.8032	5.1720e-16	5.1742e-16
5390.6031	5.1533e-16	5.1742e-16
5390.8031	5.1345e-16	5.1738e-16
5391.4040	5.1156e-16	5.1745e-16
5392.4039	5.0967e-16	5.1690e-16
5393.0039	5.0776e-16	5.1637e-16
5393.6039	5.0585e-16	5.1059e-16
5393.8038	5.0392e-16	5.0916e-16
5394.0038	5.0196e-16	5.0751e-16
5394.6038	5.0005e-16	5.0769e-16
5395.0037	4.9810e-16	5.0541e-16
5395.4037	4.9616e-16	5.0506e-16
5396.2036	4.9423e-16	5.0504e-16
5397.2046	4.9221e-16	4.9456e-16
5397.4045	4.9021e-16	4.8989e-16
5397.8045	4.8821e-16	4.8977e-16
5398.2045	4.8619e-16	4.8799e-16
5398.4045	4.8415e-16	4.8784e-16
5398.6044	4.8213e-16	4.8287e-16
5398.8044	4.8014e-16	4.8046e-16
5399.4044	4.7803e-16	4.7861e-16
5399.6044	4.7592e-16	4.7070e-16
5399.8043	4.7381e-16	4.7036e-16
5400.0043	4.7169e-16	4.6100e-16
5400.2043	4.6956e-16	4.5175e-16
5400.4043	4.6743e-16	4.5083e-16
5400.6043	4.6530e-16	4.4651e-16
5400.8043	4.6315e-16	4.4569e-16
5401.4042	4.6100e-16	4.4218e-16
5401.6042	4.5885e-16	4.3718e-16
5401.8042	4.5669e-16	4.3548e-16
5402.0052	4.5453e-16	4.3523e-16
5402.6051	4.5236e-16	4.2933e-16
5403.4051	4.5020e-16	4.2921e-16
5405.0049	4.4801e-16	4.2931e-16
5405.2049	4.4581e-16	4.2903e-16
5405.6049	4.4360e-16	4.2834e-16
5405.8049	4.4138e-16	4.2826e-16
5406.0048	4.3916e-16	4.2825e-16
5406.2048	4.3693e-16	4.2805e-16
5406.8048	4.3470e-16	4.2363e-16
5408.0057	4.3246e-16	4.1171e-16
5408.2057	4.3021e-16	4.0983e-16
5408.4056	4.2796e-16	3.8982e-16
5409.2056	4.2570e-16	3.8760e-16
5409.4056	4.2343e-16	3.8767e-16
5409.6056	4.2116e-16	3.8670e-16
5409.8055	4.1886e-16	3.8659e-16
5410.0055	4.1657e-16	3.8525e-16
5411.0054	4.1429e-16	3.8516e-16
5411.6054	4.1199e-16	3.8268e-16
5412.0054	4.0969e-16	3.8264e-16
5412.6053	4.0739e-16	3.7983e-16
5412.8063	4.0507e-16	3.7965e-16
5413.0063	4.0275e-16	3.7820e-16
5413.2063	4.0042e-16	3.7689e-16
5413.8062	3.9809e-16	3.7670e-16
5414.0062	3.9575e-16	3.6621e-16
5414.2062	3.9340e-16	3.4827e-16
5414.6061	3.9105e-16	3.4371e-16
5414.8061	3.8869e-16	3.4368e-16
5415.0061	3.8632e-16	3.4283e-16
5415.2061	3.8395e-16	3.4259e-16
5415.4061	3.8161e-16	3.4207e-16
5415.6061	3.7928e-16	3.4110e-16
5416.0060	3.7691e-16	3.3739e-16
5417.2059	3.7452e-16	3.3460e-16
5417.6059	3.7215e-16	3.3455e-16
5418.0059	3.6974e-16	3.3292e-16
5418.2059	3.6734e-16	3.2691e-16
5419.0068	3.6493e-16	3.2244e-16
5419.6067	3.6250e-16	3.0985e-16
5419.8067	3.6007e-16	3.0946e-16
5420.0067	3.5764e-16	3.0304e-16
5420.2067	3.5525e-16	2.9559e-16
5420.4067	3.5282e-16	2.8921e-16
5420.6067	3.5038e-16	2.8915e-16
5421.2066	3.4793e-16	2.8913e-16
5421.8066	3.4553e-16	2.8608e-16
5422.4065	3.4314e-16	2.8562e-16
5422.6065	3.4071e-16	2.8289e-16
5423.0065	3.3826e-16	2.8265e-16
5423.2064	3.3581e-16	2.6155e-16
5424.2074	3.3334e-16	2.6138e-16
5424.4073	3.3090e-16	2.3581e-16
5424.6073	3.2847e-16	2.3479e-16
5424.8073	3.2599e-16	2.3469e-16
5425.2073	3.2355e-16	2.3408e-16
5425.4073	3.2113e-16	2.2780e-16
5425.8072	3.1866e-16	2.2665e-16
5426.0072	3.1620e-16	2.2509e-16
5426.4072	3.1373e-16	2.2280e-16
5426.6072	3.1124e-16	2.1608e-16
5426.8072	3.0877e-16	2.0731e-16
5427.0071	3.0632e-16	2.0732e-16
5427.2071	3.0383e-16	2.0724e-16
5427.4071	3.0138e-16	2.0727e-16
5427.6071	2.9892e-16	2.0727e-16
5427.8071	2.9645e-16	2.0725e-16
5428.0071	2.9397e-16	2.0639e-16
5428.8070	2.9147e-16	2.0609e-16
5429.0070	2.8900e-16	2.0611e-16
5430.0079	2.8650e-16	2.0614e-16
5430.6078	2.8402e-16	2.0524e-16
5431.2078	2.8156e-16	2.0513e-16
5431.4078	2.7913e-16	2.0520e-16
5431.6078	2.7664e-16	2.0137e-16
5431.8077	2.7416e-16	1.9776e-16
5432.0077	2.7168e-16	1.9430e-16
5433.6076	2.6920e-16	1.9107e-16
5433.8076	2.6672e-16	1.8809e-16
5434.4075	2.6426e-16	1.8557e-16
5434.6085	2.6183e-16	1.8407e-16
5434.8085	2.5935e-16	1.8279e-16
5435.4085	2.5687e-16	1.8163e-16
5435.8084	2.5437e-16	1.8063e-16
5436.2084	2.5191e-16	1.8019e-16
5437.0083	2.4943e-16	1.7978e-16
5437.2083	2.4696e-16	1.7976e-16
5437.6083	2.4451e-16	1.7973e-16
5438.2082	2.4206e-16	1.7925e-16
5438.4082	2.3956e-16	1.7910e-16
5438.6082	2.3709e-16	1.7856e-16
5438.8082	2.3465e-16	1.7775e-16
5439.2081	2.3220e-16	1.7673e-16
5440.6090	2.2973e-16	1.7632e-16
5440.8090	2.2725e-16	1.5607e-16
5441.2090	2.2482e-16	1.5443e-16
5442.0089	2.2235e-16	1.5409e-16
5442.8089	2.1992e-16	1.5429e-16
5443.0088	2.1747e-16	1.4926e-16
5443.2088	2.1502e-16	1.3995e-16
5443.8088	2.1259e-16	1.3996e-16
5444.0088	2.1013e-16	1.3871e-16
5444.2087	2.0766e-16	1.3896e-16
5445.0087	2.0521e-16	1.3549e-16
5445.2087	2.0275e-16	1.3353e-16
5445.4086	2.0031e-16	1.3328e-16
5445.6096	1.9791e-16	1.3248e-16
5446.0096	1.9549e-16	1.3059e-16
5446.6095	1.9306e-16	1.3002e-16
5447.2095	1.9068e-16	1.2683e-16
5447.6095	1.8828e-16	1.2733e-16
5448.0094	1.8585e-16	1.2741e-16
5448.8094	1.8343e-16	1.2572e-16
5449.2093	1.8100e-16	1.2560e-16
5449.4093	1.7864e-16	1.2550e-16
5449.8093	1.7625e-16	1.2302e-16
5450.0093	1.7384e-16	1.2354e-16
5450.2093	1.7146e-16	1.2351e-16
5450.8092	1.6908e-16	1.2283e-16
5451.0102	1.6668e-16	1.2309e-16
5451.2102	1.6431e-16	1.2348e-16
5451.4102	1.6195e-16	1.2265e-16
5451.6101	1.5961e-16	1.1728e-16
5452.0101	1.5727e-16	1.1766e-16
5452.2101	1.5495e-16	1.1669e-16
5452.4101	1.5262e-16	1.1538e-16
5453.2100	1.5028e-16	1.1468e-16
5453.4100	1.4796e-16	1.1431e-16
5453.6100	1.4567e-16	1.1476e-16
5453.8100	1.4339e-16	1.1316e-16
5454.2099	1.4109e-16	1.1324e-16
5454.4099	1.3876e-16	1.1330e-16
5455.0099	1.3647e-16	1.1348e-16
5456.2098	1.3420e-16	1.1399e-16
5456.4107	1.3194e-16	1.1292e-16
5456.6107	1.2968e-16	1.1134e-16
5457.0107	1.2740e-16	1.1184e-16
5457.2107	1.2513e-16	1.1230e-16
5457.4107	1.2288e-16	1.1247e-16
5457.6106	1.2064e-16	1.1241e-16
5457.8106	1.1845e-16	1.1175e-16
5458.2106	1.1622e-16	1.1137e-16
5458.6106	1.1402e-16	1.1158e-16
5459.0105	1.1183e-16	1.0999e-16
5459.6105	1.0963e-16	1.1033e-16
5460.0105	1.0744e-16	1.1049e-16
5460.6104	1.0525e-16	1.1020e-16
5460.8104	1.0306e-16	1.0975e-16
5461.0104	1.0089e-16	1.0882e-16
5461.4103	9.8725e-17	1.0904e-16
5461.6103	9.6590e-17	1.0861e-16
5461.8103	9.4454e-17	1.0848e-16
5462.0113	9.2323e-17	1.0867e-16
5462.2113	9.0212e-17	1.0853e-16
5462.4113	8.8101e-17	1.0885e-16
5462.6112	8.6002e-17	1.0854e-16
5462.8112	8.3927e-17	1.0849e-16
5463.0112	8.1863e-17	1.0809e-16
5463.2112	7.9788e-17	1.0749e-16
5463.4112	7.7723e-17	1.0652e-16
5463.8111	7.5697e-17	1.0668e-16
5464.0111	7.3676e-17	1.0644e-16
5464.2111	7.1642e-17	1.0495e-16
5464.4111	6.9612e-17	1.0459e-16
5464.6111	6.7625e-17	1.0490e-16
5464.8111	6.5637e-17	1.0513e-16
5465.6110	6.3663e-17	1.0499e-16
5466.0110	6.1700e-17	1.0340e-16
5466.2110	5.9753e-17	1.0282e-16
5466.8109	5.7810e-17	1.0317e-16
5467.0109	5.5881e-17	1.0332e-16
5467.2109	5.3976e-17	1.0332e-16
5467.4119	5.2062e-17	1.0237e-16
5467.6118	5.0189e-17	1.0168e-16
5467.8118	4.8340e-17	1.0169e-16
5468.2118	4.6489e-17	1.0186e-16
5468.4118	4.4625e-17	1.0111e-16
5468.6118	4.2767e-17	1.0088e-16
5468.8117	4.0939e-17	1.0092e-16
5469.4117	3.9145e-17	1.0016e-16
5469.6117	3.7359e-17	9.9100e-17
5470.6116	3.5570e-17	9.9109e-17
5470.8116	3.3800e-17	9.7592e-17
5471.0116	3.2029e-17	9.7563e-17
5471.2115	3.0271e-17	9.7663e-17
5471.4115	2.8536e-17	9.7571e-17
5471.8115	2.6819e-17	9.7625e-17
5472.0115	2.5120e-17	9.6290e-17
5472.8124	2.3434e-17	9.6230e-17
5473.0124	2.1768e-17	9.5710e-17
5473.6123	2.0126e-17	9.5881e-17
5473.8123	1.8490e-17	9.5634e-17
5474.0123	1.6843e-17	9.5520e-17
5474.2123	1.5240e-17	9.4433e-17
5474.4123	1.3635e-17	9.4341e-17
5474.6123	1.2050e-17	9.3959e-17
5474.8123	1.0475e-17	9.2581e-17
5475.0122	8.9236e-18	9.1911e-17
5475.2122	7.4015e-18	9.1770e-17
5475.4122	5.8956e-18	9.0895e-17
5475.6122	4.3825e-18	8.9509e-17
5476.0122	2.8806e-18	8.8776e-17
5476.2121	1.4165e-18	8.8561e-17
5476.4121	-2.3363e-20	8.7917e-17
5476.6121	-1.4829e-18	8.6533e-17
5477.0121	-2.9216e-18	8.6114e-17
5477.2121	-4.3424e-18	8.5749e-17
5477.6120	-5.7405e-18	8.4819e-17
5477.8120	-7.1061e-18	8.4307e-17
5478.0120	-8.4658e-18	8.3495e-17
5478.6129	-9.7972e-18	8.2832e-17
5478.8129	-1.1116e-17	8.1991e-17
5479.0129	-1.2413e-17	8.1608e-17
5479.2129	-1.3677e-17	8.0757e-17
5479.4129	-1.4946e-17	7.9978e-17
5479.8128	-1.6184e-17	7.9027e-17
5480.0128	-1.7392e-17	7.8218e-17
5480.2128	-1.8586e-17	7.7093e-17
5480.4128	-1.9762e-17	7.5837e-17
5480.8128	-2.0934e-17	7.5502e-17
5481.0127	-2.2086e-17	7.5022e-17
5481.6127	-2.3202e-17	7.4386e-17
5481.8127	-2.4306e-17	7.3129e-17
5482.0127	-2.5395e-17	7.2414e-17
5482.6126	-2.6472e-17	7.1778e-17
5482.8126	-2.7541e-17	7.1142e-17
5483.2126	-2.8564e-17	7.0948e-17
5483.4126	-2.9578e-17	6.9925e-17
5483.6135	-3.0581e-17	6.9379e-17
5484.0135	-3.1563e-17	6.8309e-17
5484.4135	-3.2543e-17	6.7997e-17
5484.6135	-3.3494e-17	6.7193e-17
5484.8134	-3.4411e-17	6.6086e-17
5485.2134	-3.5317e-17	6.4903e-17
5485.4134	-3.6186e-17	6.3666e-17
5486.0133	-3.7026e-17	6.2657e-17
5486.2133	-3.7853e-17	6.2044e-17
5486.4133	-3.8661e-17	6.0964e-17
5486.6133	-3.9451e-17	6.0846e-17
5487.0133	-4.0216e-17	5.9848e-17
5487.2132	-4.0953e-17	5.8829e-17
5487.4132	-4.1687e-17	5.7849e-17
5487.8132	-4.2393e-17	5.6945e-17
5488.0132	-4.3071e-17	5.6443e-17
5488.2132	-4.3737e-17	5.5708e-17
5488.4131	-4.4394e-17	5.4830e-17
5488.6131	-4.5006e-17	5.4192e-17
5488.8131	-4.5610e-17	5.3358e-17
5489.4141	-4.6195e-17	5.2803e-17
5489.8140	-4.6738e-17	5.2425e-17
5490.2140	-4.7254e-17	5.2120e-17
5490.4140	-4.7756e-17	5.1295e-17
5490.6140	-4.8247e-17	5.0937e-17
5490.8140	-4.8716e-17	5.0676e-17
5491.2139	-4.9154e-17	5.0125e-17
5491.4139	-4.9566e-17	4.9620e-17
5492.0139	-4.9964e-17	4.8629e-17
5492.2138	-5.0347e-17	4.7811e-17
5492.6138	-5.0705e-17	4.7142e-17
5492.8138	-5.1025e-17	4.6366e-17
5493.0138	-5.1311e-17	4.5778e-17
5493.4137	-5.1602e-17	4.5626e-17
5493.6137	-5.1876e-17	4.4744e-17
5494.2137	-5.2110e-17	4.4112e-17
5494.4137	-5.2314e-17	4.3558e-17
5494.6146	-5.2486e-17	4.3071e-17
5494.8146	-5.2653e-17	4.2729e-17
5495.0146	-5.2774e-17	4.2378e-17
5495.2146	-5.2888e-17	4.2117e-17
5495.6146	-5.2976e-17	4.1937e-17
5495.8145	-5.3029e-17	4.1654e-17
5496.0145	-5.3066e-17	4.1377e-17
5496.6145	-5.3063e-17	4.1162e-17
5496.8145	-5.3048e-17	4.0964e-17
5497.4144	-5.3026e-17	4.0803e-17
5497.6144	-5.2968e-17	4.0518e-17
5497.8144	-5.2871e-17	4.0129e-17
5498.0144	-5.2769e-17	3.9632e-17
5498.2144	-5.2644e-17	3.9528e-17
5498.4143	-5.2482e-17	3.9352e-17
5498.6143	-5.2278e-17	3.9079e-17
5498.8143	-5.2044e-17	3.8865e-17
5499.0143	-5.1787e-17	3.8483e-17
5499.2143	-5.1509e-17	3.8280e-17
5499.4143	-5.1203e-17	3.8329e-17
5499.6142	-5.0869e-17	3.8048e-17
5499.8142	-5.0516e-17	3.7817e-17
5500.0152	-5.0137e-17	3.7741e-17
5500.2152	-4.9717e-17	3.7439e-17
5500.6152	-4.9262e-17	3.7169e-17
5500.8151	-4.8788e-17	3.7120e-17
5501.0151	-4.8300e-17	3.7193e-17
5501.2151	-4.7777e-17	3.6899e-17
5501.4151	-4.7226e-17	3.6790e-17
5501.6151	-4.6655e-17	3.6835e-17
5501.8151	-4.6031e-17	3.6679e-17
5502.0150	-4.5381e-17	3.6517e-17
5502.4150	-4.4735e-17	3.6646e-17
5502.8150	-4.4034e-17	3.6458e-17
5503.0150	-4.3306e-17	3.6450e-17
5503.4149	-4.2559e-17	3.6306e-17
5503.8149	-4.1786e-17	3.6092e-17
5504.4148	-4.0974e-17	3.6015e-17
5504.8148	-4.0141e-17	3.5837e-17
5505.0148	-3.9294e-17	3.5711e-17
5505.2148	-3.8402e-17	3.5705e-17
5505.4158	-3.7466e-17	3.5575e-17
5505.6158	-3.6524e-17	3.5714e-17
5506.2157	-3.5533e-17	3.5687e-17
5506.4157	-3.4535e-17	3.5615e-17
5507.0156	-3.3479e-17	3.5845e-17
5507.2156	-3.2405e-17	3.5970e-17
5507.4156	-3.1310e-17	3.5915e-17
5507.6156	-3.0177e-17	3.5843e-17
5508.0156	-2.9018e-17	3.5932e-17
5508.2155	-2.7829e-17	3.6039e-17
5508.4155	-2.6613e-17	3.6051e-17
5508.8155	-2.5363e-17	3.6239e-17
5509.0155	-2.4070e-17	3.6307e-17
5509.4154	-2.2743e-17	3.6332e-17
5509.8154	-2.1390e-17	3.6374e-17
5510.0154	-1.9996e-17	3.6589e-17
5510.2154	-1.8600e-17	3.6632e-17
5510.4154	-1.7167e-17	3.6690e-17
5510.6153	-1.5692e-17	3.6723e-17
5510.8163	-1.4186e-17	3.6871e-17
5511.0163	-1.2646e-17	3.7025e-17
5511.2163	-1.1078e-17	3.7177e-17
5511.4163	-9.4745e-18	3.7313e-17
5511.6163	-7.8589e-18	3.7451e-17
5511.8162	-6.2214e-18	3.7562e-17
5512.0162	-4.5371e-18	3.7641e-17
5512.2162	-2.8090e-18	3.7748e-17
5512.8162	-1.0381e-18	3.7856e-17
5513.2161	7.2732e-19	3.7882e-17
5513.4161	2.5603e-18	3.7977e-17
5513.6161	4.4152e-18	3.8065e-17
5514.0161	5.2500e-18	3.8145e-17
5514.2161	5.6403e-18	3.8231e-17
5514.4160	7.8385e-18	3.8254e-17
5515.0160	6.7985e-18	3.8321e-17
5515.2160	9.4043e-18	3.8378e-17
5515.4160	9.4666e-18	3.8453e-17
5515.6159	1.0893e-17	3.8458e-17
5515.8159	1.0739e-17	3.8501e-17
5516.0159	1.1291e-17	3.8518e-17
5516.2159	1.3102e-17	3.8480e-17
5516.4169	1.1351e-17	3.8613e-17
5516.6169	1.0566e-17	3.8650e-17
5516.8168	1.2276e-17	3.8668e-17
5517.0168	1.4942e-17	3.8713e-17
5517.2168	1.5760e-17	3.8705e-17
5517.4168	1.4964e-17	3.8670e-17
5517.6168	1.4810e-17	3.8419e-17
5517.8168	1.7457e-17	3.8573e-17
5518.0167	1.6128e-17	3.8718e-17
5518.2167	1.8118e-17	3.8522e-17
5518.4167	1.6593e-17	3.8449e-17
5518.6167	1.5052e-17	3.8553e-17
5518.8167	1.5352e-17	3.8451e-17
5519.6166	1.4658e-17	3.8487e-17
5519.8166	1.5022e-17	3.8493e-17
5520.0166	1.4486e-17	3.8419e-17
5520.4165	1.3606e-17	3.8401e-17
5520.6165	1.5921e-17	3.8414e-17
5520.8165	1.6525e-17	3.8359e-17
5521.0165	1.5522e-17	3.8203e-17
5521.2165	1.7050e-17	3.8015e-17
5521.4165	1.8264e-17	3.7922e-17
5521.6165	1.9944e-17	3.7814e-17
5522.0174	2.1911e-17	3.7674e-17
5522.2174	2.3454e-17	3.7503e-17
5522.6174	2.4866e-17	3.7302e-17
5522.8174	2.5670e-17	3.7080e-17
5523.0173	2.5039e-17	3.6838e-17
5523.2173	2.3239e-17	3.6574e-17
5523.4173	2.3212e-17	3.6275e-17
5524.8172	2.0521e-17	3.5952e-17
5525.0172	2.0297e-17	3.5576e-17
5525.2172	2.1277e-17	3.5173e-17
5525.4171	2.3174e-17	3.4864e-17
5525.6171	2.3911e-17	3.4709e-17
5525.8171	2.5974e-17	3.4677e-17
5526.0171	2.7367e-17	3.4194e-17
5526.2171	2.7156e-17	3.3739e-17
5526.4171	2.8493e-17	3.3501e-17
5526.6170	2.8198e-17	3.3413e-17
5527.0170	2.9667e-17	3.3253e-17
5527.2180	3.1786e-17	3.3080e-17
5527.4180	3.3889e-17	3.2548e-17
5527.6180	3.4685e-17	3.2464e-17
5527.8179	3.3181e-17	3.2302e-17
5528.0179	3.0866e-17	3.2210e-17
5528.4179	3.0196e-17	3.2115e-17
5528.6179	3.1356e-17	3.1924e-17
5529.0179	3.3128e-17	3.1767e-17
5529.4178	3.3793e-17	3.1543e-17
5529.6178	3.5391e-17	3.1288e-17
5530.0178	3.5678e-17	3.1076e-17
5530.6177	3.5203e-17	3.0881e-17
5530.8177	3.4905e-17	3.0625e-17
5531.8176	3.5724e-17	3.0315e-17
5532.0176	3.5720e-17	2.9984e-17
5532.8185	3.4803e-17	2.9853e-17
5533.0185	3.4105e-17	2.9508e-17
5533.2185	3.2308e-17	2.9144e-17
5533.4185	3.3621e-17	2.8910e-17
5533.8185	3.2572e-17	2.8513e-17
5534.0184	3.1382e-17	2.8287e-17
5534.8184	3.0306e-17	2.8081e-17
5535.0184	3.1223e-17	2.7826e-17
5536.0183	3.1847e-17	2.7539e-17
5536.4182	3.1310e-17	2.6983e-17
5536.6182	3.2529e-17	2.6553e-17
5537.2182	3.2048e-17	2.6401e-17
5537.4182	3.3094e-17	2.5998e-17
5537.6182	3.0557e-17	2.5872e-17
5537.8181	3.1501e-17	2.5312e-17
5538.0181	2.8736e-17	2.4994e-17
5538.2191	2.9973e-17	2.4723e-17
5538.4191	3.0309e-17	2.4312e-17
5538.6191	3.1412e-17	2.4152e-17
5539.2190	3.0360e-17	2.3635e-17
5539.4190	3.1612e-17	2.3494e-17
5539.8190	3.2988e-17	2.3191e-17
5540.0190	3.2613e-17	2.3050e-17
5540.6189	3.1509e-17	2.2860e-17
5540.8189	3.0170e-17	2.2693e-17
5541.0189	3.0745e-17	2.2380e-17
5541.4188	3.1007e-17	2.1955e-17
5541.6188	3.1357e-17	2.1842e-17
5542.0188	3.1996e-17	2.1586e-17
5542.2188	3.2314e-17	2.1201e-17
5542.4188	3.3398e-17	2.0720e-17
5542.8187	3.4258e-17	2.0599e-17
5543.2187	3.4663e-17	2.0396e-17
5543.4187	3.5274e-17	2.0007e-17
5543.6197	3.5157e-17	1.9507e-17
5543.8196	3.5354e-17	1.9068e-17
5544.0196	3.5819e-17	1.8926e-17
5544.2196	3.5082e-17	1.8679e-17
5544.4196	3.4350e-17	1.8567e-17
5545.0196	3.3624e-17	1.8377e-17
5545.2195	3.2910e-17	1.8175e-17
5545.6195	3.2217e-17	1.7978e-17
5545.8195	3.1602e-17	1.7671e-17
5546.4194	3.1147e-17	1.7481e-17
5546.6194	3.0721e-17	1.7445e-17
5547.2194	3.0309e-17	1.7254e-17
5547.4194	2.9923e-17	1.6929e-17
5547.6193	2.9665e-17	1.6889e-17
5547.8193	2.9440e-17	1.6769e-17
5548.0193	2.9347e-17	1.6578e-17
5548.2193	2.9287e-17	1.6538e-17
5548.4193	2.9976e-17	1.5854e-17
5548.6193	3.0495e-17	1.5478e-17
5548.8192	3.1141e-17	1.5477e-17
5549.0202	3.1937e-17	1.5391e-17
5549.2202	3.1498e-17	1.4970e-17
5549.4202	3.2094e-17	1.4761e-17
5549.6202	2.9782e-17	1.4745e-17
5549.8202	3.0619e-17	1.4751e-17
5550.0201	3.0320e-17	1.4663e-17
5550.2201	3.0378e-17	1.4673e-17
5550.4201	2.9268e-17	1.4252e-17
5550.6201	2.7731e-17	1.3905e-17
5550.8201	2.8020e-17	1.3889e-17
5551.0201	2.8681e-17	1.3871e-17
