#wls	flux	fluxerr	mangling_mask
3.831579E+03	1.188595E-15	4.139705E-16	2.420566E+00
3.833277E+03	1.244457E-15	4.155016E-16	2.420557E+00
3.834974E+03	1.306878E-15	4.170003E-16	2.420548E+00
3.836672E+03	1.371380E-15	4.139112E-16	2.420539E+00
3.838370E+03	1.435325E-15	4.052631E-16	2.420528E+00
3.840068E+03	1.489926E-15	4.065722E-16	2.420518E+00
3.841766E+03	1.535933E-15	4.080512E-16	2.420507E+00
3.843463E+03	1.580172E-15	4.041380E-16	2.420495E+00
3.845161E+03	1.622111E-15	3.868598E-16	2.420483E+00
3.846859E+03	1.663129E-15	3.545202E-16	2.420470E+00
3.848557E+03	1.709520E-15	3.321495E-16	2.420457E+00
3.850255E+03	1.761647E-15	3.241576E-16	2.420443E+00
3.851952E+03	1.818928E-15	3.313306E-16	2.420429E+00
3.853650E+03	1.880589E-15	3.438455E-16	2.420414E+00
3.855348E+03	1.937796E-15	3.446955E-16	2.420399E+00
3.857046E+03	1.982899E-15	3.448408E-16	2.420383E+00
3.858744E+03	2.014931E-15	3.453503E-16	2.420367E+00
3.860441E+03	2.042001E-15	3.476891E-16	2.420350E+00
3.862139E+03	2.065971E-15	3.526639E-16	2.420332E+00
3.863837E+03	2.086771E-15	3.513672E-16	2.420314E+00
3.865535E+03	2.110280E-15	3.301182E-16	2.420295E+00
3.867233E+03	2.136814E-15	2.963731E-16	2.420276E+00
3.868930E+03	2.164121E-15	2.744499E-16	2.420257E+00
3.870628E+03	2.192928E-15	2.686048E-16	2.420236E+00
3.872326E+03	2.219798E-15	2.729777E-16	2.420216E+00
3.874024E+03	2.244875E-15	2.772946E-16	2.420194E+00
3.875722E+03	2.273341E-15	2.857697E-16	2.420172E+00
3.877419E+03	2.297352E-15	3.008942E-16	2.420150E+00
3.879117E+03	2.315771E-15	3.040870E-16	2.420127E+00
3.880815E+03	2.331697E-15	3.043252E-16	2.420104E+00
3.882513E+03	2.349897E-15	3.163339E-16	2.420080E+00
3.884211E+03	2.368847E-15	3.430465E-16	2.420055E+00
3.885908E+03	2.386561E-15	3.533973E-16	2.420030E+00
3.887606E+03	2.405653E-15	3.527177E-16	2.420004E+00
3.889304E+03	2.427964E-15	3.506072E-16	2.419978E+00
3.891002E+03	2.457460E-15	3.558583E-16	2.419951E+00
3.892700E+03	2.484535E-15	3.647608E-16	2.419923E+00
3.894397E+03	2.512335E-15	3.669238E-16	2.419895E+00
3.896095E+03	2.538198E-15	3.670726E-16	2.419867E+00
3.897793E+03	2.551235E-15	3.726106E-16	2.419838E+00
3.899491E+03	2.559189E-15	3.789313E-16	2.419808E+00
3.901189E+03	2.565932E-15	3.956407E-16	2.419778E+00
3.902886E+03	2.563722E-15	4.244020E-16	2.419747E+00
3.904584E+03	2.560301E-15	4.407890E-16	2.419716E+00
3.906282E+03	2.562203E-15	4.467440E-16	2.419684E+00
3.907980E+03	2.561927E-15	4.450977E-16	2.419651E+00
3.909677E+03	2.567457E-15	4.377125E-16	2.419618E+00
3.911375E+03	2.580729E-15	4.374915E-16	2.419584E+00
3.913073E+03	2.587709E-15	4.370944E-16	2.419550E+00
3.914771E+03	2.587672E-15	4.310747E-16	2.419515E+00
3.916469E+03	2.583521E-15	4.286771E-16	2.419480E+00
3.918166E+03	2.568240E-15	4.303524E-16	2.419444E+00
3.919864E+03	2.546910E-15	4.285813E-16	2.419408E+00
3.921562E+03	2.527274E-15	4.197751E-16	2.419370E+00
3.923260E+03	2.508848E-15	4.025845E-16	2.419333E+00
3.924958E+03	2.493809E-15	3.838995E-16	2.419294E+00
3.926655E+03	2.485059E-15	3.743766E-16	2.419255E+00
3.928353E+03	2.480180E-15	3.749951E-16	2.419216E+00
3.930051E+03	2.476269E-15	3.720964E-16	2.419176E+00
3.931749E+03	2.470663E-15	3.560695E-16	2.419135E+00
3.933447E+03	2.461670E-15	3.500030E-16	2.419094E+00
3.935144E+03	2.453887E-15	3.489326E-16	2.419052E+00
3.936842E+03	2.454569E-15	3.394329E-16	2.419010E+00
3.938540E+03	2.462266E-15	3.180606E-16	2.418967E+00
3.940238E+03	2.470204E-15	2.920681E-16	2.418923E+00
3.941936E+03	2.473788E-15	2.783867E-16	2.418879E+00
3.943633E+03	2.473016E-15	2.868543E-16	2.418834E+00
3.945331E+03	2.470067E-15	3.176205E-16	2.418789E+00
3.947029E+03	2.465908E-15	3.317128E-16	2.418743E+00
3.948727E+03	2.462716E-15	3.188053E-16	2.418696E+00
3.950425E+03	2.466054E-15	2.943163E-16	2.418649E+00
3.952122E+03	2.473987E-15	2.723264E-16	2.418601E+00
3.953820E+03	2.475631E-15	2.606989E-16	2.418553E+00
3.955518E+03	2.475097E-15	2.619468E-16	2.418504E+00
3.957216E+03	2.478674E-15	2.643301E-16	2.418454E+00
3.958913E+03	2.481041E-15	2.659334E-16	2.418404E+00
3.960611E+03	2.483165E-15	2.639595E-16	2.418353E+00
3.962309E+03	2.488432E-15	2.640875E-16	2.418302E+00
3.964007E+03	2.496601E-15	2.657396E-16	2.418249E+00
3.965705E+03	2.507186E-15	2.610584E-16	2.418197E+00
3.967402E+03	2.520673E-15	2.570978E-16	2.418143E+00
3.969100E+03	2.535367E-15	2.582779E-16	2.418090E+00
3.970798E+03	2.547400E-15	2.587477E-16	2.418035E+00
3.972496E+03	2.552661E-15	2.594978E-16	2.417980E+00
3.974194E+03	2.552602E-15	2.656890E-16	2.417924E+00
3.975891E+03	2.553510E-15	2.734137E-16	2.417868E+00
3.977589E+03	2.553450E-15	2.742998E-16	2.417811E+00
3.979287E+03	2.550729E-15	2.747213E-16	2.417753E+00
3.980985E+03	2.550910E-15	2.746544E-16	2.417695E+00
3.982682E+03	2.557617E-15	2.764532E-16	2.417636E+00
3.984380E+03	2.563840E-15	2.720786E-16	2.417576E+00
3.986078E+03	2.563776E-15	2.682352E-16	2.417516E+00
3.987776E+03	2.562744E-15	2.684709E-16	2.417455E+00
3.989474E+03	2.565822E-15	2.712608E-16	2.417394E+00
3.991171E+03	2.572041E-15	2.712056E-16	2.417332E+00
3.992869E+03	2.578985E-15	2.534110E-16	2.417269E+00
3.994567E+03	2.582543E-15	2.442685E-16	2.417206E+00
3.996265E+03	2.577398E-15	2.457199E-16	2.417142E+00
3.997963E+03	2.565728E-15	2.418222E-16	2.417077E+00
3.999660E+03	2.550915E-15	2.358632E-16	2.417012E+00
4.001358E+03	2.534893E-15	2.342168E-16	2.416946E+00
4.003056E+03	2.524431E-15	2.299450E-16	2.416880E+00
4.004754E+03	2.521944E-15	2.280380E-16	2.416812E+00
4.006452E+03	2.516798E-15	2.243269E-16	2.416745E+00
4.008149E+03	2.501985E-15	2.239381E-16	2.416676E+00
4.009847E+03	2.480406E-15	2.197261E-16	2.416607E+00
4.011545E+03	2.453510E-15	2.212668E-16	2.416537E+00
4.013243E+03	2.421541E-15	2.220219E-16	2.416467E+00
4.014941E+03	2.392111E-15	2.215991E-16	2.416396E+00
4.016638E+03	2.370607E-15	2.272995E-16	2.416324E+00
4.018336E+03	2.358431E-15	2.468710E-16	2.416252E+00
4.020034E+03	2.355025E-15	2.625118E-16	2.416179E+00
4.021732E+03	2.359882E-15	2.607150E-16	2.416105E+00
4.023430E+03	2.368870E-15	2.500620E-16	2.416031E+00
4.025127E+03	2.375658E-15	2.473117E-16	2.415956E+00
4.026825E+03	2.377540E-15	2.481624E-16	2.415880E+00
4.028523E+03	2.374373E-15	2.478549E-16	2.415804E+00
4.030221E+03	2.366035E-15	2.466511E-16	2.415727E+00
4.031919E+03	2.350209E-15	2.465534E-16	2.415649E+00
4.033616E+03	2.327161E-15	2.412052E-16	2.415571E+00
4.035314E+03	2.296432E-15	2.326051E-16	2.415492E+00
4.037012E+03	2.263193E-15	2.262630E-16	2.415412E+00
4.038710E+03	2.232394E-15	2.164144E-16	2.415332E+00
4.040407E+03	2.204834E-15	2.171542E-16	2.415251E+00
4.042105E+03	2.178627E-15	2.301270E-16	2.415169E+00
4.043803E+03	2.155272E-15	2.562695E-16	2.415087E+00
4.045501E+03	2.137568E-15	2.870506E-16	2.415004E+00
4.047199E+03	2.120662E-15	3.123855E-16	2.414920E+00
4.048896E+03	2.098516E-15	3.268544E-16	2.414835E+00
4.050594E+03	2.076758E-15	3.313633E-16	2.414750E+00
4.052292E+03	2.060047E-15	3.310521E-16	2.414665E+00
4.053990E+03	2.045872E-15	3.341121E-16	2.414578E+00
4.055688E+03	2.033605E-15	3.385057E-16	2.414491E+00
4.057385E+03	2.026722E-15	3.429554E-16	2.414403E+00
4.059083E+03	2.020226E-15	3.413716E-16	2.414315E+00
4.060781E+03	2.008225E-15	3.423480E-16	2.414225E+00
4.062479E+03	1.989972E-15	3.429500E-16	2.414136E+00
4.064177E+03	1.964767E-15	3.380234E-16	2.414045E+00
4.065874E+03	1.932829E-15	3.255485E-16	2.413954E+00
4.067572E+03	1.902847E-15	3.200789E-16	2.413862E+00
4.069270E+03	1.879747E-15	3.279407E-16	2.413769E+00
4.070968E+03	1.856068E-15	3.321624E-16	2.413676E+00
4.072666E+03	1.835239E-15	3.340005E-16	2.413582E+00
4.074363E+03	1.822134E-15	3.336378E-16	2.413487E+00
4.076061E+03	1.807727E-15	3.385796E-16	2.413391E+00
4.077759E+03	1.789507E-15	3.471567E-16	2.413295E+00
4.079457E+03	1.775125E-15	3.527642E-16	2.413198E+00
4.081155E+03	1.761757E-15	3.596895E-16	2.413101E+00
4.082852E+03	1.749065E-15	3.723686E-16	2.413002E+00
4.084550E+03	1.742647E-15	3.834092E-16	2.412903E+00
4.086248E+03	1.740548E-15	4.041653E-16	2.412804E+00
4.087946E+03	1.741393E-15	4.417283E-16	2.412703E+00
4.089644E+03	1.744722E-15	4.699110E-16	2.412602E+00
4.091341E+03	1.748773E-15	4.723222E-16	2.412500E+00
4.093039E+03	1.749254E-15	4.511795E-16	2.412398E+00
4.094737E+03	1.742449E-15	4.253094E-16	2.412295E+00
4.096435E+03	1.731760E-15	4.178704E-16	2.412191E+00
4.098132E+03	1.724738E-15	4.298751E-16	2.412086E+00
4.099830E+03	1.714629E-15	4.538824E-16	2.411980E+00
4.101528E+03	1.702397E-15	4.790880E-16	2.411874E+00
4.103226E+03	1.696099E-15	5.030617E-16	2.411767E+00
4.104924E+03	1.683266E-15	5.302505E-16	2.411660E+00
4.106621E+03	1.660136E-15	5.498852E-16	2.411551E+00
4.108319E+03	1.639130E-15	5.582388E-16	2.411442E+00
4.110017E+03	1.620536E-15	5.571136E-16	2.411332E+00
4.111715E+03	1.600593E-15	5.609840E-16	2.411222E+00
4.113413E+03	1.592707E-15	5.688458E-16	2.411111E+00
4.115110E+03	1.593453E-15	5.697874E-16	2.410999E+00
4.116808E+03	1.595018E-15	5.624274E-16	2.410886E+00
4.118506E+03	1.596076E-15	5.553296E-16	2.410772E+00
4.120204E+03	1.594168E-15	5.504189E-16	2.410658E+00
4.121901E+03	1.584812E-15	5.496327E-16	2.410543E+00
4.123599E+03	1.567983E-15	5.491918E-16	2.410427E+00
4.125297E+03	1.547275E-15	5.472969E-16	2.410311E+00
4.126995E+03	1.531558E-15	5.470559E-16	2.410194E+00
4.128693E+03	1.524831E-15	5.491819E-16	2.410076E+00
4.130391E+03	1.521189E-15	5.460094E-16	2.409957E+00
4.132088E+03	1.518174E-15	5.429837E-16	2.409838E+00
4.133786E+03	1.519134E-15	5.319855E-16	2.409717E+00
4.135484E+03	1.523756E-15	4.959058E-16	2.409596E+00
4.137182E+03	1.531727E-15	4.531645E-16	2.409475E+00
4.138880E+03	1.540829E-15	4.289054E-16	2.409352E+00
4.140577E+03	1.545400E-15	4.289622E-16	2.409229E+00
4.142275E+03	1.545344E-15	4.425990E-16	2.409105E+00
4.143973E+03	1.543723E-15	4.480305E-16	2.408980E+00
4.145671E+03	1.538319E-15	4.431393E-16	2.408855E+00
4.147368E+03	1.526772E-15	4.304421E-16	2.408728E+00
4.149066E+03	1.510169E-15	4.133367E-16	2.408601E+00
4.150764E+03	1.506861E-15	3.909952E-16	2.408473E+00
4.152462E+03	1.518100E-15	3.629660E-16	2.408345E+00
4.154160E+03	1.535382E-15	3.320297E-16	2.408216E+00
4.155857E+03	1.553239E-15	3.118577E-16	2.408085E+00
4.157555E+03	1.571214E-15	3.201212E-16	2.407954E+00
4.159253E+03	1.585118E-15	3.222397E-16	2.407823E+00
4.160951E+03	1.590713E-15	3.160105E-16	2.407690E+00
4.162649E+03	1.590408E-15	3.125903E-16	2.407557E+00
4.164346E+03	1.586829E-15	3.116424E-16	2.407423E+00
4.166044E+03	1.577111E-15	3.217566E-16	2.407288E+00
4.167742E+03	1.564120E-15	3.383704E-16	2.407153E+00
4.169440E+03	1.549661E-15	3.473369E-16	2.407016E+00
4.171137E+03	1.535035E-15	3.526420E-16	2.406879E+00
4.172835E+03	1.524478E-15	3.623715E-16	2.406741E+00
4.174533E+03	1.519769E-15	3.673060E-16	2.406603E+00
4.176231E+03	1.521534E-15	3.645672E-16	2.406463E+00
4.177929E+03	1.526258E-15	3.649337E-16	2.406323E+00
4.179627E+03	1.530813E-15	3.517528E-16	2.406182E+00
4.181324E+03	1.537291E-15	3.442389E-16	2.406040E+00
4.183022E+03	1.545644E-15	3.428773E-16	2.405897E+00
4.184720E+03	1.552601E-15	3.435193E-16	2.405754E+00
4.186418E+03	1.555587E-15	3.441103E-16	2.405609E+00
4.188115E+03	1.551139E-15	3.364344E-16	2.405464E+00
4.189813E+03	1.539837E-15	3.359567E-16	2.405318E+00
4.191511E+03	1.529112E-15	3.419264E-16	2.405172E+00
4.193209E+03	1.520432E-15	3.469917E-16	2.405024E+00
4.194907E+03	1.514062E-15	3.507480E-16	2.404876E+00
4.196604E+03	1.512212E-15	3.506684E-16	2.404727E+00
4.198302E+03	1.511733E-15	3.634830E-16	2.404577E+00
4.200000E+03	1.507046E-15	3.956635E-16	2.404426E+00
4.201698E+03	1.500724E-15	4.215587E-16	2.404274E+00
4.203396E+03	1.498321E-15	4.284111E-16	2.404122E+00
4.205093E+03	1.500052E-15	4.162967E-16	2.403969E+00
4.206791E+03	1.508033E-15	4.095784E-16	2.403815E+00
4.208489E+03	1.523031E-15	4.158960E-16	2.403660E+00
4.210187E+03	1.538940E-15	4.249318E-16	2.403504E+00
4.211885E+03	1.552611E-15	4.361952E-16	2.403348E+00
4.213582E+03	1.563852E-15	4.401102E-16	2.403190E+00
4.215280E+03	1.571535E-15	4.326945E-16	2.403032E+00
4.216978E+03	1.579048E-15	4.282569E-16	2.402873E+00
4.218676E+03	1.589275E-15	4.249055E-16	2.402713E+00
4.220373E+03	1.602070E-15	4.187381E-16	2.402553E+00
4.222071E+03	1.616329E-15	4.293012E-16	2.402391E+00
4.223769E+03	1.627919E-15	4.853958E-16	2.402229E+00
4.225467E+03	1.630354E-15	4.937241E-16	2.402066E+00
4.227165E+03	1.626568E-15	4.950153E-16	2.401902E+00
4.228863E+03	1.622397E-15	5.079198E-16	2.401737E+00
4.230560E+03	1.621925E-15	5.218702E-16	2.401571E+00
4.232258E+03	1.625079E-15	5.321395E-16	2.401405E+00
4.233956E+03	1.631065E-15	5.344730E-16	2.401238E+00
4.235654E+03	1.636977E-15	5.352783E-16	2.401069E+00
4.237351E+03	1.640679E-15	5.309919E-16	2.400900E+00
4.239049E+03	1.645605E-15	5.247552E-16	2.400730E+00
4.240747E+03	1.653433E-15	5.188181E-16	2.400560E+00
4.242445E+03	1.664645E-15	5.144942E-16	2.400388E+00
4.244143E+03	1.684087E-15	5.146636E-16	2.400216E+00
4.245840E+03	1.706334E-15	5.095064E-16	2.400042E+00
4.259423E+03	1.719142E-15	4.843512E-16	2.398625E+00
4.261121E+03	1.726544E-15	4.607513E-16	2.398443E+00
4.262818E+03	1.731137E-15	4.465253E-16	2.398262E+00
4.264516E+03	1.727072E-15	4.425309E-16	2.398079E+00
4.266214E+03	1.718643E-15	4.425801E-16	2.397895E+00
4.267912E+03	1.714027E-15	4.361605E-16	2.397710E+00
4.269609E+03	1.712600E-15	4.253166E-16	2.397525E+00
4.271307E+03	1.712467E-15	4.100469E-16	2.397338E+00
4.273005E+03	1.714778E-15	3.974100E-16	2.397151E+00
4.274703E+03	1.716249E-15	3.951591E-16	2.396963E+00
4.276401E+03	1.712447E-15	3.950866E-16	2.396774E+00
4.278099E+03	1.704187E-15	3.950397E-16	2.396584E+00
4.279796E+03	1.692069E-15	3.944766E-16	2.396393E+00
4.281494E+03	1.679977E-15	3.799286E-16	2.396201E+00
4.283192E+03	1.675146E-15	2.932696E-16	2.396009E+00
4.284890E+03	1.678844E-15	2.510750E-16	2.395815E+00
4.286587E+03	1.684888E-15	2.520708E-16	2.395621E+00
4.288285E+03	1.695722E-15	2.353691E-16	2.395426E+00
4.289983E+03	1.713308E-15	2.137052E-16	2.395229E+00
4.291681E+03	1.730483E-15	1.949813E-16	2.395032E+00
4.293379E+03	1.742553E-15	1.849272E-16	2.394834E+00
4.295076E+03	1.749281E-15	1.845989E-16	2.394635E+00
4.296774E+03	1.750835E-15	1.869698E-16	2.394436E+00
4.298472E+03	1.744918E-15	2.038461E-16	2.394235E+00
4.300170E+03	1.733017E-15	2.363957E-16	2.394033E+00
4.301868E+03	1.718411E-15	2.675621E-16	2.393831E+00
4.303565E+03	1.700983E-15	2.806603E-16	2.393627E+00
4.305263E+03	1.678986E-15	2.784023E-16	2.393423E+00
4.306961E+03	1.655149E-15	2.753832E-16	2.393217E+00
4.308659E+03	1.629641E-15	2.850698E-16	2.393011E+00
4.310356E+03	1.601695E-15	3.056843E-16	2.392804E+00
4.312054E+03	1.579999E-15	3.141578E-16	2.392596E+00
4.313752E+03	1.566511E-15	3.148425E-16	2.392387E+00
4.315450E+03	1.555752E-15	3.151408E-16	2.392177E+00
4.317148E+03	1.546406E-15	3.154708E-16	2.391966E+00
4.318846E+03	1.539883E-15	3.167134E-16	2.391754E+00
4.320543E+03	1.531041E-15	3.205460E-16	2.391541E+00
4.322241E+03	1.515887E-15	3.290595E-16	2.391328E+00
4.323939E+03	1.493370E-15	3.518108E-16	2.391113E+00
4.325637E+03	1.468370E-15	3.704167E-16	2.390898E+00
4.327334E+03	1.442848E-15	3.728326E-16	2.390681E+00
4.329032E+03	1.419959E-15	3.684027E-16	2.390464E+00
4.330730E+03	1.405082E-15	3.657125E-16	2.390245E+00
4.332428E+03	1.400149E-15	3.701559E-16	2.390026E+00
4.334126E+03	1.397080E-15	3.729213E-16	2.389806E+00
4.335823E+03	1.391240E-15	3.764132E-16	2.389585E+00
4.337521E+03	1.383536E-15	3.802792E-16	2.389362E+00
4.339219E+03	1.373158E-15	3.805039E-16	2.389139E+00
4.340917E+03	1.356928E-15	3.789288E-16	2.388915E+00
4.342615E+03	1.336305E-15	3.798576E-16	2.388690E+00
4.344312E+03	1.312055E-15	3.812043E-16	2.388464E+00
4.346010E+03	1.284418E-15	3.726610E-16	2.388237E+00
4.347708E+03	1.258338E-15	3.521568E-16	2.388009E+00
4.349406E+03	1.235676E-15	3.236072E-16	2.387780E+00
4.351104E+03	1.212326E-15	3.094202E-16	2.387550E+00
4.352801E+03	1.194018E-15	3.204151E-16	2.387320E+00
4.354499E+03	1.186932E-15	3.420186E-16	2.387088E+00
4.356197E+03	1.191637E-15	3.497771E-16	2.386855E+00
4.357895E+03	1.190805E-15	3.369819E-16	2.386621E+00
4.359592E+03	1.182049E-15	3.270153E-16	2.386387E+00
4.361290E+03	1.169810E-15	3.229955E-16	2.386151E+00
4.362988E+03	1.156667E-15	3.187127E-16	2.385914E+00
4.364686E+03	1.147105E-15	3.221998E-16	2.385677E+00
4.366384E+03	1.141647E-15	3.371396E-16	2.385438E+00
4.368082E+03	1.137453E-15	3.561498E-16	2.385198E+00
4.369779E+03	1.130088E-15	3.677234E-16	2.384958E+00
4.371477E+03	1.120745E-15	3.567519E-16	2.384716E+00
4.373175E+03	1.111427E-15	3.383533E-16	2.384474E+00
4.374873E+03	1.099702E-15	3.311338E-16	2.384230E+00
4.376570E+03	1.089696E-15	3.294263E-16	2.383986E+00
4.378268E+03	1.083458E-15	3.282753E-16	2.383740E+00
4.379966E+03	1.077196E-15	3.206706E-16	2.383494E+00
4.381664E+03	1.072413E-15	3.211140E-16	2.383246E+00
4.383362E+03	1.069751E-15	3.310539E-16	2.382998E+00
4.385059E+03	1.068091E-15	3.386481E-16	2.382748E+00
4.386757E+03	1.069551E-15	3.456331E-16	2.382498E+00
4.388455E+03	1.075012E-15	3.534581E-16	2.382246E+00
4.390153E+03	1.081044E-15	3.527392E-16	2.381994E+00
4.391851E+03	1.088575E-15	3.499833E-16	2.381741E+00
4.393548E+03	1.099961E-15	3.487083E-16	2.381486E+00
4.395246E+03	1.114535E-15	3.480819E-16	2.381231E+00
4.396944E+03	1.129844E-15	3.517735E-16	2.380975E+00
4.398642E+03	1.143268E-15	3.509540E-16	2.380717E+00
4.400340E+03	1.152999E-15	3.423266E-16	2.380459E+00
4.402037E+03	1.157634E-15	3.242138E-16	2.380200E+00
4.403735E+03	1.158364E-15	3.044942E-16	2.379939E+00
4.405433E+03	1.158499E-15	2.925722E-16	2.379678E+00
4.407131E+03	1.162273E-15	2.872189E-16	2.379416E+00
4.408828E+03	1.170258E-15	2.846940E-16	2.379153E+00
4.410526E+03	1.179643E-15	2.852000E-16	2.378888E+00
4.412224E+03	1.188550E-15	2.821590E-16	2.378623E+00
4.413922E+03	1.195362E-15	2.732070E-16	2.378357E+00
4.415620E+03	1.201221E-15	2.556919E-16	2.378090E+00
4.417318E+03	1.212903E-15	2.351125E-16	2.377821E+00
4.419015E+03	1.233664E-15	2.197967E-16	2.377552E+00
4.420713E+03	1.262218E-15	2.076838E-16	2.377282E+00
4.422411E+03	1.293878E-15	1.999685E-16	2.377011E+00
4.424109E+03	1.323511E-15	1.984798E-16	2.376739E+00
4.425806E+03	1.346862E-15	2.043276E-16	2.376466E+00
4.427504E+03	1.362532E-15	2.088222E-16	2.376191E+00
4.429202E+03	1.372757E-15	2.072940E-16	2.375916E+00
4.430900E+03	1.382337E-15	1.999370E-16	2.375640E+00
4.432598E+03	1.396547E-15	2.042625E-16	2.375363E+00
4.434295E+03	1.415266E-15	2.002304E-16	2.375085E+00
4.435993E+03	1.434763E-15	1.880328E-16	2.374806E+00
4.437691E+03	1.454064E-15	1.844376E-16	2.374526E+00
4.439389E+03	1.476329E-15	1.923423E-16	2.374244E+00
4.441087E+03	1.499751E-15	2.200006E-16	2.373962E+00
4.442784E+03	1.522691E-15	2.426246E-16	2.373679E+00
4.444482E+03	1.550064E-15	2.508651E-16	2.373395E+00
4.446180E+03	1.580776E-15	2.641606E-16	2.373110E+00
4.447878E+03	1.607256E-15	2.729842E-16	2.372824E+00
4.449576E+03	1.629482E-15	2.736250E-16	2.372537E+00
4.451273E+03	1.647716E-15	2.724681E-16	2.372249E+00
4.452971E+03	1.659613E-15	2.713815E-16	2.371960E+00
4.454669E+03	1.668469E-15	2.774577E-16	2.371669E+00
4.456367E+03	1.678224E-15	2.905538E-16	2.371378E+00
4.458065E+03	1.688024E-15	2.994773E-16	2.371086E+00
4.459762E+03	1.699574E-15	3.069522E-16	2.370793E+00
4.461460E+03	1.712543E-15	3.121063E-16	2.370499E+00
4.463158E+03	1.724300E-15	3.115009E-16	2.370204E+00
4.464856E+03	1.736005E-15	3.092987E-16	2.369908E+00
4.466553E+03	1.749081E-15	3.053888E-16	2.369611E+00
4.468251E+03	1.763953E-15	3.082674E-16	2.369312E+00
4.469949E+03	1.782114E-15	3.185018E-16	2.369013E+00
4.471647E+03	1.802946E-15	3.257634E-16	2.368713E+00
4.473345E+03	1.825311E-15	3.260563E-16	2.368412E+00
4.475042E+03	1.847860E-15	3.240502E-16	2.368110E+00
4.476740E+03	1.869004E-15	3.228147E-16	2.367807E+00
4.478438E+03	1.887373E-15	3.179839E-16	2.367502E+00
4.480136E+03	1.903227E-15	3.028908E-16	2.367197E+00
4.481834E+03	1.917395E-15	2.962808E-16	2.366891E+00
4.483531E+03	1.929902E-15	2.956799E-16	2.366584E+00
4.485229E+03	1.938287E-15	2.956722E-16	2.366276E+00
4.486927E+03	1.942009E-15	2.941979E-16	2.365966E+00
4.488625E+03	1.941092E-15	2.798583E-16	2.365656E+00
4.490323E+03	1.936579E-15	2.641262E-16	2.365345E+00
4.492020E+03	1.932918E-15	2.535218E-16	2.365033E+00
4.493718E+03	1.932543E-15	2.371115E-16	2.364719E+00
