#wls	flux	fluxerr	mangling_mask
3.650000E+03	5.493447E-15	1.124745E-15	2.324383E+00
3.651270E+03	5.417483E-15	1.124143E-15	2.324202E+00
3.652540E+03	5.345480E-15	1.123573E-15	2.324021E+00
3.653810E+03	5.274651E-15	1.123019E-15	2.323839E+00
3.655080E+03	5.206853E-15	1.122490E-15	2.323658E+00
3.656350E+03	5.139298E-15	1.121970E-15	2.323477E+00
3.657620E+03	5.066874E-15	1.121429E-15	2.323295E+00
3.658890E+03	4.989350E-15	1.120868E-15	2.323113E+00
3.660160E+03	4.913464E-15	1.120324E-15	2.322931E+00
3.661430E+03	4.843629E-15	1.119822E-15	2.322749E+00
3.662700E+03	4.779379E-15	1.119357E-15	2.322567E+00
3.663970E+03	4.718855E-15	1.118917E-15	2.322385E+00
3.665240E+03	4.661126E-15	1.118497E-15	2.322203E+00
3.666510E+03	4.609675E-15	1.118115E-15	2.322021E+00
3.667780E+03	4.568217E-15	1.117787E-15	2.321838E+00
3.669050E+03	4.534426E-15	1.117500E-15	2.321656E+00
3.670320E+03	4.500408E-15	1.117214E-15	2.321473E+00
3.671590E+03	4.459895E-15	1.116899E-15	2.321290E+00
3.672860E+03	4.415907E-15	1.116570E-15	2.321108E+00
3.674130E+03	4.376336E-15	1.116264E-15	2.320925E+00
3.675400E+03	4.346053E-15	1.076792E-15	2.320742E+00
3.676670E+03	4.322969E-15	1.098079E-15	2.320559E+00
3.677940E+03	4.299888E-15	1.103788E-15	2.320375E+00
3.679210E+03	4.272170E-15	1.103614E-15	2.320192E+00
3.680480E+03	4.244920E-15	1.102478E-15	2.320009E+00
3.681750E+03	4.228809E-15	1.099554E-15	2.319825E+00
3.683020E+03	4.224995E-15	1.151452E-15	2.319642E+00
3.684290E+03	4.225125E-15	1.271396E-15	2.319458E+00
3.685560E+03	4.222702E-15	1.357288E-15	2.319274E+00
3.686830E+03	4.218193E-15	1.341095E-15	2.319090E+00
3.688100E+03	4.210670E-15	1.259521E-15	2.318906E+00
3.689370E+03	4.198742E-15	1.208181E-15	2.318722E+00
3.690640E+03	4.186120E-15	1.201611E-15	2.318538E+00
3.691910E+03	4.179064E-15	1.205055E-15	2.318354E+00
3.693180E+03	4.176877E-15	1.219615E-15	2.318169E+00
3.694450E+03	4.175154E-15	1.214471E-15	2.317985E+00
3.695720E+03	4.169491E-15	1.202889E-15	2.317800E+00
3.696990E+03	4.158729E-15	1.205513E-15	2.317616E+00
3.698260E+03	4.147042E-15	1.199134E-15	2.317431E+00
3.699530E+03	4.140223E-15	1.185757E-15	2.317246E+00
3.700800E+03	4.137576E-15	1.187424E-15	2.317061E+00
3.702070E+03	4.136318E-15	1.218000E-15	2.316876E+00
3.703340E+03	4.135756E-15	1.236707E-15	2.316691E+00
3.704610E+03	4.137510E-15	1.241013E-15	2.316505E+00
3.705880E+03	4.140190E-15	1.253769E-15	2.316320E+00
3.707150E+03	4.143333E-15	1.224270E-15	2.316135E+00
3.708420E+03	4.148791E-15	1.146755E-15	2.315949E+00
3.709690E+03	4.155174E-15	1.109598E-15	2.315763E+00
3.710960E+03	4.159704E-15	1.107620E-15	2.315578E+00
3.712230E+03	4.162380E-15	1.107082E-15	2.315392E+00
3.713500E+03	4.165055E-15	1.107670E-15	2.315206E+00
3.714770E+03	4.166804E-15	1.111079E-15	2.315020E+00
3.716040E+03	4.166932E-15	1.110323E-15	2.314834E+00
3.717310E+03	4.166365E-15	1.111907E-15	2.314647E+00
3.718580E+03	4.167187E-15	1.104058E-15	2.314461E+00
3.719850E+03	4.165925E-15	1.063701E-15	2.314274E+00
3.721120E+03	4.159342E-15	1.001638E-15	2.314088E+00
3.722390E+03	4.145817E-15	9.867565E-16	2.313901E+00
3.723660E+03	4.126510E-15	9.943779E-16	2.313714E+00
3.724930E+03	4.102579E-15	9.940272E-16	2.313528E+00
3.726200E+03	4.077957E-15	9.935142E-16	2.313341E+00
3.727470E+03	4.055652E-15	9.743336E-16	2.313154E+00
3.728740E+03	4.034970E-15	9.504480E-16	2.312966E+00
3.730010E+03	4.011516E-15	9.509952E-16	2.312779E+00
3.731280E+03	3.981589E-15	9.303744E-16	2.312592E+00
3.732550E+03	3.944962E-15	8.692077E-16	2.312404E+00
3.733820E+03	3.903947E-15	8.267135E-16	2.312217E+00
3.735090E+03	3.859933E-15	8.240013E-16	2.312029E+00
3.736360E+03	3.813151E-15	8.429277E-16	2.311841E+00
3.737630E+03	3.764759E-15	8.581388E-16	2.311654E+00
3.738900E+03	3.715450E-15	8.766362E-16	2.311466E+00
3.740170E+03	3.664531E-15	8.890523E-16	2.311278E+00
3.741440E+03	3.609228E-15	8.756413E-16	2.311089E+00
3.742710E+03	3.549544E-15	8.741263E-16	2.310901E+00
3.743980E+03	3.487790E-15	8.626637E-16	2.310713E+00
3.745250E+03	3.426046E-15	8.482715E-16	2.310524E+00
3.746520E+03	3.361539E-15	8.682008E-16	2.310336E+00
3.747790E+03	3.288726E-15	8.780757E-16	2.310147E+00
3.749060E+03	3.223316E-15	8.439113E-16	2.309958E+00
3.750330E+03	3.163460E-15	7.850125E-16	2.309770E+00
3.751600E+03	3.103384E-15	7.116820E-16	2.309581E+00
3.752870E+03	3.037081E-15	6.452105E-16	2.309392E+00
3.754140E+03	2.962707E-15	6.051579E-16	2.309202E+00
3.755410E+03	2.881879E-15	5.851184E-16	2.309013E+00
3.756680E+03	2.802450E-15	6.041353E-16	2.308824E+00
3.757950E+03	2.737810E-15	6.365052E-16	2.308634E+00
3.759220E+03	2.694879E-15	6.572372E-16	2.308445E+00
3.760490E+03	2.665804E-15	6.735583E-16	2.308255E+00
3.761760E+03	2.635811E-15	6.646908E-16	2.308065E+00
3.763030E+03	2.592667E-15	6.385566E-16	2.307876E+00
3.764300E+03	2.532916E-15	6.308346E-16	2.307686E+00
3.765570E+03	2.467636E-15	6.350253E-16	2.307496E+00
3.766840E+03	2.406289E-15	6.480640E-16	2.307305E+00
3.768110E+03	2.350950E-15	6.537136E-16	2.307115E+00
3.769380E+03	2.300373E-15	6.483593E-16	2.306925E+00
3.770650E+03	2.260623E-15	6.475164E-16	2.306734E+00
3.771920E+03	2.233911E-15	6.497928E-16	2.306544E+00
3.773180E+03	2.208427E-15	6.490713E-16	2.306355E+00
3.774450E+03	2.166849E-15	6.458904E-16	2.306164E+00
3.775720E+03	2.105261E-15	6.425342E-16	2.305973E+00
3.776990E+03	2.035821E-15	6.365437E-16	2.305782E+00
3.778260E+03	1.979142E-15	6.331674E-16	2.305591E+00
3.779530E+03	1.950760E-15	6.356847E-16	2.305400E+00
3.780800E+03	1.942277E-15	6.264197E-16	2.305209E+00
3.782070E+03	1.931812E-15	6.118283E-16	2.305017E+00
3.783340E+03	1.913305E-15	6.047632E-16	2.304826E+00
3.784610E+03	1.891598E-15	5.981487E-16	2.304634E+00
3.785880E+03	1.872314E-15	5.852126E-16	2.304443E+00
3.787150E+03	1.854092E-15	5.655647E-16	2.304251E+00
3.788420E+03	1.839077E-15	5.542993E-16	2.304059E+00
3.789690E+03	1.833602E-15	5.583769E-16	2.303867E+00
3.790960E+03	1.842664E-15	5.681834E-16	2.303675E+00
3.792230E+03	1.867157E-15	5.875033E-16	2.303483E+00
3.793500E+03	1.897612E-15	5.965220E-16	2.303291E+00
3.794770E+03	1.915717E-15	5.669322E-16	2.303098E+00
3.796040E+03	1.918873E-15	5.266979E-16	2.302906E+00
3.797310E+03	1.923295E-15	5.113048E-16	2.302713E+00
3.798580E+03	1.941877E-15	5.145184E-16	2.302520E+00
3.799850E+03	1.973855E-15	5.141867E-16	2.302328E+00
3.801120E+03	2.012319E-15	4.837607E-16	2.302135E+00
3.802390E+03	2.045575E-15	4.327360E-16	2.301942E+00
3.803660E+03	2.067684E-15	4.207106E-16	2.301749E+00
3.804930E+03	2.078788E-15	4.201187E-16	2.301556E+00
3.806200E+03	2.088624E-15	4.186794E-16	2.301362E+00
3.807470E+03	2.103199E-15	4.318506E-16	2.301169E+00
3.808740E+03	2.128080E-15	4.531784E-16	2.300975E+00
3.810010E+03	2.167060E-15	4.804760E-16	2.300782E+00
3.811280E+03	2.211831E-15	5.058888E-16	2.300588E+00
3.812550E+03	2.247370E-15	5.216412E-16	2.300394E+00
3.813820E+03	2.274438E-15	5.314740E-16	2.300200E+00
3.815090E+03	2.308747E-15	5.352635E-16	2.300007E+00
3.816360E+03	2.360757E-15	5.372948E-16	2.299812E+00
3.817630E+03	2.421728E-15	5.397727E-16	2.299618E+00
3.818900E+03	2.475330E-15	5.375074E-16	2.299424E+00
3.820170E+03	2.511218E-15	5.341512E-16	2.299230E+00
3.821440E+03	2.532847E-15	5.345651E-16	2.299035E+00
3.822710E+03	2.551713E-15	5.341483E-16	2.298840E+00
3.823980E+03	2.573794E-15	5.342228E-16	2.298646E+00
3.825250E+03	2.598169E-15	5.349669E-16	2.298451E+00
3.826520E+03	2.621391E-15	5.352512E-16	2.298256E+00
3.827790E+03	2.645298E-15	5.357204E-16	2.298061E+00
3.829060E+03	2.673797E-15	5.370957E-16	2.297866E+00
3.830330E+03	2.708724E-15	5.353838E-16	2.297671E+00
3.831600E+03	2.748470E-15	5.292651E-16	2.297475E+00
3.832870E+03	2.786141E-15	5.242346E-16	2.297280E+00
3.834140E+03	2.816226E-15	5.249851E-16	2.297084E+00
3.835410E+03	2.840562E-15	5.357641E-16	2.296889E+00
3.836680E+03	2.866732E-15	5.520236E-16	2.296693E+00
3.837950E+03	2.898180E-15	5.607895E-16	2.296497E+00
3.839220E+03	2.932606E-15	5.527422E-16	2.296301E+00
3.840490E+03	2.963124E-15	5.347992E-16	2.296105E+00
3.841760E+03	2.990881E-15	5.187046E-16	2.295909E+00
3.843030E+03	3.019551E-15	5.037014E-16	2.295713E+00
3.844300E+03	3.048676E-15	5.063327E-16	2.295517E+00
3.845570E+03	3.073204E-15	5.248002E-16	2.295320E+00
3.846840E+03	3.093138E-15	5.327032E-16	2.295124E+00
3.848110E+03	3.112839E-15	5.323873E-16	2.294927E+00
3.849380E+03	3.133913E-15	5.323495E-16	2.294730E+00
3.850650E+03	3.156360E-15	5.318206E-16	2.294533E+00
3.851920E+03	3.184768E-15	5.339890E-16	2.294336E+00
3.853190E+03	3.222348E-15	5.362002E-16	2.294139E+00
3.854460E+03	3.263592E-15	5.323713E-16	2.293942E+00
3.855730E+03	3.302075E-15	5.217830E-16	2.293745E+00
3.857000E+03	3.340093E-15	5.084808E-16	2.293548E+00
3.858270E+03	3.384526E-15	4.913881E-16	2.293350E+00
3.859540E+03	3.438124E-15	4.729970E-16	2.293153E+00
3.860810E+03	3.494922E-15	4.605763E-16	2.292955E+00
3.862080E+03	3.548500E-15	4.557371E-16	2.292757E+00
3.863350E+03	3.597255E-15	4.446900E-16	2.292559E+00
3.864620E+03	3.648522E-15	4.313514E-16	2.292361E+00
3.865890E+03	3.708949E-15	4.274404E-16	2.292163E+00
3.867160E+03	3.777158E-15	4.278407E-16	2.291965E+00
3.868430E+03	3.842376E-15	4.316685E-16	2.291767E+00
3.869700E+03	3.898874E-15	4.423695E-16	2.291568E+00
3.870970E+03	3.953300E-15	4.516782E-16	2.291370E+00
3.872240E+03	4.017569E-15	4.595599E-16	2.291171E+00
3.873510E+03	4.096946E-15	4.733008E-16	2.290973E+00
3.874780E+03	4.185015E-15	4.905714E-16	2.290774E+00
3.876050E+03	4.270777E-15	4.947297E-16	2.290575E+00
3.877320E+03	4.348508E-15	4.928310E-16	2.290376E+00
3.878590E+03	4.425079E-15	4.962886E-16	2.290177E+00
3.879860E+03	4.504615E-15	4.990109E-16	2.289977E+00
3.881130E+03	4.588715E-15	4.978394E-16	2.289778E+00
3.882400E+03	4.676922E-15	4.919253E-16	2.289579E+00
3.883670E+03	4.773356E-15	4.695197E-16	2.289379E+00
3.884940E+03	4.877326E-15	4.334678E-16	2.289180E+00
3.886210E+03	4.980820E-15	4.068774E-16	2.288980E+00
3.887480E+03	5.079489E-15	4.013128E-16	2.288780E+00
3.888750E+03	5.173106E-15	4.003848E-16	2.288580E+00
3.890020E+03	5.268080E-15	3.924073E-16	2.288380E+00
3.891290E+03	5.369901E-15	3.971965E-16	2.288180E+00
3.892560E+03	5.478110E-15	3.920242E-16	2.287980E+00
3.893830E+03	5.589502E-15	3.643199E-16	2.287779E+00
3.895100E+03	5.704764E-15	3.510417E-16	2.287579E+00
3.896370E+03	5.821835E-15	3.462819E-16	2.287378E+00
3.897640E+03	5.938428E-15	3.510769E-16	2.287178E+00
3.898910E+03	6.054085E-15	3.719601E-16	2.286977E+00
3.900180E+03	6.174981E-15	3.811970E-16	2.286776E+00
3.901450E+03	6.299743E-15	3.817613E-16	2.286575E+00
3.902720E+03	6.421967E-15	3.838549E-16	2.286374E+00
3.903990E+03	6.542798E-15	3.871896E-16	2.286173E+00
3.905260E+03	6.667493E-15	3.868740E-16	2.285971E+00
3.906530E+03	6.795366E-15	3.874757E-16	2.285770E+00
3.907800E+03	6.920701E-15	3.958955E-16	2.285568E+00
3.909070E+03	7.042587E-15	4.018085E-16	2.285367E+00
3.910340E+03	7.162850E-15	4.002753E-16	2.285165E+00
3.911610E+03	7.281493E-15	4.012335E-16	2.284963E+00
3.912880E+03	7.397372E-15	4.021493E-16	2.284761E+00
3.914150E+03	7.512088E-15	4.122386E-16	2.284559E+00
3.915420E+03	7.627012E-15	4.291425E-16	2.284357E+00
3.916690E+03	7.741687E-15	4.320769E-16	2.284155E+00
3.917960E+03	7.856797E-15	4.222887E-16	2.283953E+00
3.919230E+03	7.974628E-15	4.143404E-16	2.283750E+00
3.920500E+03	8.094492E-15	4.072989E-16	2.283548E+00
3.921770E+03	8.213192E-15	3.910829E-16	2.283345E+00
3.923040E+03	8.325479E-15	3.676299E-16	2.283142E+00
3.924310E+03	8.432950E-15	3.607552E-16	2.282940E+00
3.925580E+03	8.540174E-15	3.636359E-16	2.282737E+00
3.926850E+03	8.649661E-15	3.627771E-16	2.282533E+00
3.928120E+03	8.759356E-15	3.624932E-16	2.282330E+00
3.929390E+03	8.869030E-15	3.672306E-16	2.282127E+00
3.930660E+03	8.981880E-15	3.748740E-16	2.281924E+00
3.931930E+03	9.097903E-15	3.779038E-16	2.281720E+00
3.933200E+03	9.212080E-15	3.791660E-16	2.281517E+00
3.934470E+03	9.320760E-15	3.831220E-16	2.281313E+00
3.935740E+03	9.426455E-15	3.899570E-16	2.281109E+00
3.937010E+03	9.531219E-15	3.981540E-16	2.280905E+00
3.938280E+03	9.633454E-15	4.085248E-16	2.280701E+00
3.939550E+03	9.728372E-15	4.179889E-16	2.280497E+00
3.940820E+03	9.816205E-15	4.222458E-16	2.280293E+00
3.942090E+03	9.901740E-15	4.213441E-16	2.280089E+00
3.943360E+03	9.988856E-15	4.278036E-16	2.279884E+00
3.944630E+03	1.007732E-14	4.495061E-16	2.279680E+00
3.945900E+03	1.016258E-14	4.645093E-16	2.279475E+00
3.947170E+03	1.024031E-14	4.643902E-16	2.279270E+00
3.948440E+03	1.031095E-14	4.658015E-16	2.279065E+00
3.949710E+03	1.037770E-14	4.688195E-16	2.278860E+00
3.950980E+03	1.044148E-14	4.674038E-16	2.278655E+00
3.952250E+03	1.050343E-14	4.625391E-16	2.278450E+00
3.953520E+03	1.056331E-14	4.602861E-16	2.278245E+00
3.954790E+03	1.061817E-14	4.607981E-16	2.278040E+00
3.956060E+03	1.066368E-14	4.584741E-16	2.277834E+00
3.957330E+03	1.070098E-14	4.573378E-16	2.277628E+00
3.958600E+03	1.073645E-14	4.631561E-16	2.277423E+00
3.959870E+03	1.077511E-14	4.738380E-16	2.277217E+00
3.961140E+03	1.081945E-14	4.805295E-16	2.277011E+00
3.962410E+03	1.086514E-14	4.735499E-16	2.276805E+00
3.963680E+03	1.090309E-14	4.668447E-16	2.276599E+00
3.964950E+03	1.092737E-14	4.706752E-16	2.276393E+00
3.966220E+03	1.094413E-14	4.793366E-16	2.276186E+00
3.967490E+03	1.096135E-14	4.849110E-16	2.275980E+00
3.968760E+03	1.098061E-14	4.855317E-16	2.275773E+00
3.970030E+03	1.099986E-14	4.863433E-16	2.275567E+00
3.971300E+03	1.101957E-14	4.939834E-16	2.275360E+00
3.972570E+03	1.103882E-14	5.043216E-16	2.275153E+00
3.973840E+03	1.105419E-14	5.072926E-16	2.274946E+00
3.975110E+03	1.106410E-14	5.062084E-16	2.274739E+00
3.976380E+03	1.107265E-14	5.078528E-16	2.274532E+00
3.977650E+03	1.108256E-14	5.102584E-16	2.274325E+00
3.978920E+03	1.109110E-14	5.063079E-16	2.274117E+00
3.980190E+03	1.109736E-14	5.048860E-16	2.273910E+00
3.981460E+03	1.110226E-14	5.041874E-16	2.273702E+00
3.982730E+03	1.110852E-14	5.000839E-16	2.273495E+00
3.984000E+03	1.111069E-14	4.922654E-16	2.273287E+00
3.985270E+03	1.110422E-14	4.790130E-16	2.273079E+00
3.986540E+03	1.109138E-14	4.612949E-16	2.272871E+00
3.987810E+03	1.108059E-14	4.436642E-16	2.272663E+00
3.989080E+03	1.107503E-14	4.343045E-16	2.272454E+00
3.990350E+03	1.107038E-14	4.345644E-16	2.272246E+00
3.991620E+03	1.106164E-14	4.258890E-16	2.272038E+00
3.992890E+03	1.105222E-14	4.096611E-16	2.271829E+00
3.994160E+03	1.104712E-14	4.032358E-16	2.271621E+00
3.995430E+03	1.104519E-14	4.069103E-16	2.271412E+00
3.996700E+03	1.103736E-14	4.120190E-16	2.271203E+00
3.997970E+03	1.101705E-14	4.135470E-16	2.270994E+00
3.999240E+03	1.098901E-14	4.134296E-16	2.270785E+00
4.000510E+03	1.096166E-14	4.131647E-16	2.270576E+00
4.001780E+03	1.094021E-14	4.123702E-16	2.270366E+00
4.003050E+03	1.092195E-14	4.109877E-16	2.270157E+00
4.004320E+03	1.090165E-14	4.086198E-16	2.269947E+00
4.005590E+03	1.087613E-14	4.098766E-16	2.269738E+00
4.006860E+03	1.084562E-14	4.062649E-16	2.269528E+00
4.008130E+03	1.081398E-14	3.882056E-16	2.269318E+00
4.009400E+03	1.078371E-14	3.710447E-16	2.269108E+00
4.010670E+03	1.075299E-14	3.678428E-16	2.268898E+00
4.011940E+03	1.071932E-14	3.696840E-16	2.268688E+00
4.013210E+03	1.068272E-14	3.694657E-16	2.268478E+00
4.014480E+03	1.064679E-14	3.666499E-16	2.268268E+00
4.015750E+03	1.061428E-14	3.677825E-16	2.268057E+00
4.017020E+03	1.058086E-14	3.781539E-16	2.267846E+00
4.018280E+03	1.053930E-14	3.930938E-16	2.267637E+00
4.019550E+03	1.048980E-14	3.914682E-16	2.267427E+00
4.020820E+03	1.043803E-14	3.723839E-16	2.267216E+00
4.022090E+03	1.038900E-14	3.597851E-16	2.267005E+00
4.023360E+03	1.034519E-14	3.540992E-16	2.266794E+00
4.024630E+03	1.030615E-14	3.451423E-16	2.266582E+00
4.025900E+03	1.026779E-14	3.342371E-16	2.266371E+00
4.027170E+03	1.022491E-14	3.299728E-16	2.266160E+00
4.028440E+03	1.017320E-14	3.286712E-16	2.265948E+00
4.029710E+03	1.011515E-14	3.262286E-16	2.265736E+00
4.030980E+03	1.005576E-14	3.213878E-16	2.265525E+00
4.032250E+03	9.996599E-15	3.125506E-16	2.265313E+00
4.033520E+03	9.933826E-15	3.041603E-16	2.265101E+00
4.034790E+03	9.865403E-15	3.009849E-16	2.264889E+00
4.036060E+03	9.797444E-15	3.010106E-16	2.264677E+00
4.037330E+03	9.736064E-15	3.043934E-16	2.264464E+00
4.038600E+03	9.679224E-15	3.134261E-16	2.264252E+00
4.039870E+03	9.621941E-15	3.185180E-16	2.264039E+00
4.041140E+03	9.563310E-15	3.169171E-16	2.263827E+00
4.042410E+03	9.502425E-15	3.171317E-16	2.263614E+00
4.043680E+03	9.437251E-15	3.159986E-16	2.263401E+00
4.044950E+03	9.369373E-15	3.131595E-16	2.263188E+00
4.046220E+03	9.299923E-15	3.131242E-16	2.262975E+00
4.047490E+03	9.229354E-15	3.154711E-16	2.262762E+00
4.048760E+03	9.158798E-15	3.201644E-16	2.262549E+00
4.050030E+03	9.092552E-15	3.234201E-16	2.262335E+00
4.051300E+03	9.031748E-15	3.242037E-16	2.262122E+00
4.052570E+03	8.973443E-15	3.273872E-16	2.261908E+00
4.053840E+03	8.914017E-15	3.271891E-16	2.261695E+00
4.055110E+03	8.850984E-15	3.222426E-16	2.261481E+00
4.056380E+03	8.782761E-15	3.188144E-16	2.261267E+00
4.057650E+03	8.708445E-15	3.174111E-16	2.261053E+00
4.058920E+03	8.628265E-15	3.162649E-16	2.260839E+00
4.060190E+03	8.545161E-15	3.150603E-16	2.260625E+00
4.061460E+03	8.463202E-15	3.107568E-16	2.260410E+00
4.062730E+03	8.386909E-15	3.043837E-16	2.260196E+00
4.064000E+03	8.316279E-15	2.954024E-16	2.259981E+00
4.065270E+03	8.245436E-15	2.787732E-16	2.259767E+00
4.066540E+03	8.169410E-15	2.484554E-16	2.259552E+00
4.067810E+03	8.091137E-15	2.239473E-16	2.259337E+00
4.069080E+03	8.016042E-15	2.220817E-16	2.259122E+00
4.070350E+03	7.946834E-15	2.228496E-16	2.258907E+00
4.071620E+03	7.881253E-15	2.195696E-16	2.258692E+00
4.072890E+03	7.814328E-15	2.214624E-16	2.258476E+00
4.074160E+03	7.742673E-15	2.207012E-16	2.258261E+00
4.075430E+03	7.667645E-15	2.187748E-16	2.258045E+00
4.076700E+03	7.595565E-15	2.187670E-16	2.257830E+00
4.077970E+03	7.526659E-15	2.233041E-16	2.257614E+00
4.079240E+03	7.455509E-15	2.269740E-16	2.257398E+00
4.080510E+03	7.379405E-15	2.268670E-16	2.257182E+00
4.081780E+03	7.301962E-15	2.248899E-16	2.256966E+00
4.083050E+03	7.227918E-15	2.241395E-16	2.256750E+00
4.084320E+03	7.157950E-15	2.338180E-16	2.256534E+00
4.085590E+03	7.091830E-15	2.526011E-16	2.256317E+00
4.086860E+03	7.029107E-15	2.613676E-16	2.256101E+00
4.088130E+03	6.967298E-15	2.600005E-16	2.255884E+00
4.089400E+03	6.902793E-15	2.601126E-16	2.255667E+00
4.090670E+03	6.837172E-15	2.632933E-16	2.255450E+00
4.091940E+03	6.775172E-15	2.670070E-16	2.255233E+00
4.093210E+03	6.716566E-15	2.677046E-16	2.255016E+00
4.094480E+03	6.658197E-15	2.662568E-16	2.254799E+00
4.095750E+03	6.600965E-15	2.639196E-16	2.254582E+00
4.097020E+03	6.548253E-15	2.584760E-16	2.254365E+00
4.098290E+03	6.498255E-15	2.580205E-16	2.254147E+00
4.099560E+03	6.446914E-15	2.684496E-16	2.253929E+00
4.100830E+03	6.394456E-15	2.803765E-16	2.253712E+00
4.102100E+03	6.344712E-15	2.783144E-16	2.253494E+00
4.103370E+03	6.297681E-15	2.725397E-16	2.253276E+00
4.104640E+03	6.252236E-15	2.806939E-16	2.253058E+00
4.105910E+03	6.208151E-15	2.963404E-16	2.252840E+00
4.107180E+03	6.164299E-15	3.143182E-16	2.252622E+00
4.108450E+03	6.120455E-15	3.326945E-16	2.252403E+00
4.109720E+03	6.077746E-15	3.425703E-16	2.252185E+00
4.110990E+03	6.039323E-15	3.427807E-16	2.251966E+00
4.112260E+03	6.007887E-15	3.428913E-16	2.251747E+00
4.113530E+03	5.980735E-15	3.400583E-16	2.251529E+00
4.114800E+03	5.953363E-15	3.375225E-16	2.251310E+00
4.116070E+03	5.922844E-15	3.397051E-16	2.251091E+00
4.117340E+03	5.892106E-15	3.407663E-16	2.250871E+00
4.118610E+03	5.862949E-15	3.424602E-16	2.250652E+00
4.119880E+03	5.836498E-15	3.447740E-16	2.250433E+00
4.121150E+03	5.814551E-15	3.445792E-16	2.250213E+00
4.122420E+03	5.801159E-15	3.504017E-16	2.249994E+00
4.123690E+03	5.792718E-15	3.587133E-16	2.249774E+00
4.124960E+03	5.781130E-15	3.603046E-16	2.249554E+00
4.126230E+03	5.763245E-15	3.581263E-16	2.249334E+00
4.127500E+03	5.745138E-15	3.636625E-16	2.249114E+00
4.128770E+03	5.732431E-15	3.761204E-16	2.248894E+00
4.130040E+03	5.722875E-15	3.847214E-16	2.248674E+00
4.131310E+03	5.710398E-15	3.876749E-16	2.248454E+00
4.132580E+03	5.695899E-15	3.847762E-16	2.248233E+00
4.133850E+03	5.682976E-15	3.762003E-16	2.248013E+00
4.135120E+03	5.675000E-15	3.701649E-16	2.247792E+00
4.136390E+03	5.670397E-15	3.693946E-16	2.247571E+00
