#wls	flux	fluxerr	mangling_mask
3.650000E+03	6.418270E-15	1.315486E-15	2.336635E+00
3.651270E+03	6.459585E-15	1.315873E-15	2.336535E+00
3.652540E+03	6.499960E-15	1.316246E-15	2.336434E+00
3.653810E+03	6.543603E-15	1.316667E-15	2.336333E+00
3.655080E+03	6.588408E-15	1.317104E-15	2.336232E+00
3.656350E+03	6.629237E-15	1.317483E-15	2.336130E+00
3.657630E+03	6.665153E-15	1.317789E-15	2.336027E+00
3.658900E+03	6.699900E-15	1.318078E-15	2.335925E+00
3.660170E+03	6.736044E-15	1.318386E-15	2.335822E+00
3.661440E+03	6.770782E-15	1.318674E-15	2.335719E+00
3.662710E+03	6.802713E-15	1.318919E-15	2.335615E+00
3.663980E+03	6.833472E-15	1.319146E-15	2.335511E+00
3.665250E+03	6.861659E-15	1.319335E-15	2.335407E+00
3.666520E+03	6.885638E-15	1.319460E-15	2.335302E+00
3.667790E+03	6.907279E-15	1.319550E-15	2.335197E+00
3.669060E+03	6.926115E-15	1.319597E-15	2.335091E+00
3.670330E+03	6.940744E-15	1.319582E-15	2.334986E+00
3.671610E+03	6.952334E-15	1.319519E-15	2.334878E+00
3.672880E+03	6.965324E-15	1.319478E-15	2.334772E+00
3.674150E+03	6.980414E-15	1.319466E-15	2.334665E+00
3.675420E+03	6.993166E-15	1.320339E-15	2.334557E+00
3.676690E+03	7.000780E-15	1.306118E-15	2.334449E+00
3.677960E+03	7.002557E-15	1.293053E-15	2.334341E+00
3.679230E+03	6.997329E-15	1.280632E-15	2.334233E+00
3.680500E+03	6.987432E-15	1.268505E-15	2.334124E+00
3.681770E+03	6.977536E-15	1.268546E-15	2.334014E+00
3.683040E+03	6.969972E-15	1.278670E-15	2.333904E+00
3.684310E+03	6.963575E-15	1.250383E-15	2.333794E+00
3.685590E+03	6.955309E-15	1.146017E-15	2.333683E+00
3.686860E+03	6.943077E-15	1.032667E-15	2.333572E+00
3.688130E+03	6.925245E-15	1.016732E-15	2.333461E+00
3.689400E+03	6.902980E-15	1.018669E-15	2.333349E+00
3.690670E+03	6.878616E-15	9.872951E-16	2.333237E+00
3.691940E+03	6.853086E-15	9.506696E-16	2.333124E+00
3.693210E+03	6.826625E-15	9.062888E-16	2.333012E+00
3.694480E+03	6.797832E-15	8.574669E-16	2.332898E+00
3.695750E+03	6.763443E-15	8.075082E-16	2.332785E+00
3.697020E+03	6.721124E-15	7.855530E-16	2.332671E+00
3.698290E+03	6.673210E-15	7.948141E-16	2.332556E+00
3.699560E+03	6.622267E-15	8.116614E-16	2.332441E+00
3.700840E+03	6.568061E-15	8.152036E-16	2.332325E+00
3.702110E+03	6.506865E-15	8.113031E-16	2.332210E+00
3.703380E+03	6.436812E-15	8.139214E-16	2.332094E+00
3.704650E+03	6.360468E-15	8.322722E-16	2.331977E+00
3.705920E+03	6.281332E-15	8.567408E-16	2.331860E+00
3.707190E+03	6.199872E-15	8.782592E-16	2.331743E+00
3.708460E+03	6.116787E-15	8.979117E-16	2.331626E+00
3.709730E+03	6.035341E-15	9.201820E-16	2.331508E+00
3.711000E+03	5.957632E-15	9.356776E-16	2.331389E+00
3.712270E+03	5.878765E-15	9.393377E-16	2.331270E+00
3.713540E+03	5.793377E-15	9.351742E-16	2.331151E+00
3.714820E+03	5.701701E-15	9.329102E-16	2.331031E+00
3.716090E+03	5.607705E-15	9.309303E-16	2.330911E+00
3.717360E+03	5.513951E-15	9.233928E-16	2.330790E+00
3.718630E+03	5.421371E-15	9.198785E-16	2.330670E+00
3.719900E+03	5.329964E-15	9.138601E-16	2.330549E+00
3.721170E+03	5.237635E-15	8.719795E-16	2.330427E+00
3.722440E+03	5.142750E-15	8.294940E-16	2.330305E+00
3.723710E+03	5.045544E-15	8.156324E-16	2.330183E+00
3.724980E+03	4.947183E-15	8.158794E-16	2.330060E+00
3.726250E+03	4.846967E-15	8.142260E-16	2.329937E+00
3.727520E+03	4.745130E-15	8.118054E-16	2.329813E+00
3.728800E+03	4.642370E-15	7.929326E-16	2.329688E+00
3.730070E+03	4.539621E-15	7.380372E-16	2.329564E+00
3.731340E+03	4.436184E-15	6.924166E-16	2.329439E+00
3.732610E+03	4.332058E-15	6.876727E-16	2.329314E+00
3.733880E+03	4.228874E-15	6.819514E-16	2.329188E+00
3.735150E+03	4.126167E-15	6.827230E-16	2.329062E+00
3.736420E+03	4.021839E-15	6.722328E-16	2.328936E+00
3.737690E+03	3.916125E-15	6.465272E-16	2.328809E+00
3.738960E+03	3.811121E-15	6.350166E-16	2.328682E+00
3.740230E+03	3.711250E-15	6.336640E-16	2.328554E+00
3.741500E+03	3.618141E-15	6.323534E-16	2.328426E+00
3.742780E+03	3.528766E-15	6.321596E-16	2.328297E+00
3.744050E+03	3.437540E-15	6.309036E-16	2.328168E+00
3.745320E+03	3.345159E-15	6.230490E-16	2.328039E+00
3.746590E+03	3.256279E-15	6.103419E-16	2.327909E+00
3.747860E+03	3.174857E-15	6.013825E-16	2.327779E+00
3.749130E+03	3.101126E-15	6.022950E-16	2.327648E+00
3.750400E+03	3.039039E-15	6.027127E-16	2.327517E+00
3.751670E+03	2.981614E-15	6.022070E-16	2.327386E+00
3.752940E+03	2.925126E-15	5.872360E-16	2.327254E+00
3.754210E+03	2.872600E-15	5.528582E-16	2.327122E+00
3.755480E+03	2.827292E-15	5.170587E-16	2.326990E+00
3.756760E+03	2.776870E-15	4.756059E-16	2.326856E+00
3.758030E+03	2.702721E-15	4.240237E-16	2.326722E+00
3.759300E+03	2.605081E-15	3.797590E-16	2.326588E+00
3.760570E+03	2.504195E-15	3.575401E-16	2.326454E+00
3.761840E+03	2.425421E-15	3.517372E-16	2.326320E+00
3.763110E+03	2.374802E-15	3.513525E-16	2.326185E+00
3.764380E+03	2.340238E-15	3.490252E-16	2.326049E+00
3.765650E+03	2.310097E-15	3.429604E-16	2.325913E+00
3.766920E+03	2.284122E-15	3.403189E-16	2.325777E+00
3.768190E+03	2.264267E-15	3.488281E-16	2.325640E+00
3.769460E+03	2.254971E-15	3.661444E-16	2.325503E+00
3.770740E+03	2.253278E-15	3.794995E-16	2.325365E+00
3.772010E+03	2.255237E-15	3.813952E-16	2.325227E+00
3.773280E+03	2.253522E-15	3.825300E-16	2.325088E+00
3.774550E+03	2.250272E-15	3.883555E-16	2.324949E+00
3.775820E+03	2.248185E-15	3.958661E-16	2.324810E+00
3.777090E+03	2.239704E-15	3.962102E-16	2.324671E+00
3.778360E+03	2.221112E-15	3.917191E-16	2.324531E+00
3.779630E+03	2.200268E-15	3.991478E-16	2.324390E+00
3.780900E+03	2.185306E-15	4.109732E-16	2.324249E+00
3.782170E+03	2.177852E-15	4.251498E-16	2.324108E+00
3.783440E+03	2.176720E-15	4.370667E-16	2.323966E+00
3.784710E+03	2.179398E-15	4.378623E-16	2.323824E+00
3.785990E+03	2.181099E-15	4.357703E-16	2.323680E+00
3.787260E+03	2.179919E-15	4.351001E-16	2.323537E+00
3.788530E+03	2.181388E-15	4.313990E-16	2.323394E+00
3.789800E+03	2.193032E-15	4.321016E-16	2.323250E+00
3.791070E+03	2.214431E-15	4.346663E-16	2.323106E+00
3.792340E+03	2.240101E-15	4.352811E-16	2.322961E+00
3.793610E+03	2.258567E-15	4.347837E-16	2.322816E+00
3.794880E+03	2.264557E-15	4.347486E-16	2.322670E+00
3.796150E+03	2.264461E-15	4.417554E-16	2.322524E+00
3.797420E+03	2.264620E-15	4.470273E-16	2.322378E+00
3.798690E+03	2.270724E-15	4.509097E-16	2.322231E+00
3.799970E+03	2.283211E-15	4.569830E-16	2.322083E+00
3.801240E+03	2.300527E-15	4.602243E-16	2.321935E+00
3.802510E+03	2.316841E-15	4.493457E-16	2.321787E+00
3.803780E+03	2.328603E-15	4.211099E-16	2.321638E+00
3.805050E+03	2.342150E-15	3.978926E-16	2.321489E+00
3.806320E+03	2.366141E-15	3.901187E-16	2.321340E+00
3.807590E+03	2.397325E-15	3.896305E-16	2.321190E+00
3.808860E+03	2.420612E-15	3.906205E-16	2.321039E+00
3.810130E+03	2.429506E-15	3.909309E-16	2.320889E+00
3.811400E+03	2.433061E-15	3.894800E-16	2.320738E+00
3.812670E+03	2.443113E-15	3.924198E-16	2.320586E+00
3.813950E+03	2.460587E-15	4.020473E-16	2.320433E+00
3.815220E+03	2.478755E-15	4.064226E-16	2.320280E+00
3.816490E+03	2.496457E-15	4.012501E-16	2.320127E+00
3.817760E+03	2.514388E-15	3.894789E-16	2.319974E+00
3.819030E+03	2.536027E-15	3.789041E-16	2.319820E+00
3.820300E+03	2.562303E-15	3.882341E-16	2.319666E+00
3.821570E+03	2.589966E-15	4.028088E-16	2.319511E+00
3.822840E+03	2.613219E-15	4.030741E-16	2.319356E+00
3.824110E+03	2.631829E-15	3.934127E-16	2.319201E+00
3.825380E+03	2.653915E-15	3.905552E-16	2.319045E+00
3.826650E+03	2.685968E-15	3.911989E-16	2.318888E+00
3.827930E+03	2.728218E-15	3.834506E-16	2.318730E+00
3.829200E+03	2.777187E-15	3.744603E-16	2.318573E+00
3.830470E+03	2.830553E-15	3.608037E-16	2.318415E+00
3.831740E+03	2.884144E-15	3.435322E-16	2.318257E+00
3.833010E+03	2.934713E-15	3.379496E-16	2.318099E+00
3.834280E+03	2.982261E-15	3.431230E-16	2.317939E+00
3.835550E+03	3.029802E-15	3.510873E-16	2.317780E+00
3.836820E+03	3.076872E-15	3.588713E-16	2.317620E+00
3.838090E+03	3.122313E-15	3.578042E-16	2.317460E+00
3.839360E+03	3.167516E-15	3.531167E-16	2.317299E+00
3.840630E+03	3.214565E-15	3.522736E-16	2.317138E+00
3.841910E+03	3.264154E-15	3.567419E-16	2.316975E+00
3.843180E+03	3.313737E-15	3.593367E-16	2.316812E+00
3.844450E+03	3.359837E-15	3.514655E-16	2.316650E+00
3.845720E+03	3.402919E-15	3.489313E-16	2.316487E+00
3.846990E+03	3.445068E-15	3.692906E-16	2.316323E+00
3.848260E+03	3.489526E-15	3.992211E-16	2.316159E+00
3.849530E+03	3.534671E-15	4.226619E-16	2.315995E+00
3.850800E+03	3.577957E-15	4.290220E-16	2.315830E+00
3.852070E+03	3.620310E-15	4.250058E-16	2.315665E+00
3.853340E+03	3.666593E-15	4.260614E-16	2.315499E+00
3.854610E+03	3.721203E-15	4.256025E-16	2.315333E+00
3.855890E+03	3.781127E-15	4.233609E-16	2.315165E+00
3.857160E+03	3.841739E-15	4.287813E-16	2.314998E+00
3.858430E+03	3.901415E-15	4.366312E-16	2.314830E+00
3.859700E+03	3.960619E-15	4.432359E-16	2.314662E+00
3.860970E+03	4.019581E-15	4.434882E-16	2.314494E+00
3.862240E+03	4.081081E-15	4.395309E-16	2.314325E+00
3.863510E+03	4.148818E-15	4.424244E-16	2.314156E+00
3.864780E+03	4.223718E-15	4.489486E-16	2.313986E+00
3.866050E+03	4.304391E-15	4.520651E-16	2.313815E+00
3.867320E+03	4.388059E-15	4.529521E-16	2.313645E+00
3.868590E+03	4.471944E-15	4.473593E-16	2.313474E+00
3.869860E+03	4.552347E-15	4.378295E-16	2.313302E+00
3.871140E+03	4.630421E-15	4.327928E-16	2.313129E+00
3.872410E+03	4.709872E-15	4.497049E-16	2.312956E+00
3.873680E+03	4.794630E-15	4.948790E-16	2.312783E+00
3.874950E+03	4.888857E-15	5.364467E-16	2.312610E+00
3.876220E+03	4.997867E-15	5.531448E-16	2.312436E+00
3.877490E+03	5.117497E-15	5.539959E-16	2.312261E+00
3.878760E+03	5.237800E-15	5.600620E-16	2.312086E+00
3.880030E+03	5.353924E-15	5.713840E-16	2.311911E+00
3.881300E+03	5.465867E-15	5.789032E-16	2.311735E+00
3.882570E+03	5.576636E-15	5.796094E-16	2.311559E+00
3.883840E+03	5.689468E-15	5.763448E-16	2.311382E+00
3.885120E+03	5.808518E-15	5.794781E-16	2.311204E+00
3.886390E+03	5.933098E-15	5.863118E-16	2.311026E+00
3.887660E+03	6.057195E-15	5.883523E-16	2.310848E+00
3.888930E+03	6.175496E-15	5.907049E-16	2.310670E+00
3.890200E+03	6.287076E-15	5.913118E-16	2.310491E+00
3.891470E+03	6.396097E-15	5.892294E-16	2.310311E+00
3.892740E+03	6.507871E-15	5.916471E-16	2.310131E+00
3.894010E+03	6.625170E-15	5.933960E-16	2.309951E+00
3.895280E+03	6.747069E-15	5.804039E-16	2.309770E+00
3.896550E+03	6.866869E-15	5.547038E-16	2.309589E+00
3.897820E+03	6.981568E-15	5.292424E-16	2.309407E+00
3.899100E+03	7.095781E-15	5.181270E-16	2.309223E+00
3.900370E+03	7.217137E-15	5.194865E-16	2.309041E+00
3.901640E+03	7.348169E-15	5.192376E-16	2.308857E+00
3.902910E+03	7.482411E-15	5.207388E-16	2.308674E+00
3.904180E+03	7.615707E-15	5.257942E-16	2.308490E+00
3.905450E+03	7.748287E-15	5.277914E-16	2.308305E+00
3.906720E+03	7.880844E-15	5.252278E-16	2.308120E+00
3.907990E+03	8.011994E-15	5.211251E-16	2.307934E+00
3.909260E+03	8.141044E-15	5.210841E-16	2.307748E+00
3.910530E+03	8.270532E-15	5.267979E-16	2.307562E+00
3.911800E+03	8.401844E-15	5.362812E-16	2.307375E+00
3.913080E+03	8.534050E-15	5.464025E-16	2.307186E+00
3.914350E+03	8.663470E-15	5.592768E-16	2.306998E+00
3.915620E+03	8.789867E-15	5.796772E-16	2.306810E+00
3.916890E+03	8.913936E-15	6.018972E-16	2.306621E+00
3.918160E+03	9.036137E-15	6.202338E-16	2.306431E+00
3.919430E+03	9.156240E-15	6.333037E-16	2.306242E+00
3.920700E+03	9.271479E-15	6.278881E-16	2.306051E+00
3.921970E+03	9.383469E-15	5.906728E-16	2.305861E+00
3.923240E+03	9.494746E-15	5.438138E-16	2.305669E+00
3.924510E+03	9.605772E-15	5.216276E-16	2.305478E+00
3.925780E+03	9.712859E-15	5.241276E-16	2.305285E+00
3.927060E+03	9.814848E-15	5.281249E-16	2.305091E+00
3.928330E+03	9.914288E-15	5.281491E-16	2.304898E+00
3.929600E+03	1.001417E-14	5.279138E-16	2.304704E+00
3.930870E+03	1.011173E-14	5.294814E-16	2.304510E+00
3.932140E+03	1.020674E-14	5.293926E-16	2.304316E+00
3.933410E+03	1.030218E-14	5.204306E-16	2.304121E+00
3.934680E+03	1.039923E-14	5.122246E-16	2.303925E+00
3.935950E+03	1.049441E-14	5.167823E-16	2.303729E+00
3.937220E+03	1.058312E-14	5.255763E-16	2.303532E+00
3.938490E+03	1.066352E-14	5.303930E-16	2.303335E+00
3.939760E+03	1.073999E-14	5.313128E-16	2.303138E+00
3.941040E+03	1.081943E-14	5.296390E-16	2.302938E+00
3.942310E+03	1.090439E-14	5.236990E-16	2.302740E+00
3.943580E+03	1.098911E-14	5.223590E-16	2.302541E+00
3.944850E+03	1.106574E-14	5.338386E-16	2.302342E+00
3.946120E+03	1.113293E-14	5.504663E-16	2.302142E+00
3.947390E+03	1.119365E-14	5.690902E-16	2.301941E+00
3.948660E+03	1.125206E-14	5.870996E-16	2.301740E+00
3.949930E+03	1.130976E-14	5.955779E-16	2.301539E+00
3.951200E+03	1.136561E-14	5.961466E-16	2.301337E+00
3.952470E+03	1.141823E-14	5.976107E-16	2.301135E+00
3.953740E+03	1.146899E-14	5.958808E-16	2.300932E+00
3.955010E+03	1.152090E-14	5.943560E-16	2.300728E+00
3.956290E+03	1.157508E-14	5.952407E-16	2.300523E+00
3.957560E+03	1.163202E-14	5.970896E-16	2.300319E+00
3.958830E+03	1.169010E-14	5.983500E-16	2.300114E+00
3.960100E+03	1.174494E-14	5.947065E-16	2.299908E+00
3.961370E+03	1.179288E-14	5.893746E-16	2.299703E+00
3.962640E+03	1.183528E-14	5.811102E-16	2.299496E+00
3.963910E+03	1.187537E-14	5.648223E-16	2.299290E+00
3.965180E+03	1.191292E-14	5.454058E-16	2.299082E+00
3.966450E+03	1.194564E-14	5.262099E-16	2.298874E+00
3.967720E+03	1.197306E-14	5.088927E-16	2.298666E+00
3.968990E+03	1.199473E-14	4.961877E-16	2.298457E+00
3.970270E+03	1.201156E-14	4.932032E-16	2.298246E+00
3.971540E+03	1.202517E-14	4.945491E-16	2.298037E+00
3.972810E+03	1.203808E-14	4.940224E-16	2.297826E+00
3.974080E+03	1.205260E-14	4.957591E-16	2.297616E+00
3.975350E+03	1.206987E-14	4.962601E-16	2.297404E+00
3.976620E+03	1.208507E-14	4.962199E-16	2.297193E+00
3.977890E+03	1.209291E-14	4.977196E-16	2.296980E+00
3.979160E+03	1.209179E-14	4.943079E-16	2.296768E+00
3.980430E+03	1.208608E-14	4.886454E-16	2.296554E+00
3.981700E+03	1.207829E-14	4.854951E-16	2.296340E+00
3.982970E+03	1.207028E-14	4.894839E-16	2.296126E+00
3.984250E+03	1.206271E-14	4.955669E-16	2.295910E+00
3.985520E+03	1.205515E-14	4.963597E-16	2.295694E+00
3.986790E+03	1.204529E-14	4.961738E-16	2.295479E+00
3.988060E+03	1.203131E-14	4.955777E-16	2.295262E+00
3.989330E+03	1.201158E-14	4.909122E-16	2.295045E+00
3.990600E+03	1.198497E-14	4.886304E-16	2.294828E+00
3.991870E+03	1.195308E-14	4.890680E-16	2.294610E+00
3.993140E+03	1.192120E-14	4.861669E-16	2.294392E+00
3.994410E+03	1.189598E-14	4.773218E-16	2.294173E+00
3.995680E+03	1.187878E-14	4.599022E-16	2.293954E+00
3.996950E+03	1.186296E-14	4.393533E-16	2.293734E+00
3.998230E+03	1.184003E-14	4.286270E-16	2.293512E+00
3.999500E+03	1.180655E-14	4.286848E-16	2.293291E+00
4.000770E+03	1.176505E-14	4.239817E-16	2.293070E+00
4.002040E+03	1.172127E-14	4.195878E-16	2.292848E+00
4.003310E+03	1.167749E-14	4.177299E-16	2.292625E+00
4.004580E+03	1.163348E-14	4.157459E-16	2.292402E+00
4.005850E+03	1.159109E-14	4.134140E-16	2.292179E+00
4.007120E+03	1.155100E-14	4.109061E-16	2.291955E+00
4.008390E+03	1.151159E-14	4.114685E-16	2.291731E+00
4.009660E+03	1.146761E-14	4.119511E-16	2.291506E+00
4.010930E+03	1.141791E-14	4.105826E-16	2.291280E+00
4.012210E+03	1.136660E-14	4.081023E-16	2.291052E+00
4.013480E+03	1.131485E-14	3.976883E-16	2.290826E+00
4.014750E+03	1.126425E-14	3.837286E-16	2.290599E+00
4.016020E+03	1.121595E-14	3.751584E-16	2.290371E+00
4.017290E+03	1.116857E-14	3.741227E-16	2.290143E+00
4.018560E+03	1.111799E-14	3.757304E-16	2.289915E+00
4.019830E+03	1.106422E-14	3.736845E-16	2.289686E+00
4.021100E+03	1.101045E-14	3.725859E-16	2.289456E+00
4.022370E+03	1.095692E-14	3.664134E-16	2.289226E+00
4.023640E+03	1.090111E-14	3.617091E-16	2.288995E+00
4.024910E+03	1.084119E-14	3.657333E-16	2.288764E+00
4.026190E+03	1.077669E-14	3.805724E-16	2.288531E+00
4.027460E+03	1.071015E-14	4.015456E-16	2.288298E+00
4.028730E+03	1.064545E-14	4.113169E-16	2.288066E+00
4.030000E+03	1.058511E-14	4.160577E-16	2.287832E+00
4.031270E+03	1.052616E-14	4.172694E-16	2.287599E+00
4.032540E+03	1.046286E-14	4.119001E-16	2.287364E+00
4.033810E+03	1.039523E-14	4.089272E-16	2.287129E+00
4.035080E+03	1.032624E-14	4.102700E-16	2.286894E+00
4.036350E+03	1.025772E-14	4.092196E-16	2.286658E+00
4.037620E+03	1.018852E-14	4.077112E-16	2.286422E+00
4.038890E+03	1.011682E-14	4.102805E-16	2.286185E+00
4.040160E+03	1.004125E-14	4.177288E-16	2.285947E+00
4.041440E+03	9.962713E-15	4.222691E-16	2.285707E+00
4.042710E+03	9.883739E-15	4.207777E-16	2.285469E+00
4.043980E+03	9.807521E-15	4.184982E-16	2.285230E+00
4.045250E+03	9.733601E-15	4.164882E-16	2.284990E+00
4.046520E+03	9.658324E-15	4.140417E-16	2.284750E+00
4.047790E+03	9.579405E-15	4.089400E-16	2.284509E+00
4.049060E+03	9.499358E-15	4.054119E-16	2.284268E+00
4.050330E+03	9.422067E-15	4.037809E-16	2.284027E+00
4.051600E+03	9.347301E-15	4.021388E-16	2.283784E+00
4.052870E+03	9.270951E-15	3.997629E-16	2.283542E+00
4.054140E+03	9.192102E-15	3.957757E-16	2.283298E+00
4.055420E+03	9.113717E-15	3.910903E-16	2.283053E+00
4.056690E+03	9.038322E-15	3.853173E-16	2.282808E+00
4.057960E+03	8.965908E-15	3.789309E-16	2.282563E+00
4.059230E+03	8.895562E-15	3.772885E-16	2.282318E+00
4.060500E+03	8.823631E-15	3.799830E-16	2.282072E+00
4.061770E+03	8.746921E-15	3.824803E-16	2.281825E+00
4.063040E+03	8.665890E-15	3.831933E-16	2.281578E+00
4.064310E+03	8.585788E-15	3.826502E-16	2.281331E+00
4.065580E+03	8.511175E-15	3.774880E-16	2.281082E+00
4.066850E+03	8.441138E-15	3.678923E-16	2.280834E+00
4.068120E+03	8.374535E-15	3.639855E-16	2.280585E+00
4.069400E+03	8.311585E-15	3.628630E-16	2.280333E+00
4.070670E+03	8.251619E-15	3.620285E-16	2.280083E+00
4.071940E+03	8.191663E-15	3.624576E-16	2.279832E+00
4.073210E+03	8.126932E-15	3.590791E-16	2.279580E+00
4.074480E+03	8.059249E-15	3.473672E-16	2.279328E+00
4.075750E+03	7.991580E-15	3.259572E-16	2.279076E+00
4.077020E+03	7.925974E-15	3.095533E-16	2.278823E+00
4.078290E+03	7.863571E-15	3.026398E-16	2.278569E+00
4.079560E+03	7.804824E-15	2.969218E-16	2.278315E+00
4.080830E+03	7.748367E-15	2.943905E-16	2.278061E+00
4.082100E+03	7.688276E-15	2.918092E-16	2.277805E+00
4.083380E+03	7.622724E-15	2.848601E-16	2.277548E+00
4.084650E+03	7.555597E-15	2.817635E-16	2.277291E+00
4.085920E+03	7.494859E-15	2.803813E-16	2.277034E+00
4.087190E+03	7.443695E-15	2.732979E-16	2.276777E+00
4.088460E+03	7.398915E-15	2.542132E-16	2.276519E+00
4.089730E+03	7.356192E-15	2.298019E-16	2.276261E+00
4.091000E+03	7.312566E-15	2.134003E-16	2.276002E+00
4.092270E+03	7.265989E-15	2.084700E-16	2.275742E+00
4.093540E+03	7.218966E-15	2.067207E-16	2.275482E+00
4.094810E+03	7.176730E-15	2.061434E-16	2.275221E+00
4.096080E+03	7.140644E-15	2.056410E-16	2.274960E+00
4.097360E+03	7.106378E-15	2.029604E-16	2.274696E+00
4.098630E+03	7.071442E-15	2.020468E-16	2.274434E+00
4.099900E+03	7.039923E-15	2.119440E-16	2.274171E+00
4.101170E+03	7.013867E-15	2.316745E-16	2.273907E+00
4.102440E+03	6.990316E-15	2.478694E-16	2.273643E+00
4.103710E+03	6.965178E-15	2.574133E-16	2.273379E+00
4.104980E+03	6.937088E-15	2.608404E-16	2.273114E+00
4.106250E+03	6.909912E-15	2.613035E-16	2.272848E+00
4.107520E+03	6.886831E-15	2.619754E-16	2.272582E+00
4.108790E+03	6.868981E-15	2.647610E-16	2.272315E+00
4.110060E+03	6.855903E-15	2.656243E-16	2.272047E+00
4.111340E+03	6.844184E-15	2.623024E-16	2.271777E+00
4.112610E+03	6.830200E-15	2.616872E-16	2.271509E+00
4.113880E+03	6.813038E-15	2.659201E-16	2.271240E+00
4.115150E+03	6.796560E-15	2.698302E-16	2.270970E+00
4.116420E+03	6.783490E-15	2.707167E-16	2.270700E+00
4.117690E+03	6.774734E-15	2.715145E-16	2.270429E+00
4.118960E+03	6.767568E-15	2.729847E-16	2.270158E+00
4.120230E+03	6.759948E-15	2.764027E-16	2.269886E+00
4.121500E+03	6.750966E-15	2.767253E-16	2.269614E+00
4.122770E+03	6.743573E-15	2.784251E-16	2.269341E+00
4.124040E+03	6.741853E-15	2.864057E-16	2.269067E+00
4.125310E+03	6.744214E-15	2.892005E-16	2.268793E+00
4.126590E+03	6.746114E-15	2.855484E-16	2.268516E+00
4.127860E+03	6.743480E-15	2.849925E-16	2.268241E+00
4.129130E+03	6.737217E-15	2.861879E-16	2.267965E+00
4.130400E+03	6.729140E-15	2.868002E-16	2.267689E+00
4.131670E+03	6.722196E-15	2.869356E-16	2.267412E+00
4.132940E+03	6.717519E-15	2.876514E-16	2.267134E+00
4.134210E+03	6.715108E-15	2.897837E-16	2.266856E+00
4.135480E+03	6.715189E-15	2.914543E-16	2.266577E+00
4.136750E+03	6.717081E-15	2.921726E-16	2.266298E+00
