#wls	flux	fluxerr	mangling_mask
4.751478E+03	1.044456E-15	1.574702E-16	8.277510E-01
4.754990E+03	1.022838E-15	1.572090E-16	8.278067E-01
4.758502E+03	9.991466E-16	1.569371E-16	8.278620E-01
4.762015E+03	9.748721E-16	1.566700E-16	8.279169E-01
4.765527E+03	9.506768E-16	1.564139E-16	8.279714E-01
4.769039E+03	9.254842E-16	1.561592E-16	8.280256E-01
4.772551E+03	9.027721E-16	1.559355E-16	8.280794E-01
4.776064E+03	8.811333E-16	1.557291E-16	8.281328E-01
4.779576E+03	8.604851E-16	1.478567E-16	8.281858E-01
4.783088E+03	8.404136E-16	1.039489E-16	8.282384E-01
4.786600E+03	8.190304E-16	1.043351E-16	8.282907E-01
4.790112E+03	7.988784E-16	9.698081E-17	8.283426E-01
4.793625E+03	7.787318E-16	9.214265E-17	8.283940E-01
4.797137E+03	7.600404E-16	8.145334E-17	8.284451E-01
4.800649E+03	7.433512E-16	7.644536E-17	8.284958E-01
4.804161E+03	7.307444E-16	7.945128E-17	8.285460E-01
4.807673E+03	7.175640E-16	7.340652E-17	8.285959E-01
4.811186E+03	7.043320E-16	6.250444E-17	8.286453E-01
4.814698E+03	6.957138E-16	5.833770E-17	8.286944E-01
4.818210E+03	6.856854E-16	6.516271E-17	8.287430E-01
4.821722E+03	6.772053E-16	6.385301E-17	8.287912E-01
4.825234E+03	6.725117E-16	6.551902E-17	8.288391E-01
4.828747E+03	6.663833E-16	6.801791E-17	8.288864E-01
4.832259E+03	6.590767E-16	5.631722E-17	8.289334E-01
4.835771E+03	6.532445E-16	5.618431E-17	8.289799E-01
4.839283E+03	6.456455E-16	5.656858E-17	8.290260E-01
4.842796E+03	6.375230E-16	5.436939E-17	8.290717E-01
4.846308E+03	6.292998E-16	5.577533E-17	8.291170E-01
4.849820E+03	6.193590E-16	5.517623E-17	8.291618E-01
4.853332E+03	6.045742E-16	4.623763E-17	8.292062E-01
4.856844E+03	5.752591E-16	4.661498E-17	8.292501E-01
4.860357E+03	5.565887E-16	4.741591E-17	8.292936E-01
4.863869E+03	5.415651E-16	4.826841E-17	8.293366E-01
4.867381E+03	5.275432E-16	4.526952E-17	8.293792E-01
4.870893E+03	5.143242E-16	4.478232E-17	8.294214E-01
4.874405E+03	4.980345E-16	4.232773E-17	8.294630E-01
4.877918E+03	4.806065E-16	4.008171E-17	8.295043E-01
4.881430E+03	4.674569E-16	4.330976E-17	8.295450E-01
4.884942E+03	4.568775E-16	4.290840E-17	8.295853E-01
4.888454E+03	4.465789E-16	4.417760E-17	8.296252E-01
4.891967E+03	4.365695E-16	4.454408E-17	8.296645E-01
4.895479E+03	4.237793E-16	4.012155E-17	8.297034E-01
4.898991E+03	4.169204E-16	4.179169E-17	8.297418E-01
4.902503E+03	4.130063E-16	4.281377E-17	8.297798E-01
4.906015E+03	4.035567E-16	4.131833E-17	8.298172E-01
4.909528E+03	4.010602E-16	4.000823E-17	8.298542E-01
4.913040E+03	4.013268E-16	3.981219E-17	8.298907E-01
4.916552E+03	4.000330E-16	4.208349E-17	8.299267E-01
4.920064E+03	4.004153E-16	4.487041E-17	8.299622E-01
4.923576E+03	4.065907E-16	4.489579E-17	8.299972E-01
4.927089E+03	4.103511E-16	4.617245E-17	8.300317E-01
4.930601E+03	4.165353E-16	4.153067E-17	8.300657E-01
4.934113E+03	4.258824E-16	4.053107E-17	8.300993E-01
4.937625E+03	4.379363E-16	4.058022E-17	8.301323E-01
4.941137E+03	4.517673E-16	3.793835E-17	8.301647E-01
4.944650E+03	4.674091E-16	4.136302E-17	8.301967E-01
4.948162E+03	4.871945E-16	4.257667E-17	8.302282E-01
4.951674E+03	5.074046E-16	4.030396E-17	8.302591E-01
4.955186E+03	5.285623E-16	4.062209E-17	8.302895E-01
4.958699E+03	5.511992E-16	3.888310E-17	8.303194E-01
4.962211E+03	5.754483E-16	3.901210E-17	8.303488E-01
4.965723E+03	6.034188E-16	3.431165E-17	8.303776E-01
4.969235E+03	6.332260E-16	2.803663E-17	8.304059E-01
4.972747E+03	6.622210E-16	2.875693E-17	8.304336E-01
4.976260E+03	6.912258E-16	2.967056E-17	8.304608E-01
4.979772E+03	7.212037E-16	3.156674E-17	8.304875E-01
4.983284E+03	7.499206E-16	3.160343E-17	8.305136E-01
4.986796E+03	7.769030E-16	3.196514E-17	8.305392E-01
4.990308E+03	8.061207E-16	3.231616E-17	8.305642E-01
4.993821E+03	8.368181E-16	3.122221E-17	8.305887E-01
4.997333E+03	8.658305E-16	3.535014E-17	8.306126E-01
5.000845E+03	8.945118E-16	3.563072E-17	8.306359E-01
5.004357E+03	9.194560E-16	3.624227E-17	8.306586E-01
5.007869E+03	9.430719E-16	3.721167E-17	8.306808E-01
5.011382E+03	9.671869E-16	4.166268E-17	8.307024E-01
5.014894E+03	9.859026E-16	4.360094E-17	8.307235E-01
5.018406E+03	1.004286E-15	4.422185E-17	8.307439E-01
5.021918E+03	1.018683E-15	4.421511E-17	8.307638E-01
5.025431E+03	1.027263E-15	4.619413E-17	8.307831E-01
5.028943E+03	1.033933E-15	4.472748E-17	8.308018E-01
5.032455E+03	1.038774E-15	4.723938E-17	8.308199E-01
5.035967E+03	1.039211E-15	4.774109E-17	8.308374E-01
5.039479E+03	1.040146E-15	4.755739E-17	8.308543E-01
5.042992E+03	1.035763E-15	5.099934E-17	8.308706E-01
5.046504E+03	1.027557E-15	4.458136E-17	8.308863E-01
5.050016E+03	1.014863E-15	4.404489E-17	8.309013E-01
5.053528E+03	9.996748E-16	4.253370E-17	8.309158E-01
5.057040E+03	9.833221E-16	3.774114E-17	8.309296E-01
5.060553E+03	9.634783E-16	3.621632E-17	8.309429E-01
5.064065E+03	9.413894E-16	4.729715E-17	8.309555E-01
5.067577E+03	9.163909E-16	4.652600E-17	8.309674E-01
5.071089E+03	8.903106E-16	4.636685E-17	8.309788E-01
5.074601E+03	8.670544E-16	4.835052E-17	8.309895E-01
5.078114E+03	8.431321E-16	5.090631E-17	8.309995E-01
5.081626E+03	8.199814E-16	4.925715E-17	8.310089E-01
5.085138E+03	7.955416E-16	4.950411E-17	8.310177E-01
5.088650E+03	7.719066E-16	4.921759E-17	8.310258E-01
5.092163E+03	7.481876E-16	4.052260E-17	8.310333E-01
5.095675E+03	7.271601E-16	3.651101E-17	8.310401E-01
5.099187E+03	7.113673E-16	3.511861E-17	8.310462E-01
5.102699E+03	6.965709E-16	3.487471E-17	8.310517E-01
5.106211E+03	6.847573E-16	3.307011E-17	8.310565E-01
5.109724E+03	6.706992E-16	3.163109E-17	8.310606E-01
5.113236E+03	6.601724E-16	2.668393E-17	8.310641E-01
5.116748E+03	6.554541E-16	3.989148E-17	8.310669E-01
5.120260E+03	6.532867E-16	4.056273E-17	8.310690E-01
5.123772E+03	6.513016E-16	3.957078E-17	8.310704E-01
5.127285E+03	6.528064E-16	3.766528E-17	8.310711E-01
5.130797E+03	6.582582E-16	3.667752E-17	8.310711E-01
5.134309E+03	6.628784E-16	3.354554E-17	8.310705E-01
5.137821E+03	6.704650E-16	3.142969E-17	8.310691E-01
5.141333E+03	6.835027E-16	3.218520E-17	8.310670E-01
5.144846E+03	6.967725E-16	3.466505E-17	8.310641E-01
5.148358E+03	7.071244E-16	3.461103E-17	8.310605E-01
5.151870E+03	7.206585E-16	3.377971E-17	8.310560E-01
5.155382E+03	7.343497E-16	3.456443E-17	8.310507E-01
5.158895E+03	7.487794E-16	3.603541E-17	8.310445E-01
5.162407E+03	7.646043E-16	3.609166E-17	8.310374E-01
5.165919E+03	7.762064E-16	2.834821E-17	8.310294E-01
5.169431E+03	7.858295E-16	3.247725E-17	8.310203E-01
5.172943E+03	7.948530E-16	3.806500E-17	8.310103E-01
5.176456E+03	8.028366E-16	3.696730E-17	8.309992E-01
5.179968E+03	8.084257E-16	4.094099E-17	8.309870E-01
5.183480E+03	8.117865E-16	4.609624E-17	8.309737E-01
5.186992E+03	8.191929E-16	4.755170E-17	8.309593E-01
5.190504E+03	8.247448E-16	4.744601E-17	8.309437E-01
5.194017E+03	8.285836E-16	5.068283E-17	8.309268E-01
5.197529E+03	8.317396E-16	4.948624E-17	8.309087E-01
5.201041E+03	8.335482E-16	4.947038E-17	8.308894E-01
5.204553E+03	8.358539E-16	4.949928E-17	8.308687E-01
5.208065E+03	8.358317E-16	4.867820E-17	8.308467E-01
5.211578E+03	8.344789E-16	4.939743E-17	8.308232E-01
5.215090E+03	8.332077E-16	4.968011E-17	8.307984E-01
5.218602E+03	8.306808E-16	4.751299E-17	8.307722E-01
5.222114E+03	8.297724E-16	4.113618E-17	8.307444E-01
5.225627E+03	8.298595E-16	4.571773E-17	8.307151E-01
5.229139E+03	8.274613E-16	4.447735E-17	8.306843E-01
5.232651E+03	8.281932E-16	3.796803E-17	8.306519E-01
5.236163E+03	8.292890E-16	3.627930E-17	8.306179E-01
5.239675E+03	8.258895E-16	3.907992E-17	8.305823E-01
5.243188E+03	8.237428E-16	3.631265E-17	8.305450E-01
5.246700E+03	8.221593E-16	3.612788E-17	8.305059E-01
5.250212E+03	8.197189E-16	3.611790E-17	8.304651E-01
5.253724E+03	8.183731E-16	3.619776E-17	8.304225E-01
5.257236E+03	8.169924E-16	3.627733E-17	8.303781E-01
5.260749E+03	8.145224E-16	3.797118E-17	8.303319E-01
5.264261E+03	8.126735E-16	3.800431E-17	8.302838E-01
5.267773E+03	8.133053E-16	3.745802E-17	8.302337E-01
5.271285E+03	8.155041E-16	3.872232E-17	8.301817E-01
5.274797E+03	8.172359E-16	3.486232E-17	8.301278E-01
5.278310E+03	8.231407E-16	3.249796E-17	8.300718E-01
5.281822E+03	8.251083E-16	3.485325E-17	8.300137E-01
5.285334E+03	8.281277E-16	3.486071E-17	8.299536E-01
5.288846E+03	8.325470E-16	3.399343E-17	8.298913E-01
5.292359E+03	8.401997E-16	3.074991E-17	8.298269E-01
5.295871E+03	8.504213E-16	3.086342E-17	8.297603E-01
5.299383E+03	8.594774E-16	3.121318E-17	8.296915E-01
5.302895E+03	8.638837E-16	3.128133E-17	8.296204E-01
5.306407E+03	8.678721E-16	3.397404E-17	8.295470E-01
5.309920E+03	8.752582E-16	3.271332E-17	8.294714E-01
5.313432E+03	8.824745E-16	3.545582E-17	8.293933E-01
5.316944E+03	8.884429E-16	3.582199E-17	8.293129E-01
5.320456E+03	8.945733E-16	3.441735E-17	8.292300E-01
5.323968E+03	8.981295E-16	3.523067E-17	8.291447E-01
5.327481E+03	9.023454E-16	3.503347E-17	8.290568E-01
5.330993E+03	9.056459E-16	3.315746E-17	8.289665E-01
5.334505E+03	9.091914E-16	3.527570E-17	8.288735E-01
5.338017E+03	9.143079E-16	3.402097E-17	8.287780E-01
5.341529E+03	9.189231E-16	3.645074E-17	8.286798E-01
5.345042E+03	9.210484E-16	3.665013E-17	8.285790E-01
5.348554E+03	9.253243E-16	3.682684E-17	8.284755E-01
5.352066E+03	9.305071E-16	3.866088E-17	8.283692E-01
5.355578E+03	9.369279E-16	3.639064E-17	8.282602E-01
5.359091E+03	9.404452E-16	3.636069E-17	8.281483E-01
5.362603E+03	9.411430E-16	3.468316E-17	8.280336E-01
5.366115E+03	9.405954E-16	3.435625E-17	8.279160E-01
5.369627E+03	9.400446E-16	3.427719E-17	8.277955E-01
5.373139E+03	9.385801E-16	3.345034E-17	8.276721E-01
5.376652E+03	9.388506E-16	3.620497E-17	8.275457E-01
5.380164E+03	9.411032E-16	3.524443E-17	8.274162E-01
5.383676E+03	9.440962E-16	3.160348E-17	8.272837E-01
5.387188E+03	9.451822E-16	3.209782E-17	8.271482E-01
5.390700E+03	9.475047E-16	3.079832E-17	8.270095E-01
5.394213E+03	9.488306E-16	3.464553E-17	8.268676E-01
5.397725E+03	9.475894E-16	3.794671E-17	8.267225E-01
5.401237E+03	9.489899E-16	3.585739E-17	8.265742E-01
5.404749E+03	9.486506E-16	3.393813E-17	8.264227E-01
5.408261E+03	9.485555E-16	3.545610E-17	8.262678E-01
5.411774E+03	9.495304E-16	3.859322E-17	8.261096E-01
5.415286E+03	9.486840E-16	3.826843E-17	8.259481E-01
5.418798E+03	9.498983E-16	3.960497E-17	8.257831E-01
5.422310E+03	9.506953E-16	3.943039E-17	8.256147E-01
5.425823E+03	9.502497E-16	3.756827E-17	8.254428E-01
5.429335E+03	9.512857E-16	3.687602E-17	8.252674E-01
5.432847E+03	9.481916E-16	4.355328E-17	8.250884E-01
5.436359E+03	9.422900E-16	4.302828E-17	8.249059E-01
5.439871E+03	9.396032E-16	4.291347E-17	8.247197E-01
5.443384E+03	9.378203E-16	4.101873E-17	8.245299E-01
5.446896E+03	9.341380E-16	3.779033E-17	8.243364E-01
5.450408E+03	9.321013E-16	3.959230E-17	8.241391E-01
5.453920E+03	9.279191E-16	4.081306E-17	8.239381E-01
5.457432E+03	9.215104E-16	3.972867E-17	8.237332E-01
5.460945E+03	9.177358E-16	3.503262E-17	8.235246E-01
5.464457E+03	9.178282E-16	3.858297E-17	8.233120E-01
5.467969E+03	9.172577E-16	3.729462E-17	8.230956E-01
5.471481E+03	9.168475E-16	3.741992E-17	8.228752E-01
5.474993E+03	9.198881E-16	4.287350E-17	8.226508E-01
5.478506E+03	9.178233E-16	4.337323E-17	8.224223E-01
5.482018E+03	9.156728E-16	3.562163E-17	8.221899E-01
5.485530E+03	9.197657E-16	3.314692E-17	8.219533E-01
5.489042E+03	9.254949E-16	3.178425E-17	8.217126E-01
5.492555E+03	9.297371E-16	3.090447E-17	8.214677E-01
5.496067E+03	9.333970E-16	3.377531E-17	8.212186E-01
5.499579E+03	9.362288E-16	3.539038E-17	8.209652E-01
5.503091E+03	9.432393E-16	3.824531E-17	8.207076E-01
5.506603E+03	9.501582E-16	4.010913E-17	8.204457E-01
5.510116E+03	9.593638E-16	4.013654E-17	8.201794E-01
5.513628E+03	9.682302E-16	4.185553E-17	8.199087E-01
5.517140E+03	9.770033E-16	4.191126E-17	8.196336E-01
5.520652E+03	9.855192E-16	4.170644E-17	8.193542E-01
5.524164E+03	9.963992E-16	3.584527E-17	8.190704E-01
5.527677E+03	1.006284E-15	3.488612E-17	8.187824E-01
5.531189E+03	1.017302E-15	3.553260E-17	8.184902E-01
5.534701E+03	1.030679E-15	4.005833E-17	8.181939E-01
5.538213E+03	1.041751E-15	4.177982E-17	8.178934E-01
5.541725E+03	1.050929E-15	4.246462E-17	8.175888E-01
5.545238E+03	1.058623E-15	4.156111E-17	8.172802E-01
5.548750E+03	1.067205E-15	4.000928E-17	8.169676E-01
5.552262E+03	1.075530E-15	4.375035E-17	8.166511E-01
5.555774E+03	1.077475E-15	4.161958E-17	8.163307E-01
5.559287E+03	1.078271E-15	4.675600E-17	8.160065E-01
5.562799E+03	1.077674E-15	4.541117E-17	8.156784E-01
5.566311E+03	1.073648E-15	5.090521E-17	8.153466E-01
5.569823E+03	1.067665E-15	5.222891E-17	8.150112E-01
5.573335E+03	1.062495E-15	5.183348E-17	8.146720E-01
5.576848E+03	1.054964E-15	5.182567E-17	8.143292E-01
5.580360E+03	1.042875E-15	5.119231E-17	8.139829E-01
5.583872E+03	1.028839E-15	4.634919E-17	8.136331E-01
5.587384E+03	1.014566E-15	4.366559E-17	8.132797E-01
5.590896E+03	9.979442E-16	4.818018E-17	8.129229E-01
5.594409E+03	9.789757E-16	4.962733E-17	8.125628E-01
5.597921E+03	9.635933E-16	5.052887E-17	8.121993E-01
5.601433E+03	9.469215E-16	4.538364E-17	8.118325E-01
5.604945E+03	9.288000E-16	4.578070E-17	8.114625E-01
5.608458E+03	9.110965E-16	4.041558E-17	8.110892E-01
5.611970E+03	8.932434E-16	3.868744E-17	8.107128E-01
5.615482E+03	8.754031E-16	3.007802E-17	8.103333E-01
5.618994E+03	8.541740E-16	2.574802E-17	8.099507E-01
5.622506E+03	8.341759E-16	2.517435E-17	8.095651E-01
5.626019E+03	8.116040E-16	2.440199E-17	8.091765E-01
5.629531E+03	7.892205E-16	2.585267E-17	8.087850E-01
5.633043E+03	7.679710E-16	2.618756E-17	8.083906E-01
5.636555E+03	7.517812E-16	2.684156E-17	8.079933E-01
5.640067E+03	7.338115E-16	2.674830E-17	8.075932E-01
5.643580E+03	7.138954E-16	2.587099E-17	8.071904E-01
5.647092E+03	6.962069E-16	2.510846E-17	8.067849E-01
5.650604E+03	6.792353E-16	2.822050E-17	8.063767E-01
5.654116E+03	6.630842E-16	2.995206E-17	8.059658E-01
5.657628E+03	6.492914E-16	2.849042E-17	8.055524E-01
5.661141E+03	6.345361E-16	2.839918E-17	8.051365E-01
5.664653E+03	6.187880E-16	2.846876E-17	8.047181E-01
5.668165E+03	6.034401E-16	2.909693E-17	8.042972E-01
5.671677E+03	5.885241E-16	2.729996E-17	8.038739E-01
5.675190E+03	5.691387E-16	2.649816E-17	8.034483E-01
5.678702E+03	5.525904E-16	2.555847E-17	8.030204E-01
5.682214E+03	5.401191E-16	2.552070E-17	8.025901E-01
5.685726E+03	5.219881E-16	2.556541E-17	8.021577E-01
5.689238E+03	5.016622E-16	2.632574E-17	8.017231E-01
5.692751E+03	4.830635E-16	2.658339E-17	8.012863E-01
5.696263E+03	4.638429E-16	2.768168E-17	8.008475E-01
5.699775E+03	4.449700E-16	2.587083E-17	8.004066E-01
5.703287E+03	4.266206E-16	2.405328E-17	7.999637E-01
5.706799E+03	4.099373E-16	2.354401E-17	7.995188E-01
5.710312E+03	3.928079E-16	2.582850E-17	7.990721E-01
5.713824E+03	3.772777E-16	2.625560E-17	7.986234E-01
5.717336E+03	3.618916E-16	2.639165E-17	7.981730E-01
5.720848E+03	3.480695E-16	2.741313E-17	7.977207E-01
5.724360E+03	3.339192E-16	2.814322E-17	7.972667E-01
5.727873E+03	3.208678E-16	2.830896E-17	7.968110E-01
5.731385E+03	3.099329E-16	2.867490E-17	7.963537E-01
5.734897E+03	2.997021E-16	2.945697E-17	7.958947E-01
5.738409E+03	2.907551E-16	2.662978E-17	7.954342E-01
5.741922E+03	2.822231E-16	2.617708E-17	7.949721E-01
5.745434E+03	2.778079E-16	2.732105E-17	7.945086E-01
5.748946E+03	2.764860E-16	2.827443E-17	7.940436E-01
5.752458E+03	2.746333E-16	2.746010E-17	7.935773E-01
5.755970E+03	2.740273E-16	2.768291E-17	7.931096E-01
5.759483E+03	2.775273E-16	2.654221E-17	7.926406E-01
5.762995E+03	2.816482E-16	2.697263E-17	7.921703E-01
5.766507E+03	2.870938E-16	2.875140E-17	7.916989E-01
5.770019E+03	2.982844E-16	2.492464E-17	7.912262E-01
5.773531E+03	3.119281E-16	2.598142E-17	7.907524E-01
5.777044E+03	3.256418E-16	3.178733E-17	7.902776E-01
5.780556E+03	3.403018E-16	3.308047E-17	7.898016E-01
5.784068E+03	3.579114E-16	3.216765E-17	7.893247E-01
5.787580E+03	3.804687E-16	3.234323E-17	7.888468E-01
5.791092E+03	4.072867E-16	3.275934E-17	7.883681E-01
5.794605E+03	4.361435E-16	3.180788E-17	7.878884E-01
5.798117E+03	4.666022E-16	2.980957E-17	7.874079E-01
5.801629E+03	5.001076E-16	3.003248E-17	7.869266E-01
5.805141E+03	5.347588E-16	2.768548E-17	7.864446E-01
5.808654E+03	5.736422E-16	2.086419E-17	7.859619E-01
5.812166E+03	6.119585E-16	2.425650E-17	7.854786E-01
5.815678E+03	6.507762E-16	2.533976E-17	7.849946E-01
5.819190E+03	6.908945E-16	2.568770E-17	7.845101E-01
5.822702E+03	7.290805E-16	2.541134E-17	7.840250E-01
5.826215E+03	7.694593E-16	2.681407E-17	7.835395E-01
5.829727E+03	8.103820E-16	2.820390E-17	7.830535E-01
5.833239E+03	8.499461E-16	2.863724E-17	7.825671E-01
5.836751E+03	8.890690E-16	3.011527E-17	7.820804E-01
5.840263E+03	9.281421E-16	2.841065E-17	7.815934E-01
5.843776E+03	9.694307E-16	3.254638E-17	7.811061E-01
5.847288E+03	1.008715E-15	3.273355E-17	7.806185E-01
5.850800E+03	1.044205E-15	3.645823E-17	7.801308E-01
5.854312E+03	1.077778E-15	3.581322E-17	7.796430E-01
5.857824E+03	1.110763E-15	3.863251E-17	7.791551E-01
5.861337E+03	1.143550E-15	4.256060E-17	7.786671E-01
5.864849E+03	1.173338E-15	4.396884E-17	7.781791E-01
5.868361E+03	1.198267E-15	4.422525E-17	7.776912E-01
5.871873E+03	1.219510E-15	4.492172E-17	7.772033E-01
5.875386E+03	1.238706E-15	4.458714E-17	7.767155E-01
5.878898E+03	1.257412E-15	4.308190E-17	7.762280E-01
5.882410E+03	1.271051E-15	4.547525E-17	7.757406E-01
5.885922E+03	1.283742E-15	4.485822E-17	7.752535E-01
5.889434E+03	1.294945E-15	4.589022E-17	7.747667E-01
5.892947E+03	1.303114E-15	4.522273E-17	7.742802E-01
5.896459E+03	1.309646E-15	4.574702E-17	7.737941E-01
5.899971E+03	1.315707E-15	4.114684E-17	7.733084E-01
5.903483E+03	1.320291E-15	4.028969E-17	7.728232E-01
5.906995E+03	1.323788E-15	4.011774E-17	7.723385E-01
5.910508E+03	1.325042E-15	4.107820E-17	7.718544E-01
5.914020E+03	1.326526E-15	4.106145E-17	7.713708E-01
5.917532E+03	1.325927E-15	4.050607E-17	7.708879E-01
5.921044E+03	1.322864E-15	4.103752E-17	7.704057E-01
5.924556E+03	1.319804E-15	3.939217E-17	7.699242E-01
5.928069E+03	1.316979E-15	3.991146E-17	7.694435E-01
5.931581E+03	1.315466E-15	3.895958E-17	7.689636E-01
5.935093E+03	1.311188E-15	3.778868E-17	7.684845E-01
5.938605E+03	1.305995E-15	3.701354E-17	7.680064E-01
5.942118E+03	1.301499E-15	3.808893E-17	7.675292E-01
5.945630E+03	1.296933E-15	3.734786E-17	7.670530E-01
5.949142E+03	1.289920E-15	3.771512E-17	7.665778E-01
5.952654E+03	1.282151E-15	4.026233E-17	7.661037E-01
5.956166E+03	1.275770E-15	4.071950E-17	7.656307E-01
5.959679E+03	1.267026E-15	3.787575E-17	7.651588E-01
5.963191E+03	1.258141E-15	3.711208E-17	7.646882E-01
5.966703E+03	1.250186E-15	3.701851E-17	7.642188E-01
5.970215E+03	1.238651E-15	3.651511E-17	7.637507E-01
5.973727E+03	1.224842E-15	3.624557E-17	7.632839E-01
5.977240E+03	1.210822E-15	3.521031E-17	7.628185E-01
5.980752E+03	1.198421E-15	3.216588E-17	7.623546E-01
5.984264E+03	1.185123E-15	3.377550E-17	7.618921E-01
5.987776E+03	1.172680E-15	3.309602E-17	7.614311E-01
5.991288E+03	1.157818E-15	3.198680E-17	7.609716E-01
5.994801E+03	1.142976E-15	3.182114E-17	7.605138E-01
5.998313E+03	1.129217E-15	3.187982E-17	7.600575E-01
6.001825E+03	1.115249E-15	2.755039E-17	7.596030E-01
6.005337E+03	1.102666E-15	2.852505E-17	7.591502E-01
6.008850E+03	1.088885E-15	2.942890E-17	7.586991E-01
6.012362E+03	1.075123E-15	2.938872E-17	7.582499E-01
6.015874E+03	1.060848E-15	3.089164E-17	7.578025E-01
6.019386E+03	1.047198E-15	3.075915E-17	7.573570E-01
6.022898E+03	1.034625E-15	3.079070E-17	7.569135E-01
6.026411E+03	1.022750E-15	3.074742E-17	7.564720E-01
6.029923E+03	1.009984E-15	3.086094E-17	7.560324E-01
6.033435E+03	9.995766E-16	2.735963E-17	7.555950E-01
6.036947E+03	9.882775E-16	2.694677E-17	7.551597E-01
6.040459E+03	9.773708E-16	2.614103E-17	7.547265E-01
6.043972E+03	9.664789E-16	2.685229E-17	7.542955E-01
6.047484E+03	9.565062E-16	2.634267E-17	7.538668E-01
6.050996E+03	9.488828E-16	2.597810E-17	7.534404E-01
6.054508E+03	9.429270E-16	2.490833E-17	7.530163E-01
6.058020E+03	9.355504E-16	2.506780E-17	7.525946E-01
6.061533E+03	9.271313E-16	2.507737E-17	7.521753E-01
6.065045E+03	9.175965E-16	2.485540E-17	7.517585E-01
6.068557E+03	9.077741E-16	2.446669E-17	7.513443E-01
6.072069E+03	9.005934E-16	2.350815E-17	7.509325E-01
6.075582E+03	8.951492E-16	2.244474E-17	7.505234E-01
6.079094E+03	8.881384E-16	2.196118E-17	7.501169E-01
6.082606E+03	8.837618E-16	2.642604E-17	7.497131E-01
6.086118E+03	8.794675E-16	2.748650E-17	7.493120E-01
6.089630E+03	8.748062E-16	2.638010E-17	7.489138E-01
6.093143E+03	8.709010E-16	2.665718E-17	7.485183E-01
6.096655E+03	8.663296E-16	2.657657E-17	7.481257E-01
