#wls	flux	fluxerr
1.592848E+03	1.847240E-03	5.354320E-05
1.632669E+03	1.892301E-03	5.450884E-05
1.672491E+03	1.940811E-03	5.554910E-05
1.712312E+03	1.992870E-03	5.666422E-05
1.752133E+03	2.048756E-03	5.785924E-05
1.791954E+03	2.108916E-03	5.914366E-05
1.831775E+03	2.173088E-03	6.050675E-05
1.871597E+03	2.241892E-03	6.196225E-05
1.911418E+03	2.315418E-03	6.350876E-05
1.951239E+03	2.393763E-03	6.514479E-05
1.991060E+03	2.476861E-03	6.686427E-05
2.030881E+03	2.564833E-03	6.866599E-05
2.070703E+03	2.657474E-03	7.053992E-05
2.110524E+03	2.754278E-03	7.246806E-05
2.150345E+03	2.855273E-03	7.444669E-05
2.190166E+03	2.959859E-03	7.645574E-05
2.229987E+03	3.067654E-03	7.848111E-05
2.269809E+03	3.178649E-03	8.051851E-05
2.309630E+03	3.293211E-03	8.257288E-05
2.349451E+03	3.412234E-03	8.466181E-05
2.389272E+03	3.536821E-03	8.680690E-05
2.429093E+03	3.668128E-03	8.902976E-05
2.468915E+03	3.807864E-03	9.136372E-05
2.508736E+03	3.957347E-03	9.383076E-05
2.548557E+03	4.118330E-03	9.646127E-05
2.588378E+03	4.292237E-03	9.927570E-05
2.628199E+03	4.480836E-03	1.023002E-04
2.668021E+03	4.685803E-03	1.055565E-04
2.707842E+03	4.909084E-03	1.090696E-04
2.747663E+03	5.152944E-03	1.128688E-04
2.787484E+03	5.419891E-03	1.169851E-04
2.827305E+03	5.712878E-03	1.214551E-04
2.867127E+03	6.035721E-03	1.263290E-04
2.906948E+03	6.392559E-03	1.316580E-04
2.946769E+03	6.789096E-03	1.375183E-04
2.986590E+03	7.231408E-03	1.439850E-04
2.996546E+03	7.350191E-03	1.457111E-04
3.006501E+03	7.472313E-03	1.474802E-04
3.016456E+03	7.597887E-03	1.492935E-04
3.026411E+03	7.727378E-03	1.511591E-04
3.036367E+03	7.860731E-03	1.530749E-04
3.046322E+03	7.998075E-03	1.550422E-04
3.056277E+03	8.139713E-03	1.570656E-04
3.066233E+03	8.285603E-03	1.591431E-04
3.076188E+03	8.435874E-03	1.612760E-04
3.086143E+03	8.591027E-03	1.634724E-04
3.096099E+03	8.750846E-03	1.657269E-04
3.106054E+03	8.915648E-03	1.680441E-04
3.116009E+03	9.085397E-03	1.704218E-04
3.125964E+03	9.260786E-03	1.728714E-04
3.135920E+03	9.441405E-03	1.753838E-04
3.145875E+03	9.627580E-03	1.779633E-04
3.155830E+03	9.819633E-03	1.806143E-04
3.165786E+03	1.001770E-02	1.833374E-04
3.175741E+03	1.022151E-02	1.861262E-04
3.185696E+03	1.043176E-02	1.889912E-04
3.195652E+03	1.064817E-02	1.919256E-04
3.205607E+03	1.087099E-02	1.949322E-04
3.215562E+03	1.110011E-02	1.980069E-04
3.225517E+03	1.133575E-02	2.011516E-04
3.235473E+03	1.157791E-02	2.043646E-04
3.245428E+03	1.182656E-02	2.076433E-04
3.255383E+03	1.208141E-02	2.109808E-04
3.265339E+03	1.234255E-02	2.143764E-04
3.275294E+03	1.260978E-02	2.178251E-04
3.285249E+03	1.288262E-02	2.213167E-04
3.295205E+03	1.316096E-02	2.248473E-04
3.305160E+03	1.344414E-02	2.284043E-04
3.315115E+03	1.373183E-02	2.319806E-04
3.325070E+03	1.402316E-02	2.355601E-04
3.335026E+03	1.431734E-02	2.391283E-04
3.344981E+03	1.461342E-02	2.426687E-04
3.354936E+03	1.491029E-02	2.461623E-04
3.364892E+03	1.520668E-02	2.495877E-04
3.374847E+03	1.550088E-02	2.529171E-04
3.384802E+03	1.579142E-02	2.561275E-04
3.394758E+03	1.607598E-02	2.591821E-04
3.404713E+03	1.635291E-02	2.620563E-04
3.414668E+03	1.661946E-02	2.647085E-04
3.424623E+03	1.687318E-02	2.671029E-04
3.434579E+03	1.711144E-02	2.692018E-04
3.444534E+03	1.733128E-02	2.709634E-04
3.454489E+03	1.753015E-02	2.723537E-04
3.464445E+03	1.770501E-02	2.733319E-04
3.474400E+03	1.785287E-02	2.738589E-04
3.484355E+03	1.797112E-02	2.739035E-04
3.494311E+03	1.805712E-02	2.734340E-04
3.504266E+03	1.810887E-02	2.724303E-04
3.514221E+03	1.812392E-02	2.708661E-04
3.524176E+03	1.810109E-02	2.687345E-04
3.534132E+03	1.803911E-02	2.660285E-04
3.544087E+03	1.793757E-02	2.627538E-04
3.554042E+03	1.779619E-02	2.589181E-04
3.563998E+03	1.761557E-02	2.545423E-04
3.573953E+03	1.739783E-02	2.496686E-04
3.583908E+03	1.714560E-02	2.443457E-04
3.593864E+03	1.686433E-02	2.386613E-04
3.603819E+03	1.656050E-02	2.327151E-04
3.613774E+03	1.624091E-02	2.266090E-04
3.623729E+03	1.591270E-02	2.204469E-04
3.633685E+03	1.558332E-02	2.143336E-04
3.643640E+03	1.525959E-02	2.083629E-04
3.653595E+03	1.494851E-02	2.026283E-04
3.663551E+03	1.465626E-02	1.972088E-04
3.673506E+03	1.438907E-02	1.921825E-04
3.683461E+03	1.415256E-02	1.876164E-04
3.693417E+03	1.395210E-02	1.835720E-04
3.703372E+03	1.379235E-02	1.800997E-04
3.713327E+03	1.367787E-02	1.772463E-04
3.723282E+03	1.361273E-02	1.750509E-04
3.733238E+03	1.360082E-02	1.735486E-04
3.743193E+03	1.364559E-02	1.727673E-04
3.753148E+03	1.375024E-02	1.727305E-04
3.763104E+03	1.391755E-02	1.734552E-04
3.773059E+03	1.414988E-02	1.749522E-04
3.783014E+03	1.444952E-02	1.772306E-04
3.792970E+03	1.481743E-02	1.802823E-04
3.802925E+03	1.525428E-02	1.840956E-04
3.812880E+03	1.575956E-02	1.886444E-04
3.822835E+03	1.633087E-02	1.938805E-04
3.832791E+03	1.696441E-02	1.997402E-04
3.842746E+03	1.765449E-02	2.061394E-04
3.852701E+03	1.839291E-02	2.129671E-04
3.862657E+03	1.916890E-02	2.200864E-04
3.872612E+03	1.996894E-02	2.273330E-04
3.882567E+03	2.077730E-02	2.345236E-04
3.892523E+03	2.157595E-02	2.414546E-04
3.902478E+03	2.234559E-02	2.479160E-04
3.912433E+03	2.306625E-02	2.536975E-04
3.922388E+03	2.371851E-02	2.586024E-04
3.932344E+03	2.428541E-02	2.624683E-04
3.942299E+03	2.475261E-02	2.651669E-04
3.952254E+03	2.510914E-02	2.666113E-04
3.962210E+03	2.534938E-02	2.667744E-04
3.972165E+03	2.547161E-02	2.656722E-04
3.982120E+03	2.547908E-02	2.633721E-04
3.992076E+03	2.537914E-02	2.599821E-04
4.002031E+03	2.518233E-02	2.556395E-04
4.011986E+03	2.490244E-02	2.505103E-04
4.021941E+03	2.455455E-02	2.447678E-04
4.031897E+03	2.415487E-02	2.385907E-04
4.041852E+03	2.371914E-02	2.321472E-04
4.051807E+03	2.326237E-02	2.255926E-04
4.061763E+03	2.279814E-02	2.190625E-04
4.071718E+03	2.233835E-02	2.126722E-04
4.081673E+03	2.189247E-02	2.065095E-04
4.091629E+03	2.146808E-02	2.006411E-04
4.101584E+03	2.107107E-02	1.951159E-04
4.111539E+03	2.070472E-02	1.899565E-04
4.121494E+03	2.037109E-02	1.851735E-04
4.131450E+03	2.007054E-02	1.807618E-04
4.141405E+03	1.980212E-02	1.767045E-04
4.151360E+03	1.956383E-02	1.729757E-04
4.161316E+03	1.935290E-02	1.695440E-04
4.171271E+03	1.916613E-02	1.663748E-04
4.181226E+03	1.900003E-02	1.634325E-04
4.191182E+03	1.885112E-02	1.606826E-04
4.201137E+03	1.871622E-02	1.580945E-04
4.211092E+03	1.859230E-02	1.556399E-04
4.221047E+03	1.847692E-02	1.532963E-04
4.231003E+03	1.836873E-02	1.510508E-04
4.240958E+03	1.826671E-02	1.488940E-04
4.250913E+03	1.817004E-02	1.468182E-04
4.260869E+03	1.807903E-02	1.448249E-04
4.270824E+03	1.799422E-02	1.429176E-04
4.280779E+03	1.791636E-02	1.411014E-04
4.290735E+03	1.784628E-02	1.393817E-04
4.300690E+03	1.778443E-02	1.377607E-04
4.310645E+03	1.773110E-02	1.362395E-04
4.320601E+03	1.768489E-02	1.348061E-04
4.330556E+03	1.764385E-02	1.334443E-04
4.340511E+03	1.760431E-02	1.321250E-04
4.350466E+03	1.756115E-02	1.308095E-04
4.360422E+03	1.750874E-02	1.294559E-04
4.370377E+03	1.744336E-02	1.280381E-04
4.380332E+03	1.737022E-02	1.265953E-04
4.390288E+03	1.730353E-02	1.252308E-04
4.400243E+03	1.725785E-02	1.240479E-04
4.410198E+03	1.724567E-02	1.231317E-04
4.420154E+03	1.727706E-02	1.225487E-04
4.430109E+03	1.735878E-02	1.223399E-04
4.440064E+03	1.749445E-02	1.225238E-04
4.450019E+03	1.768492E-02	1.230994E-04
4.459975E+03	1.792783E-02	1.240433E-04
4.469930E+03	1.821856E-02	1.253180E-04
4.479885E+03	1.854998E-02	1.268693E-04
4.489841E+03	1.891257E-02	1.286285E-04
4.499796E+03	1.929508E-02	1.305168E-04
4.509751E+03	1.968462E-02	1.324461E-04
4.519707E+03	2.006719E-02	1.343227E-04
4.529662E+03	2.042824E-02	1.360514E-04
4.539617E+03	2.075297E-02	1.375369E-04
4.549572E+03	2.102706E-02	1.386890E-04
4.559528E+03	2.123803E-02	1.394308E-04
4.569483E+03	2.137449E-02	1.396940E-04
4.579438E+03	2.142780E-02	1.394289E-04
4.589394E+03	2.139293E-02	1.386099E-04
4.599349E+03	2.126811E-02	1.372323E-04
4.609304E+03	2.105462E-02	1.353109E-04
4.619260E+03	2.075864E-02	1.328911E-04
4.629215E+03	2.038812E-02	1.300287E-04
4.639170E+03	1.995480E-02	1.268024E-04
4.649125E+03	1.947174E-02	1.232977E-04
4.659081E+03	1.895284E-02	1.196043E-04
4.669036E+03	1.841187E-02	1.158094E-04
4.678991E+03	1.786132E-02	1.119911E-04
4.688947E+03	1.731210E-02	1.082168E-04
4.698902E+03	1.677193E-02	1.045326E-04
4.708857E+03	1.624544E-02	1.009649E-04
4.718813E+03	1.573408E-02	9.751987E-05
4.728768E+03	1.523526E-02	9.417900E-05
4.738723E+03	1.474377E-02	9.090782E-05
4.748678E+03	1.425299E-02	8.766386E-05
4.758634E+03	1.375964E-02	8.442544E-05
4.768589E+03	1.326642E-02	8.120786E-05
4.778544E+03	1.278494E-02	7.808090E-05
4.788500E+03	1.233002E-02	7.513318E-05
4.798455E+03	1.191445E-02	7.244050E-05
4.808410E+03	1.154738E-02	7.005590E-05
4.818366E+03	1.123448E-02	6.801100E-05
4.828321E+03	1.097735E-02	6.631279E-05
4.838276E+03	1.077458E-02	6.495014E-05
4.848231E+03	1.062289E-02	6.390060E-05
4.858187E+03	1.051754E-02	6.313351E-05
4.868142E+03	1.045268E-02	6.261165E-05
4.878097E+03	1.042213E-02	6.229618E-05
4.888053E+03	1.041905E-02	6.214474E-05
4.898008E+03	1.043706E-02	6.211791E-05
4.907963E+03	1.047022E-02	6.217941E-05
4.917919E+03	1.051346E-02	6.229823E-05
4.927874E+03	1.056294E-02	6.245112E-05
4.937829E+03	1.061578E-02	6.262053E-05
4.947784E+03	1.067064E-02	6.279822E-05
4.957740E+03	1.072703E-02	6.298093E-05
4.967695E+03	1.078541E-02	6.317120E-05
4.977650E+03	1.084695E-02	6.337547E-05
4.987606E+03	1.091352E-02	6.360444E-05
4.997561E+03	1.098669E-02	6.386679E-05
5.007516E+03	1.106823E-02	6.417229E-05
5.017472E+03	1.115974E-02	6.452976E-05
5.027427E+03	1.126222E-02	6.494434E-05
5.037382E+03	1.137634E-02	6.541923E-05
5.047337E+03	1.150230E-02	6.595494E-05
5.057293E+03	1.163987E-02	6.654941E-05
5.067248E+03	1.178827E-02	6.719763E-05
5.077203E+03	1.194659E-02	6.789369E-05
5.087159E+03	1.211384E-02	6.863155E-05
5.097114E+03	1.228867E-02	6.940299E-05
5.107069E+03	1.247027E-02	7.020307E-05
5.117025E+03	1.265738E-02	7.102439E-05
5.126980E+03	1.284965E-02	7.186474E-05
5.136935E+03	1.304660E-02	7.272126E-05
5.146890E+03	1.324804E-02	7.359269E-05
5.156846E+03	1.345367E-02	7.447738E-05
5.166801E+03	1.366303E-02	7.537267E-05
5.176756E+03	1.387554E-02	7.627545E-05
5.186712E+03	1.408992E-02	7.717873E-05
5.196667E+03	1.430478E-02	7.807530E-05
5.206622E+03	1.451747E-02	7.895099E-05
5.216578E+03	1.472511E-02	7.979077E-05
5.226533E+03	1.492416E-02	8.057636E-05
5.236488E+03	1.511083E-02	8.128843E-05
5.246443E+03	1.528108E-02	8.190662E-05
5.256399E+03	1.543149E-02	8.241426E-05
5.266354E+03	1.555862E-02	8.279495E-05
5.276309E+03	1.565975E-02	8.303621E-05
5.286265E+03	1.573256E-02	8.312811E-05
5.296220E+03	1.577566E-02	8.306560E-05
5.306175E+03	1.578765E-02	8.284374E-05
5.316131E+03	1.576810E-02	8.246274E-05
5.326086E+03	1.571706E-02	8.192526E-05
5.336041E+03	1.563539E-02	8.123803E-05
5.345996E+03	1.552394E-02	8.040774E-05
5.355952E+03	1.538496E-02	7.944792E-05
5.365907E+03	1.522114E-02	7.837437E-05
5.375862E+03	1.503591E-02	7.720615E-05
5.385818E+03	1.483298E-02	7.596355E-05
5.395773E+03	1.461681E-02	7.467045E-05
5.405728E+03	1.439251E-02	7.335354E-05
5.415684E+03	1.416517E-02	7.203918E-05
5.425639E+03	1.394071E-02	7.075755E-05
5.435594E+03	1.372533E-02	6.954005E-05
5.445549E+03	1.352634E-02	6.842341E-05
5.455505E+03	1.335192E-02	6.744781E-05
5.465460E+03	1.320804E-02	6.664170E-05
5.475415E+03	1.309539E-02	6.600691E-05
5.485371E+03	1.300491E-02	6.549630E-05
5.495326E+03	1.292446E-02	6.504751E-05
5.505281E+03	1.284160E-02	6.459705E-05
5.515237E+03	1.274687E-02	6.409638E-05
5.525192E+03	1.263330E-02	6.350972E-05
5.535147E+03	1.249727E-02	6.281794E-05
5.545102E+03	1.233777E-02	6.201515E-05
5.555058E+03	1.215655E-02	6.110921E-05
5.565013E+03	1.195711E-02	6.011681E-05
5.574968E+03	1.174481E-02	5.906392E-05
5.584924E+03	1.152554E-02	5.797937E-05
5.594879E+03	1.130596E-02	5.689576E-05
5.604834E+03	1.109297E-02	5.584720E-05
5.614790E+03	1.089318E-02	5.486625E-05
5.624745E+03	1.071275E-02	5.398349E-05
5.634700E+03	1.055694E-02	5.322504E-05
5.644655E+03	1.043043E-02	5.261416E-05
5.654611E+03	1.033698E-02	5.216971E-05
5.664566E+03	1.027931E-02	5.190513E-05
5.674521E+03	1.025915E-02	5.182916E-05
5.684477E+03	1.027733E-02	5.194591E-05
5.694432E+03	1.033392E-02	5.225561E-05
5.704387E+03	1.042757E-02	5.275140E-05
5.714343E+03	1.055643E-02	5.342379E-05
5.724298E+03	1.071750E-02	5.425744E-05
5.734253E+03	1.090672E-02	5.523160E-05
5.744209E+03	1.111943E-02	5.632238E-05
5.754164E+03	1.135037E-02	5.750277E-05
5.764119E+03	1.159335E-02	5.874113E-05
5.774074E+03	1.184178E-02	6.000369E-05
5.784030E+03	1.208905E-02	6.125649E-05
5.793985E+03	1.232789E-02	6.246237E-05
5.803940E+03	1.255157E-02	6.358689E-05
5.813896E+03	1.275375E-02	6.459764E-05
5.823851E+03	1.292887E-02	6.546623E-05
5.833806E+03	1.307255E-02	6.617048E-05
5.843762E+03	1.318141E-02	6.669322E-05
5.853717E+03	1.325397E-02	6.702721E-05
5.863672E+03	1.328963E-02	6.716959E-05
5.873627E+03	1.328918E-02	6.712477E-05
5.883583E+03	1.325442E-02	6.690235E-05
5.893538E+03	1.318786E-02	6.651559E-05
5.903493E+03	1.309269E-02	6.598113E-05
5.913449E+03	1.297190E-02	6.531473E-05
5.923404E+03	1.282890E-02	6.453421E-05
5.933359E+03	1.266727E-02	6.365840E-05
5.943315E+03	1.249028E-02	6.270429E-05
5.953270E+03	1.230063E-02	6.168622E-05
5.963225E+03	1.210155E-02	6.062103E-05
5.973180E+03	1.189521E-02	5.952017E-05
5.983136E+03	1.168423E-02	5.839736E-05
5.993091E+03	1.147016E-02	5.726098E-05
6.003046E+03	1.125465E-02	5.611978E-05
6.013002E+03	1.103916E-02	5.498145E-05
6.022957E+03	1.082456E-02	5.385090E-05
6.032912E+03	1.061182E-02	5.273328E-05
6.042868E+03	1.040178E-02	5.163328E-05
6.052823E+03	1.019611E-02	5.055944E-05
6.062778E+03	9.996319E-03	4.951966E-05
6.072733E+03	9.805177E-03	4.852789E-05
6.082689E+03	9.625788E-03	4.759976E-05
6.092644E+03	9.461795E-03	4.675345E-05
6.102599E+03	9.317295E-03	4.600937E-05
6.112555E+03	9.196546E-03	4.538872E-05
6.122510E+03	9.103151E-03	4.490944E-05
6.132465E+03	9.039807E-03	4.458509E-05
6.142421E+03	9.007739E-03	4.442205E-05
6.152376E+03	9.005661E-03	4.441445E-05
6.162331E+03	9.029971E-03	4.454510E-05
6.172286E+03	9.073820E-03	4.478069E-05
6.182242E+03	9.127439E-03	4.507354E-05
6.192197E+03	9.178383E-03	4.536271E-05
6.202152E+03	9.212863E-03	4.558043E-05
6.212108E+03	9.219640E-03	4.567119E-05
6.222063E+03	9.195328E-03	4.561801E-05
6.232018E+03	9.146451E-03	4.545289E-05
6.241974E+03	9.083534E-03	4.522775E-05
6.251929E+03	9.017686E-03	4.499769E-05
6.261884E+03	8.957873E-03	4.480755E-05
6.271839E+03	8.910436E-03	4.468941E-05
6.281795E+03	8.879098E-03	4.466261E-05
6.291750E+03	8.864898E-03	4.473326E-05
6.301705E+03	8.866577E-03	4.489603E-05
6.311661E+03	8.881572E-03	4.513899E-05
6.321616E+03	8.906199E-03	4.544441E-05
6.331571E+03	8.935890E-03	4.578983E-05
6.341527E+03	8.966418E-03	4.615417E-05
6.351482E+03	8.993788E-03	4.651714E-05
6.361437E+03	9.014692E-03	4.686111E-05
6.371392E+03	9.026737E-03	4.717258E-05
6.381348E+03	9.028896E-03	4.744487E-05
6.391303E+03	9.020798E-03	4.767455E-05
6.401258E+03	9.003397E-03	4.786513E-05
6.411214E+03	8.978164E-03	4.802292E-05
6.421169E+03	8.947088E-03	4.815715E-05
6.431124E+03	8.912528E-03	4.827929E-05
6.441080E+03	8.876685E-03	4.840029E-05
6.451035E+03	8.841722E-03	4.853115E-05
6.460990E+03	8.809145E-03	4.867963E-05
6.470945E+03	8.780736E-03	4.885523E-05
6.480901E+03	8.757713E-03	4.906462E-05
6.490856E+03	8.740978E-03	4.931289E-05
6.500811E+03	8.731639E-03	4.960649E-05
6.510767E+03	8.730066E-03	4.994784E-05
6.520722E+03	8.735827E-03	5.033488E-05
6.530677E+03	8.748207E-03	5.076382E-05
6.540633E+03	8.766462E-03	5.123062E-05
6.550588E+03	8.789381E-03	5.172841E-05
6.560543E+03	8.815668E-03	5.224960E-05
6.570498E+03	8.843975E-03	5.278611E-05
6.580454E+03	8.872613E-03	5.332759E-05
6.590409E+03	8.899579E-03	5.386152E-05
6.600364E+03	8.923061E-03	5.437621E-05
6.610320E+03	8.940973E-03	5.485799E-05
6.620275E+03	8.951820E-03	5.529652E-05
6.630230E+03	8.953688E-03	5.567862E-05
6.640186E+03	8.945183E-03	5.599406E-05
6.650141E+03	8.925384E-03	5.623540E-05
6.660096E+03	8.893559E-03	5.639626E-05
6.670051E+03	8.849200E-03	5.647165E-05
6.680007E+03	8.792437E-03	5.646058E-05
6.689962E+03	8.723964E-03	5.636583E-05
6.699917E+03	8.644544E-03	5.619073E-05
6.709873E+03	8.555584E-03	5.594303E-05
6.719828E+03	8.458300E-03	5.562950E-05
6.729783E+03	8.354716E-03	5.526246E-05
6.739739E+03	8.246363E-03	5.485131E-05
6.749694E+03	8.135403E-03	5.440995E-05
6.759649E+03	8.023371E-03	5.394838E-05
6.769604E+03	7.912136E-03	5.347914E-05
6.779560E+03	7.803308E-03	5.301328E-05
6.789515E+03	7.698213E-03	5.256015E-05
6.799470E+03	7.598324E-03	5.213027E-05
6.809426E+03	7.504679E-03	5.173139E-05
6.819381E+03	7.418410E-03	5.137202E-05
6.829336E+03	7.340001E-03	5.105627E-05
6.839292E+03	7.270305E-03	5.079089E-05
6.849247E+03	7.209607E-03	5.057872E-05
6.859202E+03	7.158114E-03	5.042206E-05
6.869157E+03	7.115758E-03	5.032122E-05
6.879113E+03	7.082700E-03	5.027813E-05
6.889068E+03	7.058238E-03	5.028853E-05
6.899023E+03	7.042296E-03	5.035254E-05
6.908979E+03	7.033982E-03	5.046437E-05
6.918934E+03	7.032494E-03	5.061877E-05
6.928889E+03	7.037030E-03	5.081036E-05
6.938845E+03	7.046399E-03	5.103086E-05
6.948800E+03	7.059440E-03	5.127209E-05
6.958755E+03	7.074917E-03	5.152519E-05
6.968710E+03	7.091556E-03	5.178093E-05
6.978666E+03	7.108071E-03	5.202989E-05
6.988621E+03	7.123051E-03	5.226165E-05
6.998576E+03	7.135554E-03	5.246912E-05
7.008532E+03	7.144034E-03	5.264077E-05
7.018487E+03	7.147903E-03	5.277203E-05
7.028442E+03	7.145882E-03	5.285323E-05
7.038398E+03	7.137610E-03	5.288147E-05
7.048353E+03	7.122498E-03	5.285219E-05
7.058308E+03	7.100339E-03	5.276367E-05
7.068263E+03	7.071321E-03	5.261716E-05
7.078219E+03	7.035450E-03	5.241261E-05
7.088174E+03	6.993407E-03	5.215504E-05
7.098129E+03	6.945787E-03	5.184893E-05
7.108085E+03	6.893657E-03	5.150228E-05
7.118040E+03	6.838040E-03	5.112286E-05
7.127995E+03	6.779843E-03	5.071760E-05
7.137951E+03	6.720226E-03	5.029535E-05
7.147906E+03	6.659887E-03	4.986155E-05
7.157861E+03	6.599921E-03	4.942462E-05
7.167817E+03	6.540890E-03	4.898900E-05
7.177772E+03	6.483220E-03	4.855811E-05
7.187727E+03	6.427466E-03	4.813634E-05
7.197682E+03	6.373920E-03	4.772609E-05
7.207638E+03	6.322649E-03	4.732809E-05
7.217593E+03	6.273760E-03	4.694332E-05
7.227548E+03	6.227274E-03	4.657216E-05
7.237504E+03	6.183171E-03	4.621463E-05
7.247459E+03	6.141381E-03	4.587039E-05
7.257414E+03	6.101528E-03	4.553681E-05
7.267370E+03	6.063710E-03	4.521479E-05
7.277325E+03	6.027633E-03	4.490231E-05
7.287280E+03	5.992984E-03	4.459720E-05
7.297235E+03	5.959682E-03	4.429903E-05
7.307191E+03	5.927290E-03	4.400473E-05
7.317146E+03	5.895597E-03	4.371291E-05
7.327101E+03	5.864378E-03	4.342210E-05
7.337057E+03	5.833242E-03	4.312960E-05
7.347012E+03	5.802039E-03	4.283450E-05
7.356967E+03	5.770134E-03	4.253235E-05
7.366923E+03	5.737535E-03	4.222345E-05
7.376878E+03	5.703791E-03	4.190471E-05
7.386833E+03	5.668883E-03	4.157628E-05
7.396788E+03	5.632640E-03	4.123716E-05
7.406744E+03	5.595102E-03	4.088793E-05
7.416699E+03	5.556510E-03	4.053061E-05
7.426654E+03	5.516967E-03	4.016625E-05
7.436610E+03	5.477131E-03	3.979988E-05
7.446565E+03	5.437105E-03	3.943251E-05
7.456520E+03	5.397469E-03	3.906855E-05
7.466476E+03	5.358471E-03	3.870995E-05
7.476431E+03	5.320818E-03	3.836190E-05
7.486386E+03	5.284693E-03	3.802580E-05
7.496341E+03	5.250356E-03	3.770358E-05
7.506297E+03	5.218135E-03	3.739766E-05
7.516252E+03	5.188177E-03	3.710913E-05
7.526207E+03	5.160756E-03	3.683999E-05
7.536163E+03	5.135562E-03	3.658807E-05
7.546118E+03	5.112448E-03	3.635239E-05
7.556073E+03	5.091180E-03	3.613134E-05
7.566029E+03	5.071275E-03	3.592159E-05
7.575984E+03	5.052442E-03	3.572118E-05
7.585939E+03	5.034167E-03	3.552662E-05
7.595894E+03	5.016168E-03	3.533606E-05
7.605850E+03	4.997764E-03	3.514488E-05
7.615805E+03	4.978866E-03	3.495265E-05
7.625760E+03	4.959108E-03	3.475698E-05
7.635716E+03	4.938733E-03	3.455981E-05
7.645671E+03	4.917665E-03	3.436080E-05
7.655626E+03	4.896387E-03	3.416352E-05
7.665582E+03	4.875118E-03	3.396969E-05
7.675537E+03	4.854239E-03	3.378216E-05
7.685492E+03	4.834159E-03	3.360394E-05
7.695447E+03	4.815264E-03	3.343788E-05
7.705403E+03	4.797897E-03	3.328653E-05
7.715358E+03	4.782205E-03	3.315109E-05
7.725313E+03	4.768575E-03	3.303441E-05
