#wls	flux	fluxerr
1.592848E+03	1.473416E-03	2.677334E-05
1.632669E+03	1.504519E-03	2.721375E-05
1.672491E+03	1.538107E-03	2.769076E-05
1.712312E+03	1.574236E-03	2.820445E-05
1.752133E+03	1.613097E-03	2.875733E-05
1.791954E+03	1.655015E-03	2.935413E-05
1.831775E+03	1.699754E-03	2.998953E-05
1.871597E+03	1.747769E-03	3.067043E-05
1.911418E+03	1.799101E-03	3.139620E-05
1.951239E+03	1.853790E-03	3.216621E-05
1.991060E+03	1.911755E-03	3.297765E-05
2.030881E+03	1.973058E-03	3.383012E-05
2.070703E+03	2.037515E-03	3.471899E-05
2.110524E+03	2.104710E-03	3.563570E-05
2.150345E+03	2.174644E-03	3.657885E-05
2.190166E+03	2.246840E-03	3.753905E-05
2.229987E+03	2.320996E-03	3.850991E-05
2.269809E+03	2.397096E-03	3.948993E-05
2.309630E+03	2.475407E-03	4.048217E-05
2.349451E+03	2.556590E-03	4.149593E-05
2.389272E+03	2.641451E-03	4.254252E-05
2.429093E+03	2.730831E-03	4.363329E-05
2.468915E+03	2.825967E-03	4.478542E-05
2.508736E+03	2.927792E-03	4.601058E-05
2.548557E+03	3.037548E-03	4.732462E-05
2.588378E+03	3.156217E-03	4.873865E-05
2.628199E+03	3.285011E-03	5.026663E-05
2.668021E+03	3.425057E-03	5.192036E-05
2.707842E+03	3.577646E-03	5.371336E-05
2.747663E+03	3.744270E-03	5.566119E-05
2.787484E+03	3.926535E-03	5.778003E-05
2.827305E+03	4.126313E-03	6.008873E-05
2.867127E+03	4.346000E-03	6.261234E-05
2.906948E+03	4.588085E-03	6.537551E-05
2.946769E+03	4.856007E-03	6.841439E-05
2.986590E+03	5.153190E-03	7.176246E-05
2.996546E+03	5.232671E-03	7.265440E-05
3.006501E+03	5.314225E-03	7.356773E-05
3.016456E+03	5.397903E-03	7.450286E-05
3.026411E+03	5.484004E-03	7.546359E-05
3.036367E+03	5.572464E-03	7.644874E-05
3.046322E+03	5.663340E-03	7.745874E-05
3.056277E+03	5.756806E-03	7.849563E-05
3.066233E+03	5.852794E-03	7.955812E-05
3.076188E+03	5.951362E-03	8.064663E-05
3.086143E+03	6.052806E-03	8.176483E-05
3.096099E+03	6.156929E-03	8.290963E-05
3.106054E+03	6.263898E-03	8.408292E-05
3.116009E+03	6.373632E-03	8.528318E-05
3.125964E+03	6.486552E-03	8.651566E-05
3.135920E+03	6.602301E-03	8.777515E-05
3.145875E+03	6.721035E-03	8.906332E-05
3.155830E+03	6.842896E-03	9.038161E-05
3.165786E+03	6.967893E-03	9.172969E-05
3.175741E+03	7.095759E-03	9.310361E-05
3.185696E+03	7.226862E-03	9.450776E-05
3.195652E+03	7.360905E-03	9.593782E-05
3.205607E+03	7.497966E-03	9.739434E-05
3.215562E+03	7.637831E-03	9.887414E-05
3.225517E+03	7.780539E-03	1.003773E-04
3.235473E+03	7.925952E-03	1.019016E-04
3.245428E+03	8.073918E-03	1.034448E-04
3.255383E+03	8.224104E-03	1.050021E-04
3.265339E+03	8.376409E-03	1.065720E-04
3.275294E+03	8.530561E-03	1.081506E-04
3.285249E+03	8.686092E-03	1.097319E-04
3.295205E+03	8.842770E-03	1.113125E-04
3.305160E+03	9.000016E-03	1.128852E-04
3.315115E+03	9.157479E-03	1.144453E-04
3.325070E+03	9.314458E-03	1.159841E-04
3.335026E+03	9.470327E-03	1.174939E-04
3.344981E+03	9.624386E-03	1.189660E-04
3.354936E+03	9.775859E-03	1.203913E-04
3.364892E+03	9.923912E-03	1.217597E-04
3.374847E+03	1.006747E-02	1.230586E-04
3.384802E+03	1.020571E-02	1.242785E-04
3.394758E+03	1.033727E-02	1.254037E-04
3.404713E+03	1.046136E-02	1.264256E-04
3.414668E+03	1.057655E-02	1.273277E-04
3.424623E+03	1.068166E-02	1.280975E-04
3.434579E+03	1.077553E-02	1.287222E-04
3.444534E+03	1.085685E-02	1.291880E-04
3.454489E+03	1.092467E-02	1.294853E-04
3.464445E+03	1.097780E-02	1.296019E-04
3.474400E+03	1.101516E-02	1.295273E-04
3.484355E+03	1.103595E-02	1.292543E-04
3.494311E+03	1.103941E-02	1.287764E-04
3.504266E+03	1.102525E-02	1.280927E-04
3.514221E+03	1.099286E-02	1.271987E-04
3.524176E+03	1.094243E-02	1.260992E-04
3.534132E+03	1.087418E-02	1.247992E-04
3.544087E+03	1.078873E-02	1.233086E-04
3.554042E+03	1.068678E-02	1.216375E-04
3.563998E+03	1.056947E-02	1.198015E-04
3.573953E+03	1.043857E-02	1.178227E-04
3.583908E+03	1.029578E-02	1.157222E-04
3.593864E+03	1.014406E-02	1.135349E-04
3.603819E+03	9.986517E-03	1.112969E-04
3.613774E+03	9.826343E-03	1.090442E-04
3.623729E+03	9.666889E-03	1.068144E-04
3.633685E+03	9.511587E-03	1.046452E-04
3.643640E+03	9.363606E-03	1.025707E-04
3.653595E+03	9.226296E-03	1.006265E-04
3.663551E+03	9.102483E-03	9.884168E-05
3.673506E+03	8.995123E-03	9.724641E-05
3.683461E+03	8.906914E-03	9.586736E-05
3.693417E+03	8.840476E-03	9.472987E-05
3.703372E+03	8.798064E-03	9.385492E-05
3.713327E+03	8.781961E-03	9.326334E-05
3.723282E+03	8.794188E-03	9.297274E-05
3.733238E+03	8.836702E-03	9.299968E-05
3.743193E+03	8.911205E-03	9.335768E-05
3.753148E+03	9.019301E-03	9.405891E-05
3.763104E+03	9.162275E-03	9.511190E-05
3.773059E+03	9.341153E-03	9.652230E-05
3.783014E+03	9.556832E-03	9.829422E-05
3.792970E+03	9.809325E-03	1.004226E-04
3.802925E+03	1.009843E-02	1.029000E-04
3.812880E+03	1.042320E-02	1.057119E-04
3.822835E+03	1.078156E-02	1.088321E-04
3.832791E+03	1.117064E-02	1.122271E-04
3.842746E+03	1.158656E-02	1.158538E-04
3.852701E+03	1.202418E-02	1.196572E-04
3.862657E+03	1.247709E-02	1.235710E-04
3.872612E+03	1.293764E-02	1.275177E-04
3.882567E+03	1.339733E-02	1.314129E-04
3.892523E+03	1.384675E-02	1.351650E-04
3.902478E+03	1.427621E-02	1.386815E-04
3.912433E+03	1.467600E-02	1.418715E-04
3.922388E+03	1.503681E-02	1.446500E-04
3.932344E+03	1.535068E-02	1.469462E-04
3.942299E+03	1.561087E-02	1.487028E-04
3.952254E+03	1.581219E-02	1.498783E-04
3.962210E+03	1.595212E-02	1.504574E-04
3.972165E+03	1.602976E-02	1.504406E-04
3.982120E+03	1.604660E-02	1.498503E-04
3.992076E+03	1.600623E-02	1.487287E-04
4.002031E+03	1.591374E-02	1.471309E-04
4.011986E+03	1.577585E-02	1.451260E-04
4.021941E+03	1.559967E-02	1.427854E-04
4.031897E+03	1.539299E-02	1.401855E-04
4.041852E+03	1.516348E-02	1.374000E-04
4.051807E+03	1.491856E-02	1.344988E-04
4.061763E+03	1.466509E-02	1.315457E-04
4.071718E+03	1.440929E-02	1.285972E-04
4.081673E+03	1.415622E-02	1.256987E-04
4.091629E+03	1.391016E-02	1.228875E-04
4.101584E+03	1.367469E-02	1.201942E-04
4.111539E+03	1.345203E-02	1.176366E-04
4.121494E+03	1.324395E-02	1.152285E-04
4.131450E+03	1.305139E-02	1.129760E-04
4.141405E+03	1.287465E-02	1.108796E-04
4.151360E+03	1.271354E-02	1.089356E-04
4.161316E+03	1.256753E-02	1.071374E-04
4.171271E+03	1.243582E-02	1.054763E-04
4.181226E+03	1.231747E-02	1.039425E-04
4.191182E+03	1.221157E-02	1.025267E-04
4.201137E+03	1.211724E-02	1.012198E-04
4.211092E+03	1.203365E-02	1.000137E-04
4.221047E+03	1.196030E-02	9.890282E-05
4.231003E+03	1.189705E-02	9.788475E-05
4.240958E+03	1.184388E-02	9.695810E-05
4.250913E+03	1.180076E-02	9.612160E-05
4.260869E+03	1.176815E-02	9.537768E-05
4.270824E+03	1.174648E-02	9.472859E-05
4.280779E+03	1.173611E-02	9.417614E-05
4.290735E+03	1.173728E-02	9.372090E-05
4.300690E+03	1.174984E-02	9.336034E-05
4.310645E+03	1.177347E-02	9.309097E-05
4.320601E+03	1.180687E-02	9.290117E-05
4.330556E+03	1.184850E-02	9.277807E-05
4.340511E+03	1.189604E-02	9.270279E-05
4.350466E+03	1.194682E-02	9.265403E-05
4.360422E+03	1.199815E-02	9.261075E-05
4.370377E+03	1.204849E-02	9.256112E-05
4.380332E+03	1.209949E-02	9.251809E-05
4.390288E+03	1.215629E-02	9.252062E-05
4.400243E+03	1.222457E-02	9.261128E-05
4.410198E+03	1.230964E-02	9.282905E-05
4.420154E+03	1.241609E-02	9.320683E-05
4.430109E+03	1.254701E-02	9.376551E-05
4.440064E+03	1.270396E-02	9.451460E-05
4.450019E+03	1.288707E-02	9.545258E-05
4.459975E+03	1.309451E-02	9.656362E-05
4.469930E+03	1.332321E-02	9.782319E-05
4.479885E+03	1.356851E-02	9.919552E-05
4.489841E+03	1.382429E-02	1.006348E-04
4.499796E+03	1.408337E-02	1.020884E-04
4.509751E+03	1.433765E-02	1.034980E-04
4.519707E+03	1.457847E-02	1.048021E-04
4.529662E+03	1.479697E-02	1.059388E-04
4.539617E+03	1.498441E-02	1.068483E-04
4.549572E+03	1.513279E-02	1.074764E-04
4.559528E+03	1.523572E-02	1.077819E-04
4.569483E+03	1.528787E-02	1.077310E-04
4.579438E+03	1.528606E-02	1.073056E-04
4.589394E+03	1.522982E-02	1.065071E-04
4.599349E+03	1.512078E-02	1.053510E-04
4.609304E+03	1.496224E-02	1.038642E-04
4.619260E+03	1.476059E-02	1.020945E-04
4.629215E+03	1.452252E-02	1.000912E-04
4.639170E+03	1.425636E-02	9.791367E-05
4.649125E+03	1.397026E-02	9.561938E-05
4.659081E+03	1.367194E-02	9.326216E-05
4.669036E+03	1.336819E-02	9.088857E-05
4.678991E+03	1.306436E-02	8.853476E-05
4.688947E+03	1.276431E-02	8.622644E-05
4.698902E+03	1.246951E-02	8.397279E-05
4.708857E+03	1.217935E-02	8.176905E-05
4.718813E+03	1.189141E-02	7.959821E-05
4.728768E+03	1.160137E-02	7.743062E-05
4.738723E+03	1.130454E-02	7.523478E-05
4.748678E+03	1.099592E-02	7.297728E-05
4.758634E+03	1.067302E-02	7.064162E-05
4.768589E+03	1.033756E-02	6.823943E-05
4.778544E+03	9.997346E-03	6.582220E-05
4.788500E+03	9.662642E-03	6.345697E-05
4.798455E+03	9.343080E-03	6.120605E-05
4.808410E+03	9.046305E-03	5.911813E-05
4.818366E+03	8.778066E-03	5.722915E-05
4.828321E+03	8.541741E-03	5.555933E-05
4.838276E+03	8.338700E-03	5.411575E-05
4.848231E+03	8.168828E-03	5.289587E-05
4.858187E+03	8.030841E-03	5.188968E-05
4.868142E+03	7.922450E-03	5.108087E-05
4.878097E+03	7.840994E-03	5.045088E-05
4.888053E+03	7.783267E-03	4.997790E-05
4.898008E+03	7.746198E-03	4.964117E-05
4.907963E+03	7.726765E-03	4.942047E-05
4.917919E+03	7.722248E-03	4.929767E-05
4.927874E+03	7.730414E-03	4.925792E-05
4.937829E+03	7.749247E-03	4.928787E-05
4.947784E+03	7.777396E-03	4.937852E-05
4.957740E+03	7.813726E-03	4.952231E-05
4.967695E+03	7.857539E-03	4.971450E-05
4.977650E+03	7.908432E-03	4.995226E-05
4.987606E+03	7.966450E-03	5.023562E-05
4.997561E+03	8.031427E-03	5.056329E-05
5.007516E+03	8.103510E-03	5.093594E-05
5.017472E+03	8.182904E-03	5.135464E-05
5.027427E+03	8.269546E-03	5.181877E-05
5.037382E+03	8.363423E-03	5.232802E-05
5.047337E+03	8.464413E-03	5.288141E-05
5.057293E+03	8.572275E-03	5.347725E-05
5.067248E+03	8.686695E-03	5.411340E-05
5.077203E+03	8.807368E-03	5.478778E-05
5.087159E+03	8.934000E-03	5.549840E-05
5.097114E+03	9.065989E-03	5.624141E-05
5.107069E+03	9.203029E-03	5.701477E-05
5.117025E+03	9.344279E-03	5.781317E-05
5.126980E+03	9.489345E-03	5.863410E-05
5.136935E+03	9.637470E-03	5.947281E-05
5.146890E+03	9.787916E-03	6.032469E-05
5.156846E+03	9.939925E-03	6.118506E-05
5.166801E+03	1.009250E-02	6.204780E-05
5.176756E+03	1.024457E-02	6.290629E-05
5.186712E+03	1.039470E-02	6.375182E-05
5.196667E+03	1.054156E-02	6.457633E-05
5.206622E+03	1.068309E-02	6.536727E-05
5.216578E+03	1.081739E-02	6.611323E-05
5.226533E+03	1.094239E-02	6.680169E-05
5.236488E+03	1.105600E-02	6.742016E-05
5.246443E+03	1.115594E-02	6.795512E-05
5.256399E+03	1.124049E-02	6.839621E-05
5.266354E+03	1.130793E-02	6.873350E-05
5.276309E+03	1.135710E-02	6.896018E-05
5.286265E+03	1.138703E-02	6.907083E-05
5.296220E+03	1.139736E-02	6.906361E-05
5.306175E+03	1.138781E-02	6.893721E-05
5.316131E+03	1.135867E-02	6.869380E-05
5.326086E+03	1.131048E-02	6.833692E-05
5.336041E+03	1.124442E-02	6.787410E-05
5.345996E+03	1.116159E-02	6.731222E-05
5.355952E+03	1.106384E-02	6.666279E-05
5.365907E+03	1.095323E-02	6.593843E-05
5.375862E+03	1.083206E-02	6.515314E-05
5.385818E+03	1.070254E-02	6.432034E-05
5.395773E+03	1.056723E-02	6.345556E-05
5.405728E+03	1.042864E-02	6.257392E-05
5.415684E+03	1.028868E-02	6.168692E-05
5.425639E+03	1.014946E-02	6.080719E-05
5.435594E+03	1.001236E-02	5.994293E-05
5.445549E+03	9.878517E-03	5.910098E-05
5.455505E+03	9.749506E-03	5.829058E-05
5.465460E+03	9.625525E-03	5.751278E-05
5.475415E+03	9.506250E-03	5.676544E-05
5.485371E+03	9.391040E-03	5.604456E-05
5.495326E+03	9.278815E-03	5.534354E-05
5.505281E+03	9.167527E-03	5.465004E-05
5.515237E+03	9.055593E-03	5.395450E-05
5.525192E+03	8.941560E-03	5.324818E-05
5.535147E+03	8.824860E-03	5.252760E-05
5.545102E+03	8.705531E-03	5.179295E-05
5.555058E+03	8.584500E-03	5.104966E-05
5.565013E+03	8.463159E-03	5.030593E-05
5.574968E+03	8.343720E-03	4.957483E-05
5.584924E+03	8.228458E-03	4.886979E-05
5.594879E+03	8.119980E-03	4.820619E-05
5.604834E+03	8.020968E-03	4.759982E-05
5.614790E+03	7.933952E-03	4.706558E-05
5.624745E+03	7.861333E-03	4.661758E-05
5.634700E+03	7.805055E-03	4.626719E-05
5.644655E+03	7.766892E-03	4.602480E-05
5.654611E+03	7.748242E-03	4.589854E-05
5.664566E+03	7.749987E-03	4.589348E-05
5.674521E+03	7.772548E-03	4.601198E-05
5.684477E+03	7.815915E-03	4.625384E-05
5.694432E+03	7.879790E-03	4.661717E-05
5.704387E+03	7.963049E-03	4.709520E-05
5.714343E+03	8.064393E-03	4.768015E-05
5.724298E+03	8.181900E-03	4.836055E-05
5.734253E+03	8.313023E-03	4.912128E-05
5.744209E+03	8.454975E-03	4.994582E-05
5.754164E+03	8.605059E-03	5.081820E-05
5.764119E+03	8.760082E-03	5.171955E-05
5.774074E+03	8.916632E-03	5.262972E-05
5.784030E+03	9.071483E-03	5.352968E-05
5.793985E+03	9.220940E-03	5.439770E-05
5.803940E+03	9.361595E-03	5.521371E-05
5.813896E+03	9.490242E-03	5.595889E-05
5.823851E+03	9.603939E-03	5.661598E-05
5.833806E+03	9.700227E-03	5.717059E-05
5.843762E+03	9.776851E-03	5.760955E-05
5.853717E+03	9.832470E-03	5.792508E-05
5.863672E+03	9.865944E-03	5.811058E-05
5.873627E+03	9.876867E-03	5.816378E-05
5.883583E+03	9.865259E-03	5.808492E-05
5.893538E+03	9.831564E-03	5.787674E-05
5.903493E+03	9.777002E-03	5.754651E-05
5.913449E+03	9.702702E-03	5.710097E-05
5.923404E+03	9.610164E-03	5.654904E-05
5.933359E+03	9.501498E-03	5.590320E-05
5.943315E+03	9.378732E-03	5.517545E-05
5.953270E+03	9.243644E-03	5.437629E-05
5.963225E+03	9.098756E-03	5.352059E-05
5.973180E+03	8.945956E-03	5.261948E-05
5.983136E+03	8.787681E-03	5.168731E-05
5.993091E+03	8.625880E-03	5.073555E-05
6.003046E+03	8.462706E-03	4.977687E-05
6.013002E+03	8.300301E-03	4.882386E-05
6.022957E+03	8.140702E-03	4.788850E-05
6.032912E+03	7.985977E-03	4.698296E-05
6.042868E+03	7.837921E-03	4.611780E-05
6.052823E+03	7.698742E-03	4.530601E-05
6.062778E+03	7.570158E-03	4.455773E-05
6.072733E+03	7.454300E-03	4.388552E-05
6.082689E+03	7.353003E-03	4.330026E-05
6.092644E+03	7.267975E-03	4.281206E-05
6.102599E+03	7.200775E-03	4.243021E-05
6.112555E+03	7.152680E-03	4.216237E-05
6.122510E+03	7.124256E-03	4.201203E-05
6.132465E+03	7.115406E-03	4.197881E-05
6.142421E+03	7.125174E-03	4.205729E-05
6.152376E+03	7.151089E-03	4.223311E-05
6.162331E+03	7.189586E-03	4.248545E-05
6.172286E+03	7.235519E-03	4.278406E-05
6.182242E+03	7.282402E-03	4.309068E-05
6.192197E+03	7.322533E-03	4.335972E-05
6.202152E+03	7.347593E-03	4.354181E-05
6.212108E+03	7.350612E-03	4.359541E-05
6.222063E+03	7.329194E-03	4.350595E-05
6.232018E+03	7.287161E-03	4.329573E-05
6.241974E+03	7.230663E-03	4.300094E-05
6.251929E+03	7.166433E-03	4.266134E-05
6.261884E+03	7.100412E-03	4.231214E-05
6.271839E+03	7.037499E-03	4.198246E-05
6.281795E+03	6.981341E-03	4.169407E-05
6.291750E+03	6.933860E-03	4.145854E-05
6.301705E+03	6.895586E-03	4.127917E-05
6.311661E+03	6.866369E-03	4.115522E-05
6.321616E+03	6.845360E-03	4.108175E-05
6.331571E+03	6.831095E-03	4.105012E-05
6.341527E+03	6.822210E-03	4.105227E-05
6.351482E+03	6.817227E-03	4.107938E-05
6.361437E+03	6.814806E-03	4.112344E-05
6.371392E+03	6.813831E-03	4.117766E-05
6.381348E+03	6.813733E-03	4.123856E-05
6.391303E+03	6.813934E-03	4.130256E-05
6.401258E+03	6.814410E-03	4.136944E-05
6.411214E+03	6.815206E-03	4.143938E-05
6.421169E+03	6.816508E-03	4.151345E-05
6.431124E+03	6.818607E-03	4.159335E-05
6.441080E+03	6.821651E-03	4.167992E-05
6.451035E+03	6.825746E-03	4.177374E-05
6.460990E+03	6.830495E-03	4.187236E-05
6.470945E+03	6.835675E-03	4.197432E-05
6.480901E+03	6.840603E-03	4.207535E-05
6.490856E+03	6.844267E-03	4.216915E-05
6.500811E+03	6.845790E-03	4.225017E-05
6.510767E+03	6.844963E-03	4.231699E-05
6.520722E+03	6.842618E-03	4.237459E-05
6.530677E+03	6.839580E-03	4.242799E-05
6.540633E+03	6.836548E-03	4.248142E-05
6.550588E+03	6.833721E-03	4.253607E-05
6.560543E+03	6.831209E-03	4.259253E-05
6.570498E+03	6.828968E-03	4.265050E-05
6.580454E+03	6.826584E-03	4.270731E-05
6.590409E+03	6.823324E-03	4.275831E-05
6.600364E+03	6.818510E-03	4.279915E-05
6.610320E+03	6.811138E-03	4.282342E-05
6.620275E+03	6.800505E-03	4.282654E-05
6.630230E+03	6.785472E-03	4.280118E-05
6.640186E+03	6.765179E-03	4.274172E-05
6.650141E+03	6.739106E-03	4.264466E-05
6.660096E+03	6.706772E-03	4.250674E-05
6.670051E+03	6.667780E-03	4.232521E-05
6.680007E+03	6.622181E-03	4.210016E-05
6.689962E+03	6.570335E-03	4.183368E-05
6.699917E+03	6.512571E-03	4.152764E-05
6.709873E+03	6.449810E-03	4.118776E-05
6.719828E+03	6.382746E-03	4.081830E-05
6.729783E+03	6.312588E-03	4.042690E-05
6.739739E+03	6.240234E-03	4.001922E-05
6.749694E+03	6.167013E-03	3.960374E-05
6.759649E+03	6.093734E-03	3.918565E-05
6.769604E+03	6.021509E-03	3.877212E-05
6.779560E+03	5.951231E-03	3.836893E-05
6.789515E+03	5.883551E-03	3.798036E-05
6.799470E+03	5.819262E-03	3.761161E-05
6.809426E+03	5.758789E-03	3.726552E-05
6.819381E+03	5.702645E-03	3.694552E-05
6.829336E+03	5.650892E-03	3.665213E-05
6.839292E+03	5.603878E-03	3.638773E-05
6.849247E+03	5.561523E-03	3.615191E-05
6.859202E+03	5.523895E-03	3.594523E-05
6.869157E+03	5.490857E-03	3.576689E-05
6.879113E+03	5.462469E-03	3.561742E-05
6.889068E+03	5.438337E-03	3.549433E-05
6.899023E+03	5.418592E-03	3.539856E-05
6.908979E+03	5.402718E-03	3.532686E-05
6.918934E+03	5.390356E-03	3.527693E-05
6.928889E+03	5.381145E-03	3.524648E-05
6.938845E+03	5.374433E-03	3.523131E-05
6.948800E+03	5.369651E-03	3.522773E-05
6.958755E+03	5.366179E-03	3.523171E-05
6.968710E+03	5.363359E-03	3.523896E-05
6.978666E+03	5.360654E-03	3.524597E-05
6.988621E+03	5.357411E-03	3.524846E-05
6.998576E+03	5.353288E-03	3.524419E-05
7.008532E+03	5.347507E-03	3.522803E-05
7.018487E+03	5.339932E-03	3.519910E-05
7.028442E+03	5.329850E-03	3.515269E-05
7.038398E+03	5.317269E-03	3.508885E-05
7.048353E+03	5.301956E-03	3.500605E-05
7.058308E+03	5.283834E-03	3.490378E-05
7.068263E+03	5.263075E-03	3.478318E-05
7.078219E+03	5.239576E-03	3.464358E-05
7.088174E+03	5.213610E-03	3.448681E-05
7.098129E+03	5.185332E-03	3.431391E-05
7.108085E+03	5.155118E-03	3.412738E-05
7.118040E+03	5.123236E-03	3.392904E-05
7.127995E+03	5.089933E-03	3.372056E-05
7.137951E+03	5.055606E-03	3.350459E-05
7.147906E+03	5.020296E-03	3.328146E-05
7.157861E+03	4.984525E-03	3.305466E-05
7.167817E+03	4.948422E-03	3.282510E-05
7.177772E+03	4.912055E-03	3.259328E-05
7.187727E+03	4.875730E-03	3.236128E-05
7.197682E+03	4.839595E-03	3.213011E-05
7.207638E+03	4.803675E-03	3.190002E-05
7.217593E+03	4.768228E-03	3.167276E-05
7.227548E+03	4.733495E-03	3.144997E-05
7.237504E+03	4.699653E-03	3.123290E-05
7.247459E+03	4.666904E-03	3.102294E-05
7.257414E+03	4.635192E-03	3.081976E-05
7.267370E+03	4.604775E-03	3.062515E-05
7.277325E+03	4.575623E-03	3.043896E-05
7.287280E+03	4.547631E-03	3.026055E-05
7.297235E+03	4.520840E-03	3.009023E-05
7.307191E+03	4.495038E-03	2.992667E-05
7.317146E+03	4.470142E-03	2.976935E-05
7.327101E+03	4.446016E-03	2.961743E-05
7.337057E+03	4.422449E-03	2.946956E-05
7.347012E+03	4.399365E-03	2.932528E-05
7.356967E+03	4.376290E-03	2.918149E-05
7.366923E+03	4.353263E-03	2.903849E-05
7.376878E+03	4.329946E-03	2.889409E-05
7.386833E+03	4.306324E-03	2.874821E-05
7.396788E+03	4.282380E-03	2.860080E-05
7.406744E+03	4.258251E-03	2.845282E-05
7.416699E+03	4.234181E-03	2.830594E-05
7.426654E+03	4.210353E-03	2.816144E-05
7.436610E+03	4.187316E-03	2.802302E-05
7.446565E+03	4.165139E-03	2.789122E-05
7.456520E+03	4.144254E-03	2.776899E-05
7.466476E+03	4.124764E-03	2.765705E-05
7.476431E+03	4.107069E-03	2.755811E-05
7.486386E+03	4.091156E-03	2.747212E-05
7.496341E+03	4.077009E-03	2.739902E-05
7.506297E+03	4.064618E-03	2.733877E-05
7.516252E+03	4.053802E-03	2.729020E-05
7.526207E+03	4.044452E-03	2.725261E-05
7.536163E+03	4.035951E-03	2.722188E-05
7.546118E+03	4.027859E-03	2.719509E-05
7.556073E+03	4.019592E-03	2.716831E-05
7.566029E+03	4.010298E-03	2.713578E-05
7.575984E+03	3.999267E-03	2.709270E-05
7.585939E+03	3.985824E-03	2.703445E-05
7.595894E+03	3.970216E-03	2.696268E-05
7.605850E+03	3.952619E-03	2.687852E-05
7.615805E+03	3.933608E-03	2.678585E-05
7.625760E+03	3.913370E-03	2.668591E-05
7.635716E+03	3.892458E-03	2.658246E-05
7.645671E+03	3.871008E-03	2.647641E-05
7.655626E+03	3.849474E-03	2.637084E-05
7.665582E+03	3.828081E-03	2.626731E-05
7.675537E+03	3.807104E-03	2.616772E-05
7.685492E+03	3.786768E-03	2.607362E-05
7.695447E+03	3.767308E-03	2.598669E-05
7.705403E+03	3.748913E-03	2.590823E-05
7.715358E+03	3.731608E-03	2.583850E-05
7.725313E+03	3.715605E-03	2.577900E-05
