#wls	flux	fluxerr
1.592848E+03	2.015064E-03	7.826224E-05
1.632669E+03	2.068026E-03	7.982699E-05
1.672491E+03	2.125013E-03	8.150954E-05
1.712312E+03	2.186158E-03	8.331093E-05
1.752133E+03	2.251791E-03	8.523934E-05
1.791954E+03	2.322433E-03	8.730962E-05
1.831775E+03	2.397821E-03	8.950673E-05
1.871597E+03	2.478670E-03	9.185183E-05
1.911418E+03	2.565111E-03	9.434367E-05
1.951239E+03	2.657282E-03	9.698088E-05
1.991060E+03	2.755139E-03	9.975521E-05
2.030881E+03	2.858846E-03	1.026655E-04
2.070703E+03	2.968204E-03	1.056975E-04
2.110524E+03	3.082669E-03	1.088245E-04
2.150345E+03	3.202289E-03	1.120412E-04
2.190166E+03	3.326408E-03	1.153174E-04
2.229987E+03	3.454601E-03	1.186316E-04
2.269809E+03	3.586860E-03	1.219768E-04
2.309630E+03	3.723594E-03	1.253599E-04
2.349451E+03	3.865811E-03	1.288069E-04
2.389272E+03	4.014753E-03	1.323502E-04
2.429093E+03	4.171733E-03	1.360220E-04
2.468915E+03	4.338688E-03	1.398730E-04
2.508736E+03	4.517120E-03	1.439362E-04
2.548557E+03	4.709023E-03	1.482579E-04
2.588378E+03	4.916029E-03	1.528693E-04
2.628199E+03	5.140159E-03	1.578106E-04
2.668021E+03	5.383319E-03	1.631144E-04
2.707842E+03	5.647741E-03	1.688196E-04
2.747663E+03	5.936029E-03	1.749713E-04
2.787484E+03	6.251057E-03	1.816176E-04
2.827305E+03	6.596256E-03	1.888164E-04
2.867127E+03	6.976068E-03	1.966472E-04
2.906948E+03	7.395385E-03	2.051932E-04
2.946769E+03	7.860982E-03	2.145787E-04
2.986590E+03	8.380228E-03	2.249306E-04
2.996546E+03	8.519700E-03	2.276940E-04
3.006501E+03	8.663127E-03	2.305270E-04
3.016456E+03	8.810658E-03	2.334322E-04
3.026411E+03	8.962831E-03	2.364220E-04
3.036367E+03	9.119616E-03	2.394938E-04
3.046322E+03	9.281178E-03	2.426503E-04
3.056277E+03	9.447880E-03	2.458990E-04
3.066233E+03	9.619710E-03	2.492376E-04
3.076188E+03	9.796845E-03	2.526687E-04
3.086143E+03	9.979892E-03	2.562058E-04
3.096099E+03	1.016864E-02	2.598412E-04
3.106054E+03	1.036350E-02	2.635831E-04
3.116009E+03	1.056447E-02	2.674291E-04
3.125964E+03	1.077239E-02	2.713982E-04
3.135920E+03	1.098687E-02	2.754774E-04
3.145875E+03	1.120833E-02	2.796749E-04
3.155830E+03	1.143721E-02	2.839991E-04
3.165786E+03	1.167376E-02	2.884526E-04
3.175741E+03	1.191774E-02	2.930272E-04
3.185696E+03	1.217005E-02	2.977417E-04
3.195652E+03	1.243046E-02	3.025872E-04
3.205607E+03	1.269942E-02	3.075710E-04
3.215562E+03	1.297686E-02	3.126887E-04
3.225517E+03	1.326321E-02	3.179468E-04
3.235473E+03	1.355861E-02	3.233452E-04
3.245428E+03	1.386318E-02	3.288831E-04
3.255383E+03	1.417677E-02	3.345532E-04
3.265339E+03	1.449963E-02	3.403579E-04
3.275294E+03	1.483174E-02	3.462931E-04
3.285249E+03	1.517276E-02	3.523466E-04
3.295205E+03	1.552272E-02	3.585162E-04
3.305160E+03	1.588110E-02	3.647858E-04
3.315115E+03	1.624772E-02	3.711480E-04
3.325070E+03	1.662177E-02	3.775811E-04
3.335026E+03	1.700252E-02	3.840653E-04
3.344981E+03	1.738904E-02	3.905774E-04
3.354936E+03	1.778021E-02	3.970892E-04
3.364892E+03	1.817461E-02	4.035677E-04
3.374847E+03	1.857029E-02	4.099681E-04
3.384802E+03	1.896549E-02	4.162513E-04
3.394758E+03	1.935729E-02	4.223535E-04
3.404713E+03	1.974350E-02	4.282280E-04
3.414668E+03	2.012045E-02	4.337982E-04
3.424623E+03	2.048471E-02	4.389936E-04
3.434579E+03	2.083252E-02	4.437390E-04
3.444534E+03	2.115958E-02	4.479499E-04
3.454489E+03	2.146199E-02	4.515522E-04
3.464445E+03	2.173518E-02	4.544598E-04
3.474400E+03	2.197456E-02	4.565888E-04
3.484355E+03	2.217594E-02	4.578662E-04
3.494311E+03	2.233506E-02	4.582192E-04
3.504266E+03	2.244851E-02	4.575954E-04
3.514221E+03	2.251217E-02	4.559293E-04
3.524176E+03	2.252355E-02	4.531907E-04
3.534132E+03	2.248018E-02	4.493512E-04
3.544087E+03	2.238061E-02	4.444035E-04
3.554042E+03	2.222367E-02	4.383473E-04
3.563998E+03	2.200946E-02	4.312077E-04
3.573953E+03	2.173987E-02	4.230445E-04
3.583908E+03	2.141758E-02	4.139316E-04
3.593864E+03	2.104953E-02	4.040236E-04
3.603819E+03	2.064411E-02	3.934992E-04
3.613774E+03	2.021023E-02	3.825419E-04
3.623729E+03	1.975737E-02	3.713417E-04
3.633685E+03	1.929539E-02	3.600905E-04
3.643640E+03	1.883368E-02	3.489657E-04
3.653595E+03	1.838207E-02	3.381486E-04
3.663551E+03	1.794935E-02	3.277957E-04
3.673506E+03	1.754456E-02	3.180637E-04
3.683461E+03	1.717605E-02	3.090917E-04
3.693417E+03	1.685186E-02	3.010089E-04
3.703372E+03	1.657908E-02	2.939235E-04
3.713327E+03	1.636455E-02	2.879355E-04
3.723282E+03	1.621437E-02	2.831283E-04
3.733238E+03	1.613433E-02	2.795763E-04
3.743193E+03	1.612961E-02	2.773407E-04
3.753148E+03	1.620513E-02	2.764757E-04
3.763104E+03	1.636537E-02	2.770247E-04
3.773059E+03	1.661441E-02	2.790227E-04
3.783014E+03	1.695630E-02	2.825020E-04
3.792970E+03	1.739368E-02	2.874688E-04
3.802925E+03	1.792888E-02	2.939239E-04
3.812880E+03	1.856295E-02	3.018452E-04
3.822835E+03	1.929462E-02	3.111733E-04
3.832791E+03	2.012072E-02	3.218187E-04
3.842746E+03	2.103532E-02	3.336502E-04
3.852701E+03	2.202883E-02	3.464824E-04
3.862657E+03	2.308770E-02	3.600733E-04
3.872612E+03	2.419380E-02	3.741172E-04
3.882567E+03	2.532509E-02	3.882582E-04
3.892523E+03	2.645544E-02	4.020903E-04
3.902478E+03	2.755574E-02	4.151764E-04
3.912433E+03	2.859519E-02	4.270694E-04
3.922388E+03	2.954319E-02	4.373415E-04
3.932344E+03	3.037170E-02	4.456190E-04
3.942299E+03	3.105656E-02	4.515985E-04
3.952254E+03	3.157912E-02	4.550691E-04
3.962210E+03	3.192888E-02	4.559455E-04
3.972165E+03	3.210225E-02	4.542456E-04
3.982120E+03	3.210394E-02	4.501050E-04
3.992076E+03	3.194560E-02	4.437532E-04
4.002031E+03	3.164458E-02	4.354916E-04
4.011986E+03	3.122343E-02	4.256833E-04
4.021941E+03	3.070660E-02	4.147049E-04
4.031897E+03	3.012011E-02	4.029414E-04
4.041852E+03	2.948921E-02	3.907539E-04
4.051807E+03	2.883738E-02	3.784675E-04
4.061763E+03	2.818550E-02	3.663611E-04
4.071718E+03	2.755144E-02	3.546646E-04
4.081673E+03	2.694902E-02	3.435471E-04
4.091629E+03	2.638877E-02	3.331295E-04
4.101584E+03	2.587835E-02	3.234913E-04
4.111539E+03	2.542129E-02	3.146579E-04
4.121494E+03	2.501911E-02	3.066280E-04
4.131450E+03	2.467076E-02	2.993685E-04
4.141405E+03	2.437314E-02	2.928230E-04
4.151360E+03	2.412162E-02	2.869179E-04
4.161316E+03	2.391035E-02	2.815683E-04
4.171271E+03	2.373274E-02	2.766832E-04
4.181226E+03	2.358158E-02	2.721680E-04
4.191182E+03	2.344968E-02	2.679318E-04
4.201137E+03	2.333077E-02	2.638977E-04
4.211092E+03	2.321868E-02	2.599923E-04
4.221047E+03	2.310781E-02	2.561522E-04
4.231003E+03	2.299410E-02	2.523330E-04
4.240958E+03	2.287383E-02	2.484956E-04
4.250913E+03	2.274356E-02	2.446060E-04
4.260869E+03	2.260241E-02	2.406585E-04
4.270824E+03	2.244997E-02	2.366528E-04
4.280779E+03	2.228648E-02	2.325955E-04
4.290735E+03	2.211379E-02	2.285093E-04
4.300690E+03	2.193381E-02	2.244171E-04
4.310645E+03	2.174873E-02	2.203434E-04
4.320601E+03	2.155978E-02	2.163021E-04
4.330556E+03	2.136798E-02	2.123035E-04
4.340511E+03	2.117225E-02	2.083367E-04
4.350466E+03	2.096995E-02	2.043763E-04
4.360422E+03	2.075852E-02	2.003980E-04
4.370377E+03	2.053823E-02	1.964059E-04
4.380332E+03	2.031889E-02	1.924944E-04
4.390288E+03	2.012056E-02	1.888501E-04
4.400243E+03	1.996397E-02	1.856593E-04
4.410198E+03	1.986671E-02	1.830726E-04
4.420154E+03	1.984322E-02	1.812061E-04
4.430109E+03	1.990377E-02	1.801343E-04
4.440064E+03	2.005422E-02	1.798893E-04
4.450019E+03	2.029642E-02	1.804666E-04
4.459975E+03	2.062772E-02	1.818222E-04
4.469930E+03	2.104243E-02	1.838874E-04
4.479885E+03	2.153036E-02	1.865567E-04
4.489841E+03	2.207722E-02	1.896933E-04
4.499796E+03	2.266710E-02	1.931513E-04
4.509751E+03	2.328069E-02	1.967612E-04
4.519707E+03	2.389596E-02	2.003359E-04
4.529662E+03	2.449113E-02	2.036969E-04
4.539617E+03	2.504319E-02	2.066611E-04
4.549572E+03	2.552891E-02	2.090494E-04
4.559528E+03	2.592869E-02	2.107173E-04
4.569483E+03	2.622346E-02	2.115291E-04
4.579438E+03	2.639681E-02	2.113738E-04
4.589394E+03	2.643927E-02	2.101986E-04
4.599349E+03	2.634442E-02	2.079756E-04
4.609304E+03	2.610901E-02	2.047020E-04
4.619260E+03	2.574002E-02	2.004543E-04
4.629215E+03	2.524642E-02	1.953212E-04
4.639170E+03	2.464221E-02	1.894274E-04
4.649125E+03	2.394810E-02	1.829448E-04
4.659081E+03	2.318638E-02	1.760525E-04
4.669036E+03	2.237962E-02	1.689265E-04
4.678991E+03	2.155306E-02	1.617587E-04
4.688947E+03	2.072966E-02	1.547192E-04
4.698902E+03	1.992684E-02	1.479328E-04
4.708857E+03	1.915722E-02	1.414849E-04
4.718813E+03	1.842759E-02	1.354166E-04
4.728768E+03	1.773648E-02	1.297081E-04
4.738723E+03	1.707405E-02	1.242791E-04
4.748678E+03	1.642665E-02	1.190239E-04
4.758634E+03	1.578240E-02	1.138516E-04
4.768589E+03	1.513785E-02	1.087338E-04
4.778544E+03	1.451802E-02	1.038462E-04
4.788500E+03	1.395278E-02	9.939637E-05
4.798455E+03	1.346089E-02	9.551029E-05
4.808410E+03	1.305394E-02	9.226132E-05
4.818366E+03	1.273782E-02	8.968206E-05
4.828321E+03	1.250968E-02	8.774353E-05
4.838276E+03	1.236236E-02	8.638756E-05
4.848231E+03	1.228693E-02	8.554438E-05
4.858187E+03	1.227334E-02	8.513790E-05
4.868142E+03	1.231011E-02	8.508315E-05
4.878097E+03	1.238522E-02	8.529278E-05
4.888053E+03	1.248662E-02	8.568051E-05
4.898008E+03	1.260257E-02	8.616337E-05
4.907963E+03	1.272207E-02	8.666467E-05
4.917919E+03	1.283724E-02	8.712999E-05
4.927874E+03	1.294234E-02	8.752019E-05
4.937829E+03	1.303344E-02	8.780884E-05
4.947784E+03	1.311091E-02	8.799885E-05
4.957740E+03	1.317673E-02	8.810405E-05
4.967695E+03	1.323428E-02	8.814723E-05
4.977650E+03	1.328875E-02	8.816293E-05
4.987606E+03	1.334600E-02	8.818978E-05
4.997561E+03	1.341090E-02	8.825912E-05
5.007516E+03	1.348827E-02	8.840152E-05
5.017472E+03	1.358194E-02	8.864072E-05
5.027427E+03	1.369414E-02	8.898950E-05
5.037382E+03	1.382622E-02	8.945463E-05
5.047337E+03	1.397825E-02	9.003474E-05
5.057293E+03	1.414930E-02	9.072174E-05
5.067248E+03	1.433778E-02	9.150369E-05
5.077203E+03	1.454170E-02	9.236609E-05
5.087159E+03	1.475898E-02	9.329424E-05
5.097114E+03	1.498754E-02	9.427380E-05
5.107069E+03	1.522612E-02	9.529562E-05
5.117025E+03	1.547297E-02	9.634792E-05
5.126980E+03	1.572804E-02	9.742968E-05
5.136935E+03	1.599118E-02	9.853930E-05
5.146890E+03	1.626257E-02	9.967729E-05
5.156846E+03	1.654279E-02	1.008466E-04
5.166801E+03	1.683212E-02	1.020486E-04
5.176756E+03	1.713045E-02	1.032821E-04
5.186712E+03	1.743654E-02	1.045394E-04
5.196667E+03	1.774881E-02	1.058110E-04
5.206622E+03	1.806368E-02	1.070758E-04
5.216578E+03	1.837666E-02	1.083083E-04
5.226533E+03	1.868218E-02	1.094770E-04
5.236488E+03	1.897413E-02	1.105484E-04
5.246443E+03	1.924549E-02	1.114846E-04
5.256399E+03	1.948999E-02	1.122530E-04
5.266354E+03	1.970158E-02	1.128235E-04
5.276309E+03	1.987515E-02	1.131719E-04
5.286265E+03	2.000649E-02	1.132798E-04
5.296220E+03	2.009293E-02	1.131383E-04
5.306175E+03	2.013208E-02	1.127399E-04
5.316131E+03	2.012309E-02	1.120864E-04
5.326086E+03	2.006598E-02	1.111838E-04
5.336041E+03	1.996180E-02	1.100439E-04
5.345996E+03	1.981175E-02	1.086789E-04
5.355952E+03	1.961886E-02	1.071104E-04
5.365907E+03	1.938654E-02	1.053615E-04
5.375862E+03	1.911916E-02	1.034599E-04
5.385818E+03	1.882175E-02	1.014358E-04
5.395773E+03	1.850081E-02	9.932672E-05
5.405728E+03	1.816396E-02	9.717508E-05
5.415684E+03	1.781969E-02	9.502705E-05
5.425639E+03	1.747961E-02	9.294459E-05
5.435594E+03	1.715563E-02	9.099038E-05
5.445549E+03	1.686172E-02	8.923690E-05
5.455505E+03	1.661856E-02	8.778968E-05
5.465460E+03	1.644158E-02	8.672547E-05
5.475415E+03	1.633150E-02	8.604371E-05
5.485371E+03	1.627095E-02	8.564932E-05
5.495326E+03	1.623422E-02	8.540411E-05
5.505281E+03	1.619379E-02	8.516112E-05
5.515237E+03	1.613165E-02	8.482356E-05
5.525192E+03	1.603395E-02	8.431650E-05
5.535147E+03	1.589130E-02	8.358832E-05
5.545102E+03	1.570045E-02	8.261948E-05
5.555058E+03	1.546269E-02	8.141416E-05
5.565013E+03	1.518246E-02	7.999302E-05
5.574968E+03	1.486794E-02	7.839664E-05
5.584924E+03	1.452901E-02	7.667460E-05
5.594879E+03	1.417705E-02	7.488484E-05
5.604834E+03	1.382407E-02	7.308888E-05
5.614790E+03	1.348189E-02	7.134771E-05
5.624745E+03	1.316178E-02	6.971990E-05
5.634700E+03	1.287347E-02	6.825610E-05
5.644655E+03	1.262571E-02	6.700224E-05
5.654611E+03	1.242575E-02	6.599652E-05
5.664566E+03	1.227865E-02	6.526563E-05
5.674521E+03	1.218806E-02	6.482885E-05
5.684477E+03	1.215624E-02	6.469802E-05
5.694432E+03	1.218373E-02	6.487590E-05
5.704387E+03	1.226926E-02	6.535535E-05
5.714343E+03	1.241084E-02	6.612521E-05
5.724298E+03	1.260446E-02	6.716331E-05
5.734253E+03	1.284460E-02	6.843926E-05
5.744209E+03	1.312477E-02	6.991731E-05
5.754164E+03	1.343708E-02	7.155408E-05
5.764119E+03	1.377213E-02	7.329798E-05
5.774074E+03	1.411954E-02	7.509231E-05
5.784030E+03	1.446841E-02	7.687757E-05
5.793985E+03	1.480673E-02	7.858869E-05
5.803940E+03	1.512311E-02	8.016421E-05
5.813896E+03	1.540704E-02	8.154774E-05
5.823851E+03	1.564938E-02	8.269084E-05
5.833806E+03	1.584321E-02	8.355733E-05
5.843762E+03	1.598383E-02	8.412327E-05
5.853717E+03	1.606983E-02	8.438270E-05
5.863672E+03	1.610165E-02	8.433986E-05
5.873627E+03	1.608203E-02	8.401137E-05
5.883583E+03	1.601549E-02	8.342330E-05
5.893538E+03	1.590766E-02	8.260758E-05
5.903493E+03	1.576463E-02	8.159860E-05
5.913449E+03	1.559226E-02	8.042929E-05
5.923404E+03	1.539667E-02	7.913377E-05
5.933359E+03	1.518331E-02	7.774251E-05
5.943315E+03	1.495699E-02	7.628230E-05
5.953270E+03	1.472155E-02	7.477489E-05
5.963225E+03	1.448058E-02	7.324035E-05
5.973180E+03	1.423613E-02	7.169080E-05
5.983136E+03	1.399055E-02	7.013971E-05
5.993091E+03	1.374428E-02	6.859084E-05
6.003046E+03	1.349755E-02	6.704683E-05
6.013002E+03	1.325006E-02	6.550774E-05
6.022957E+03	1.300054E-02	6.396873E-05
6.032912E+03	1.274756E-02	6.242439E-05
6.042868E+03	1.248966E-02	6.086926E-05
6.052823E+03	1.222689E-02	5.930527E-05
6.062778E+03	1.195949E-02	5.773517E-05
6.072733E+03	1.168992E-02	5.617231E-05
6.082689E+03	1.142279E-02	5.464001E-05
6.092644E+03	1.116409E-02	5.316776E-05
6.102599E+03	1.092120E-02	5.179088E-05
6.112555E+03	1.070354E-02	5.055394E-05
6.122510E+03	1.052037E-02	4.949985E-05
6.132465E+03	1.037986E-02	4.866606E-05
6.142421E+03	1.028840E-02	4.808132E-05
6.152376E+03	1.024917E-02	4.775934E-05
6.162331E+03	1.026123E-02	4.769480E-05
6.172286E+03	1.031681E-02	4.785047E-05
6.182242E+03	1.040173E-02	4.816023E-05
6.192197E+03	1.049415E-02	4.852329E-05
6.202152E+03	1.056458E-02	4.880435E-05
6.212108E+03	1.058544E-02	4.887726E-05
6.222063E+03	1.055081E-02	4.871561E-05
6.232018E+03	1.047836E-02	4.840130E-05
6.241974E+03	1.039294E-02	4.804907E-05
6.251929E+03	1.031884E-02	4.777113E-05
6.261884E+03	1.026737E-02	4.762004E-05
6.271839E+03	1.024473E-02	4.762531E-05
6.281795E+03	1.025426E-02	4.780374E-05
6.291750E+03	1.029441E-02	4.814979E-05
6.301705E+03	1.036048E-02	4.864346E-05
6.311661E+03	1.044622E-02	4.925751E-05
6.321616E+03	1.054426E-02	4.995918E-05
6.331571E+03	1.064582E-02	5.070846E-05
6.341527E+03	1.074229E-02	5.146546E-05
6.351482E+03	1.082657E-02	5.219643E-05
6.361437E+03	1.089215E-02	5.286904E-05
6.371392E+03	1.093372E-02	5.345446E-05
6.381348E+03	1.095011E-02	5.394312E-05
6.391303E+03	1.094114E-02	5.432977E-05
6.401258E+03	1.090830E-02	5.461701E-05
6.411214E+03	1.085563E-02	5.482054E-05
6.421169E+03	1.078807E-02	5.496099E-05
6.431124E+03	1.071086E-02	5.506143E-05
6.441080E+03	1.062925E-02	5.514571E-05
6.451035E+03	1.054850E-02	5.523903E-05
6.460990E+03	1.047301E-02	5.536284E-05
6.470945E+03	1.040667E-02	5.553715E-05
6.480901E+03	1.035269E-02	5.577896E-05
6.490856E+03	1.031384E-02	5.610381E-05
6.500811E+03	1.029243E-02	5.652539E-05
6.510767E+03	1.028928E-02	5.704958E-05
6.520722E+03	1.030351E-02	5.767315E-05
6.530677E+03	1.033353E-02	5.838880E-05
6.540633E+03	1.037768E-02	5.918831E-05
6.550588E+03	1.043365E-02	6.005964E-05
6.560543E+03	1.049874E-02	6.098788E-05
6.570498E+03	1.057013E-02	6.195685E-05
6.580454E+03	1.064459E-02	6.294752E-05
6.590409E+03	1.071834E-02	6.393669E-05
6.600364E+03	1.078790E-02	6.490234E-05
6.610320E+03	1.084960E-02	6.582058E-05
6.620275E+03	1.090047E-02	6.667117E-05
6.630230E+03	1.093726E-02	6.743149E-05
6.640186E+03	1.095756E-02	6.808375E-05
6.650141E+03	1.095971E-02	6.861439E-05
6.660096E+03	1.094254E-02	6.901279E-05
6.670051E+03	1.090539E-02	6.927148E-05
6.680007E+03	1.084842E-02	6.938831E-05
6.689962E+03	1.077269E-02	6.936708E-05
6.699917E+03	1.067947E-02	6.921345E-05
6.709873E+03	1.057083E-02	6.893845E-05
6.719828E+03	1.044870E-02	6.855283E-05
6.729783E+03	1.031604E-02	6.807469E-05
6.739739E+03	1.017516E-02	6.751823E-05
6.749694E+03	1.002919E-02	6.690362E-05
6.759649E+03	9.880526E-03	6.624667E-05
6.769604E+03	9.731881E-03	6.556577E-05
6.779560E+03	9.585696E-03	6.487778E-05
6.789515E+03	9.444132E-03	6.419804E-05
6.799470E+03	9.309479E-03	6.354300E-05
6.809426E+03	9.183510E-03	6.292582E-05
6.819381E+03	9.068131E-03	6.236068E-05
6.829336E+03	8.964386E-03	6.185597E-05
6.839292E+03	8.873753E-03	6.142310E-05
6.849247E+03	8.796948E-03	6.106820E-05
6.859202E+03	8.734539E-03	6.079632E-05
6.869157E+03	8.686648E-03	6.060935E-05
6.879113E+03	8.653599E-03	6.051044E-05
6.889068E+03	8.634500E-03	6.049414E-05
6.899023E+03	8.629153E-03	6.055969E-05
6.908979E+03	8.636245E-03	6.069835E-05
6.918934E+03	8.654499E-03	6.090150E-05
6.928889E+03	8.682581E-03	6.115994E-05
6.938845E+03	8.718625E-03	6.146061E-05
6.948800E+03	8.760708E-03	6.178995E-05
6.958755E+03	8.806778E-03	6.213340E-05
6.968710E+03	8.854699E-03	6.247577E-05
6.978666E+03	8.902243E-03	6.280119E-05
6.988621E+03	8.947028E-03	6.309275E-05
6.998576E+03	8.987270E-03	6.333780E-05
7.008532E+03	9.020414E-03	6.351837E-05
7.018487E+03	9.045159E-03	6.362544E-05
7.028442E+03	9.059402E-03	6.364446E-05
7.038398E+03	9.062186E-03	6.356914E-05
7.048353E+03	9.052408E-03	6.339230E-05
7.058308E+03	9.029585E-03	6.311129E-05
7.068263E+03	8.993845E-03	6.272787E-05
7.078219E+03	8.945316E-03	6.224392E-05
7.088174E+03	8.885205E-03	6.166891E-05
7.098129E+03	8.814832E-03	6.101314E-05
7.108085E+03	8.736293E-03	6.029223E-05
7.118040E+03	8.651754E-03	5.952222E-05
7.127995E+03	8.563262E-03	5.871819E-05
7.137951E+03	8.473196E-03	5.789733E-05
7.147906E+03	8.383242E-03	5.707194E-05
7.157861E+03	8.295391E-03	5.625619E-05
7.167817E+03	8.210798E-03	5.545841E-05
7.177772E+03	8.130291E-03	5.468456E-05
7.187727E+03	8.054579E-03	5.393974E-05
7.197682E+03	7.983901E-03	5.322576E-05
7.207638E+03	7.918094E-03	5.254174E-05
7.217593E+03	7.856923E-03	5.188631E-05
7.227548E+03	7.800022E-03	5.125726E-05
7.237504E+03	7.746960E-03	5.065198E-05
7.247459E+03	7.697253E-03	5.006759E-05
7.257414E+03	7.650122E-03	4.949931E-05
7.267370E+03	7.605458E-03	4.894683E-05
7.277325E+03	7.562662E-03	4.840669E-05
7.287280E+03	7.521215E-03	4.787602E-05
7.297235E+03	7.480976E-03	4.735444E-05
7.307191E+03	7.441286E-03	4.683832E-05
7.317146E+03	7.401872E-03	4.632656E-05
7.327101E+03	7.362487E-03	4.581824E-05
7.337057E+03	7.322596E-03	4.531071E-05
7.347012E+03	7.282027E-03	4.480366E-05
7.356967E+03	7.240068E-03	4.429345E-05
7.366923E+03	7.196654E-03	4.378051E-05
7.376878E+03	7.151221E-03	4.326223E-05
7.386833E+03	7.103763E-03	4.273944E-05
7.396788E+03	7.053848E-03	4.221039E-05
7.406744E+03	7.001318E-03	4.167500E-05
7.416699E+03	6.946355E-03	4.113520E-05
7.426654E+03	6.888831E-03	4.059104E-05
7.436610E+03	6.829373E-03	4.004695E-05
7.446565E+03	6.768016E-03	3.950382E-05
7.456520E+03	6.705492E-03	3.896608E-05
7.466476E+03	6.642224E-03	3.843587E-05
7.476431E+03	6.579331E-03	3.791930E-05
7.486386E+03	6.517477E-03	3.741973E-05
7.496341E+03	6.457583E-03	3.694197E-05
7.506297E+03	6.400697E-03	3.649150E-05
7.516252E+03	6.347441E-03	3.607131E-05
7.526207E+03	6.298624E-03	3.568547E-05
7.536163E+03	6.254291E-03	3.533368E-05
7.546118E+03	6.214297E-03	3.501466E-05
7.556073E+03	6.178300E-03	3.472605E-05
7.566029E+03	6.145667E-03	3.446391E-05
7.575984E+03	6.116107E-03	3.422630E-05
7.585939E+03	6.089046E-03	3.400978E-05
7.595894E+03	6.063821E-03	3.381043E-05
7.605850E+03	6.039335E-03	3.362198E-05
7.615805E+03	6.015267E-03	3.344258E-05
7.625760E+03	5.990969E-03	3.326854E-05
7.635716E+03	5.966637E-03	3.310093E-05
7.645671E+03	5.942063E-03	3.293859E-05
7.655626E+03	5.917705E-03	3.278406E-05
7.665582E+03	5.893741E-03	3.263837E-05
7.675537E+03	5.870577E-03	3.250380E-05
7.685492E+03	5.848661E-03	3.238291E-05
7.695447E+03	5.828471E-03	3.227845E-05
7.705403E+03	5.810452E-03	3.219302E-05
7.715358E+03	5.794814E-03	3.212794E-05
7.725313E+03	5.782045E-03	3.208615E-05
