#wls	flux	fluxerr
1.592848E+03	1.358171E-03	2.674649E-05
1.632669E+03	1.385375E-03	2.718445E-05
1.672491E+03	1.414784E-03	2.765924E-05
1.712312E+03	1.446438E-03	2.817099E-05
1.752133E+03	1.480507E-03	2.872225E-05
1.791954E+03	1.517278E-03	2.931780E-05
1.831775E+03	1.556522E-03	2.995239E-05
1.871597E+03	1.598649E-03	3.063298E-05
1.911418E+03	1.643680E-03	3.135899E-05
1.951239E+03	1.691643E-03	3.212992E-05
1.991060E+03	1.742451E-03	3.294303E-05
2.030881E+03	1.796147E-03	3.379806E-05
2.070703E+03	1.852551E-03	3.469046E-05
2.110524E+03	1.911273E-03	3.561185E-05
2.150345E+03	1.972302E-03	3.656093E-05
2.190166E+03	2.035196E-03	3.752848E-05
2.229987E+03	2.099669E-03	3.850824E-05
2.269809E+03	2.165698E-03	3.949885E-05
2.309630E+03	2.233514E-03	4.050351E-05
2.349451E+03	2.303698E-03	4.153167E-05
2.389272E+03	2.376963E-03	4.259480E-05
2.429093E+03	2.454042E-03	4.370443E-05
2.468915E+03	2.536020E-03	4.487788E-05
2.508736E+03	2.623700E-03	4.612701E-05
2.548557E+03	2.718150E-03	4.746786E-05
2.588378E+03	2.820198E-03	4.891164E-05
2.628199E+03	2.930862E-03	5.047244E-05
2.668021E+03	3.051066E-03	5.216205E-05
2.707842E+03	3.181863E-03	5.399387E-05
2.747663E+03	3.324456E-03	5.598316E-05
2.787484E+03	3.480117E-03	5.814556E-05
2.827305E+03	3.650305E-03	6.049893E-05
2.867127E+03	3.836889E-03	6.306691E-05
2.906948E+03	4.041738E-03	6.587190E-05
2.946769E+03	4.267441E-03	6.894667E-05
2.986590E+03	4.516457E-03	7.232017E-05
2.996546E+03	4.582805E-03	7.321605E-05
3.006501E+03	4.650764E-03	7.413212E-05
3.016456E+03	4.720365E-03	7.506862E-05
3.026411E+03	4.791855E-03	7.602930E-05
3.036367E+03	4.865156E-03	7.701269E-05
3.046322E+03	4.940299E-03	7.801901E-05
3.056277E+03	5.017421E-03	7.905020E-05
3.066233E+03	5.096443E-03	8.010478E-05
3.076188E+03	5.177384E-03	8.118279E-05
3.086143E+03	5.260485E-03	8.228776E-05
3.096099E+03	5.345546E-03	8.341628E-05
3.106054E+03	5.432687E-03	8.456995E-05
3.116009E+03	5.521806E-03	8.574694E-05
3.125964E+03	5.613238E-03	8.695216E-05
3.135920E+03	5.706641E-03	8.818005E-05
3.145875E+03	5.802114E-03	8.943183E-05
3.155830E+03	5.899740E-03	9.070853E-05
3.165786E+03	5.999495E-03	9.200949E-05
3.175741E+03	6.101097E-03	9.333010E-05
3.185696E+03	6.204832E-03	9.467448E-05
3.195652E+03	6.310390E-03	9.603761E-05
3.205607E+03	6.417797E-03	9.741963E-05
3.215562E+03	6.526816E-03	9.881672E-05
3.225517E+03	6.637430E-03	1.002284E-04
3.235473E+03	6.749476E-03	1.016519E-04
3.245428E+03	6.862774E-03	1.030844E-04
3.255383E+03	6.976981E-03	1.045205E-04
3.265339E+03	7.091968E-03	1.059582E-04
3.275294E+03	7.207451E-03	1.073930E-04
3.285249E+03	7.322994E-03	1.088185E-04
3.295205E+03	7.438350E-03	1.102309E-04
3.305160E+03	7.553003E-03	1.116226E-04
3.315115E+03	7.666624E-03	1.129887E-04
3.325070E+03	7.778604E-03	1.143204E-04
3.335026E+03	7.888408E-03	1.156100E-04
3.344981E+03	7.995459E-03	1.168494E-04
3.354936E+03	8.099127E-03	1.180297E-04
3.364892E+03	8.198758E-03	1.191417E-04
3.374847E+03	8.293524E-03	1.201739E-04
3.384802E+03	8.382816E-03	1.211181E-04
3.394758E+03	8.465641E-03	1.219607E-04
3.404713E+03	8.541474E-03	1.226949E-04
3.414668E+03	8.609302E-03	1.233071E-04
3.424623E+03	8.668368E-03	1.237874E-04
3.434579E+03	8.717948E-03	1.241267E-04
3.444534E+03	8.757228E-03	1.243145E-04
3.454489E+03	8.785706E-03	1.243452E-04
3.464445E+03	8.802719E-03	1.242107E-04
3.474400E+03	8.807717E-03	1.239047E-04
3.484355E+03	8.800384E-03	1.234244E-04
3.494311E+03	8.780450E-03	1.227677E-04
3.504266E+03	8.748022E-03	1.219375E-04
3.514221E+03	8.702966E-03	1.209338E-04
3.524176E+03	8.645783E-03	1.197651E-04
3.534132E+03	8.576978E-03	1.184401E-04
3.544087E+03	8.497375E-03	1.169715E-04
3.554042E+03	8.407842E-03	1.153728E-04
3.563998E+03	8.309572E-03	1.136615E-04
3.573953E+03	8.204187E-03	1.118611E-04
3.583908E+03	8.093151E-03	1.099924E-04
3.593864E+03	7.978526E-03	1.080841E-04
3.603819E+03	7.862369E-03	1.061645E-04
3.613774E+03	7.746739E-03	1.042616E-04
3.623729E+03	7.633855E-03	1.024050E-04
3.633685E+03	7.526023E-03	1.006254E-04
3.643640E+03	7.425359E-03	9.895025E-05
3.653595E+03	7.334166E-03	9.740924E-05
3.663551E+03	7.254343E-03	9.602630E-05
3.673506E+03	7.187942E-03	9.482700E-05
3.683461E+03	7.136833E-03	9.383415E-05
3.693417E+03	7.102849E-03	9.306977E-05
3.703372E+03	7.087569E-03	9.255218E-05
3.713327E+03	7.092607E-03	9.229989E-05
3.723282E+03	7.119394E-03	9.232875E-05
3.733238E+03	7.169321E-03	9.265381E-05
3.743193E+03	7.243568E-03	9.328716E-05
3.753148E+03	7.343242E-03	9.423971E-05
3.763104E+03	7.469192E-03	9.551890E-05
3.773059E+03	7.622028E-03	9.712891E-05
3.783014E+03	7.802277E-03	9.907280E-05
3.792970E+03	8.009722E-03	1.013441E-04
3.802925E+03	8.243974E-03	1.039342E-04
3.812880E+03	8.504088E-03	1.068276E-04
3.822835E+03	8.788217E-03	1.099975E-04
3.832791E+03	9.093921E-03	1.134104E-04
3.842746E+03	9.418019E-03	1.170237E-04
3.852701E+03	9.756408E-03	1.207842E-04
3.862657E+03	1.010412E-02	1.246285E-04
3.872612E+03	1.045532E-02	1.284838E-04
3.882567E+03	1.080369E-02	1.322721E-04
3.892523E+03	1.114236E-02	1.359102E-04
3.902478E+03	1.146430E-02	1.393137E-04
3.912433E+03	1.176254E-02	1.424009E-04
3.922388E+03	1.203059E-02	1.450967E-04
3.932344E+03	1.226285E-02	1.473377E-04
3.942299E+03	1.245465E-02	1.490734E-04
3.952254E+03	1.260252E-02	1.502677E-04
3.962210E+03	1.270477E-02	1.509067E-04
3.972165E+03	1.276089E-02	1.509907E-04
3.982120E+03	1.277212E-02	1.505406E-04
3.992076E+03	1.274102E-02	1.495927E-04
4.002031E+03	1.267121E-02	1.481952E-04
4.011986E+03	1.256754E-02	1.464098E-04
4.021941E+03	1.243509E-02	1.443004E-04
4.031897E+03	1.227945E-02	1.419355E-04
4.041852E+03	1.210614E-02	1.393817E-04
4.051807E+03	1.192047E-02	1.367023E-04
4.061763E+03	1.172735E-02	1.339555E-04
4.071718E+03	1.153130E-02	1.311933E-04
4.081673E+03	1.133602E-02	1.284583E-04
4.091629E+03	1.114466E-02	1.257860E-04
4.101584E+03	1.095995E-02	1.232064E-04
4.111539E+03	1.078361E-02	1.207381E-04
4.121494E+03	1.061710E-02	1.183960E-04
4.131450E+03	1.046127E-02	1.161884E-04
4.141405E+03	1.031656E-02	1.141188E-04
4.151360E+03	1.018306E-02	1.121866E-04
4.161316E+03	1.006061E-02	1.103886E-04
4.171271E+03	9.948863E-03	1.087195E-04
4.181226E+03	9.847386E-03	1.071733E-04
4.191182E+03	9.755720E-03	1.057435E-04
4.201137E+03	9.673447E-03	1.044244E-04
4.211092E+03	9.600172E-03	1.032106E-04
4.221047E+03	9.535710E-03	1.020989E-04
4.231003E+03	9.480126E-03	1.010889E-04
4.240958E+03	9.433541E-03	1.001807E-04
4.250913E+03	9.396047E-03	9.937423E-05
4.260869E+03	9.368056E-03	9.867257E-05
4.270824E+03	9.349939E-03	9.807849E-05
4.280779E+03	9.342029E-03	9.759425E-05
4.290735E+03	9.344558E-03	9.722099E-05
4.300690E+03	9.357487E-03	9.695704E-05
4.310645E+03	9.380744E-03	9.680041E-05
4.320601E+03	9.413571E-03	9.674208E-05
4.330556E+03	9.455198E-03	9.677303E-05
4.340511E+03	9.504348E-03	9.687925E-05
4.350466E+03	9.559658E-03	9.704605E-05
4.360422E+03	9.619796E-03	9.725926E-05
4.370377E+03	9.684227E-03	9.751302E-05
4.380332E+03	9.753925E-03	9.781665E-05
4.390288E+03	9.831580E-03	9.819647E-05
4.400243E+03	9.920287E-03	9.868242E-05
4.410198E+03	1.002299E-02	9.930245E-05
4.420154E+03	1.014226E-02	1.000803E-04
4.430109E+03	1.027961E-02	1.010293E-04
4.440064E+03	1.043563E-02	1.021529E-04
4.450019E+03	1.060984E-02	1.034447E-04
4.459975E+03	1.080031E-02	1.048837E-04
4.469930E+03	1.100419E-02	1.064410E-04
4.479885E+03	1.121741E-02	1.080760E-04
4.489841E+03	1.143477E-02	1.097379E-04
4.499796E+03	1.165026E-02	1.113691E-04
4.509751E+03	1.185724E-02	1.129069E-04
4.519707E+03	1.204869E-02	1.142859E-04
4.529662E+03	1.221757E-02	1.154415E-04
4.539617E+03	1.235708E-02	1.163126E-04
4.549572E+03	1.246119E-02	1.168459E-04
4.559528E+03	1.252545E-02	1.170039E-04
4.569483E+03	1.254642E-02	1.167589E-04
4.579438E+03	1.252262E-02	1.161020E-04
4.589394E+03	1.245479E-02	1.150447E-04
4.599349E+03	1.234544E-02	1.136145E-04
4.609304E+03	1.219844E-02	1.118513E-04
4.619260E+03	1.201980E-02	1.098137E-04
4.629215E+03	1.181563E-02	1.075601E-04
4.639170E+03	1.159315E-02	1.051586E-04
4.649125E+03	1.135913E-02	1.026720E-04
4.659081E+03	1.111981E-02	1.001574E-04
4.669036E+03	1.088045E-02	9.766200E-05
4.678991E+03	1.064501E-02	9.522126E-05
4.688947E+03	1.041612E-02	9.285800E-05
4.698902E+03	1.019437E-02	9.057658E-05
4.708857E+03	9.978653E-03	8.836638E-05
4.718813E+03	9.766249E-03	8.620259E-05
4.728768E+03	9.552646E-03	8.404491E-05
4.738723E+03	9.332808E-03	8.184893E-05
4.748678E+03	9.101064E-03	7.956520E-05
4.758634E+03	8.853833E-03	7.716315E-05
4.768589E+03	8.591875E-03	7.465024E-05
4.778544E+03	8.321735E-03	7.208395E-05
4.788500E+03	8.052554E-03	6.954347E-05
4.798455E+03	7.792893E-03	6.710204E-05
4.808410E+03	7.549405E-03	6.481571E-05
4.818366E+03	7.327031E-03	6.272518E-05
4.828321E+03	7.128782E-03	6.085428E-05
4.838276E+03	6.956044E-03	5.921278E-05
4.848231E+03	6.809042E-03	5.780049E-05
4.858187E+03	6.687126E-03	5.660989E-05
4.868142E+03	6.588850E-03	5.562682E-05
4.878097E+03	6.512472E-03	5.483486E-05
4.888053E+03	6.455812E-03	5.421406E-05
4.898008E+03	6.416808E-03	5.374576E-05
4.907963E+03	6.393391E-03	5.341141E-05
4.917919E+03	6.383588E-03	5.319349E-05
4.927874E+03	6.385770E-03	5.307755E-05
4.937829E+03	6.398438E-03	5.305034E-05
4.947784E+03	6.420485E-03	5.310204E-05
4.957740E+03	6.450943E-03	5.322406E-05
4.967695E+03	6.489154E-03	5.341045E-05
4.977650E+03	6.534617E-03	5.365664E-05
4.987606E+03	6.587205E-03	5.396114E-05
4.997561E+03	6.646598E-03	5.432093E-05
5.007516E+03	6.712678E-03	5.473466E-05
5.017472E+03	6.785384E-03	5.520148E-05
5.027427E+03	6.864470E-03	5.571901E-05
5.037382E+03	6.949723E-03	5.628522E-05
5.047337E+03	7.040871E-03	5.689758E-05
5.057293E+03	7.137661E-03	5.755376E-05
5.067248E+03	7.239819E-03	5.825130E-05
5.077203E+03	7.347174E-03	5.898855E-05
5.087159E+03	7.459575E-03	5.976409E-05
5.097114E+03	7.576582E-03	6.057416E-05
5.107069E+03	7.697979E-03	6.141685E-05
5.117025E+03	7.823055E-03	6.228633E-05
5.126980E+03	7.951401E-03	6.317920E-05
5.136935E+03	8.082263E-03	6.408935E-05
5.146890E+03	8.214861E-03	6.501055E-05
5.156846E+03	8.348325E-03	6.593589E-05
5.166801E+03	8.481573E-03	6.685683E-05
5.176756E+03	8.613449E-03	6.776434E-05
5.186712E+03	8.742552E-03	6.864753E-05
5.196667E+03	8.867588E-03	6.949642E-05
5.206622E+03	8.986690E-03	7.029663E-05
5.216578E+03	9.098242E-03	7.103584E-05
5.226533E+03	9.200522E-03	7.170101E-05
5.236488E+03	9.291878E-03	7.227972E-05
5.246443E+03	9.370615E-03	7.275930E-05
5.256399E+03	9.435540E-03	7.313108E-05
5.266354E+03	9.485552E-03	7.338713E-05
5.276309E+03	9.519981E-03	7.352291E-05
5.286265E+03	9.538359E-03	7.353548E-05
5.296220E+03	9.540715E-03	7.342570E-05
5.306175E+03	9.527080E-03	7.319445E-05
5.316131E+03	9.497932E-03	7.284604E-05
5.326086E+03	9.453921E-03	7.238603E-05
5.336041E+03	9.396180E-03	7.182365E-05
5.345996E+03	9.325720E-03	7.116711E-05
5.355952E+03	9.244182E-03	7.042937E-05
5.365907E+03	9.153256E-03	6.962369E-05
5.375862E+03	9.054775E-03	6.876427E-05
5.385818E+03	8.950433E-03	6.786423E-05
5.395773E+03	8.842062E-03	6.693760E-05
5.405728E+03	8.731341E-03	6.599718E-05
5.415684E+03	8.619337E-03	6.505106E-05
5.425639E+03	8.507147E-03	6.410752E-05
5.435594E+03	8.395201E-03	6.316976E-05
5.445549E+03	8.283676E-03	6.223907E-05
5.455505E+03	8.172741E-03	6.131666E-05
5.465460E+03	8.061857E-03	6.039839E-05
5.475415E+03	7.951028E-03	5.948417E-05
5.485371E+03	7.840849E-03	5.857838E-05
5.495326E+03	7.732197E-03	5.768744E-05
5.505281E+03	7.625204E-03	5.681221E-05
5.515237E+03	7.519988E-03	5.595342E-05
5.525192E+03	7.416443E-03	5.511018E-05
5.535147E+03	7.314836E-03	5.428433E-05
5.545102E+03	7.215401E-03	5.347749E-05
5.555058E+03	7.118823E-03	5.269460E-05
5.565013E+03	7.026011E-03	5.194225E-05
5.574968E+03	6.938257E-03	5.122980E-05
5.584924E+03	6.856822E-03	5.056637E-05
5.594879E+03	6.783191E-03	4.996268E-05
5.604834E+03	6.718873E-03	4.942957E-05
5.614790E+03	6.665250E-03	4.897692E-05
5.624745E+03	6.623649E-03	4.861417E-05
5.634700E+03	6.595091E-03	4.834844E-05
5.644655E+03	6.580526E-03	4.818636E-05
5.654611E+03	6.580660E-03	4.813273E-05
5.664566E+03	6.595857E-03	4.818981E-05
5.674521E+03	6.626200E-03	4.835786E-05
5.684477E+03	6.671468E-03	4.863490E-05
5.694432E+03	6.731265E-03	4.901771E-05
5.704387E+03	6.804602E-03	4.949874E-05
5.714343E+03	6.890443E-03	5.007020E-05
5.724298E+03	6.987321E-03	5.072117E-05
5.734253E+03	7.093405E-03	5.143816E-05
5.744209E+03	7.206790E-03	5.220719E-05
5.754164E+03	7.325445E-03	5.301347E-05
5.764119E+03	7.447037E-03	5.384005E-05
5.774074E+03	7.569157E-03	5.466951E-05
5.784030E+03	7.689472E-03	5.548508E-05
5.793985E+03	7.805272E-03	5.626731E-05
5.803940E+03	7.914139E-03	5.699894E-05
5.813896E+03	8.013712E-03	5.766318E-05
5.823851E+03	8.101838E-03	5.824478E-05
5.833806E+03	8.176691E-03	5.873094E-05
5.843762E+03	8.236471E-03	5.910902E-05
5.853717E+03	8.280080E-03	5.937149E-05
5.863672E+03	8.306506E-03	5.951145E-05
5.873627E+03	8.315238E-03	5.952561E-05
5.883583E+03	8.306143E-03	5.941334E-05
5.893538E+03	8.279434E-03	5.917651E-05
5.903493E+03	8.235788E-03	5.882029E-05
5.913449E+03	8.175882E-03	5.834978E-05
5.923404E+03	8.100818E-03	5.777314E-05
5.933359E+03	8.012043E-03	5.710090E-05
5.943315E+03	7.911075E-03	5.634406E-05
5.953270E+03	7.799368E-03	5.551316E-05
5.963225E+03	7.678875E-03	5.462221E-05
5.973180E+03	7.551179E-03	5.368257E-05
5.983136E+03	7.418459E-03	5.270977E-05
5.993091E+03	7.282421E-03	5.171597E-05
6.003046E+03	7.145080E-03	5.071546E-05
6.013002E+03	7.008527E-03	4.972305E-05
6.022957E+03	6.874687E-03	4.875235E-05
6.032912E+03	6.745538E-03	4.781731E-05
6.042868E+03	6.622830E-03	4.693025E-05
6.052823E+03	6.508540E-03	4.610508E-05
6.062778E+03	6.404164E-03	4.535230E-05
6.072733E+03	6.311465E-03	4.468430E-05
6.082689E+03	6.231819E-03	4.411074E-05
6.092644E+03	6.166404E-03	4.363985E-05
6.102599E+03	6.116202E-03	4.327855E-05
6.112555E+03	6.081918E-03	4.303177E-05
6.122510E+03	6.063619E-03	4.289997E-05
6.132465E+03	6.060852E-03	4.287998E-05
6.142421E+03	6.072566E-03	4.296437E-05
6.152376E+03	6.096509E-03	4.313731E-05
6.162331E+03	6.129666E-03	4.337754E-05
6.172286E+03	6.167924E-03	4.365601E-05
6.182242E+03	6.206129E-03	4.393627E-05
6.192197E+03	6.238074E-03	4.417436E-05
6.202152E+03	6.257280E-03	4.432432E-05
6.212108E+03	6.258295E-03	4.434743E-05
6.222063E+03	6.239238E-03	4.423017E-05
6.232018E+03	6.203117E-03	4.399364E-05
6.241974E+03	6.154805E-03	4.367220E-05
6.251929E+03	6.099528E-03	4.330272E-05
6.261884E+03	6.041912E-03	4.291791E-05
6.271839E+03	5.985733E-03	4.254450E-05
6.281795E+03	5.933839E-03	4.220267E-05
6.291750E+03	5.888045E-03	4.190532E-05
6.301705E+03	5.849115E-03	4.165791E-05
6.311661E+03	5.817295E-03	4.146223E-05
6.321616E+03	5.792315E-03	4.131641E-05
6.331571E+03	5.773399E-03	4.121497E-05
6.341527E+03	5.759864E-03	4.115309E-05
6.351482E+03	5.750844E-03	4.112464E-05
6.361437E+03	5.745527E-03	4.112381E-05
6.371392E+03	5.743223E-03	4.114569E-05
6.381348E+03	5.743551E-03	4.118752E-05
6.391303E+03	5.746028E-03	4.124582E-05
6.401258E+03	5.750549E-03	4.131982E-05
6.411214E+03	5.756907E-03	4.140801E-05
6.421169E+03	5.764943E-03	4.150922E-05
6.431124E+03	5.774537E-03	4.162256E-05
6.441080E+03	5.785413E-03	4.174601E-05
6.451035E+03	5.797234E-03	4.187711E-05
6.460990E+03	5.809230E-03	4.201026E-05
6.470945E+03	5.820766E-03	4.214080E-05
6.480901E+03	5.830814E-03	4.226122E-05
6.490856E+03	5.838106E-03	4.236221E-05
6.500811E+03	5.841659E-03	4.243652E-05
6.510767E+03	5.841197E-03	4.248198E-05
6.520722E+03	5.837459E-03	4.250382E-05
6.530677E+03	5.831420E-03	4.250899E-05
6.540633E+03	5.824021E-03	4.250428E-05
6.550588E+03	5.815806E-03	4.249355E-05
6.560543E+03	5.807152E-03	4.247949E-05
6.570498E+03	5.798312E-03	4.246389E-05
6.580454E+03	5.789198E-03	4.244607E-05
6.590409E+03	5.779432E-03	4.242317E-05
6.600364E+03	5.768645E-03	4.239244E-05
6.610320E+03	5.756170E-03	4.234891E-05
6.620275E+03	5.741554E-03	4.228913E-05
6.630230E+03	5.723950E-03	4.220679E-05
6.640186E+03	5.702730E-03	4.209713E-05
6.650141E+03	5.677469E-03	4.195688E-05
6.660096E+03	5.647779E-03	4.178305E-05
6.670051E+03	5.613353E-03	4.157324E-05
6.680007E+03	5.574212E-03	4.132744E-05
6.689962E+03	5.530668E-03	4.104786E-05
6.699917E+03	5.483023E-03	4.073660E-05
6.709873E+03	5.431947E-03	4.039854E-05
6.719828E+03	5.377930E-03	4.003724E-05
6.729783E+03	5.321920E-03	3.965970E-05
6.739739E+03	5.264524E-03	3.927039E-05
6.749694E+03	5.206722E-03	3.887659E-05
6.759649E+03	5.149076E-03	3.848249E-05
6.769604E+03	5.092376E-03	3.809403E-05
6.779560E+03	5.037233E-03	3.771578E-05
6.789515E+03	4.984087E-03	3.735109E-05
6.799470E+03	4.933466E-03	3.700396E-05
6.809426E+03	4.885613E-03	3.667628E-05
6.819381E+03	4.840869E-03	3.637068E-05
6.829336E+03	4.799188E-03	3.608685E-05
6.839292E+03	4.760823E-03	3.582679E-05
6.849247E+03	4.725683E-03	3.558988E-05
6.859202E+03	4.693754E-03	3.537607E-05
6.869157E+03	4.664897E-03	3.518438E-05
6.879113E+03	4.639212E-03	3.501562E-05
6.889068E+03	4.616338E-03	3.486714E-05
6.899023E+03	4.596423E-03	3.474010E-05
6.908979E+03	4.579098E-03	3.463176E-05
6.918934E+03	4.564106E-03	3.454023E-05
6.928889E+03	4.551229E-03	3.446389E-05
6.938845E+03	4.540023E-03	3.439944E-05
6.948800E+03	4.530115E-03	3.434407E-05
6.958755E+03	4.521125E-03	3.429492E-05
6.968710E+03	4.512677E-03	3.424916E-05
6.978666E+03	4.504429E-03	3.420422E-05
6.988621E+03	4.495960E-03	3.415693E-05
6.998576E+03	4.487145E-03	3.410632E-05
7.008532E+03	4.477420E-03	3.404813E-05
7.018487E+03	4.466784E-03	3.398237E-05
7.028442E+03	4.454750E-03	3.390533E-05
7.038398E+03	4.441341E-03	3.381719E-05
7.048353E+03	4.426387E-03	3.371667E-05
7.058308E+03	4.409840E-03	3.360342E-05
7.068263E+03	4.391808E-03	3.347826E-05
7.078219E+03	4.372174E-03	3.334032E-05
7.088174E+03	4.351118E-03	3.319099E-05
7.098129E+03	4.328679E-03	3.303058E-05
7.108085E+03	4.305091E-03	3.286090E-05
7.118040E+03	4.280506E-03	3.268312E-05
7.127995E+03	4.254990E-03	3.249779E-05
7.137951E+03	4.228778E-03	3.230671E-05
7.147906E+03	4.201822E-03	3.210956E-05
7.157861E+03	4.174404E-03	3.190852E-05
7.167817E+03	4.146528E-03	3.170364E-05
7.177772E+03	4.118174E-03	3.149481E-05
7.187727E+03	4.089489E-03	3.128318E-05
7.197682E+03	4.060540E-03	3.106931E-05
7.207638E+03	4.031360E-03	3.085346E-05
7.217593E+03	4.002167E-03	3.063735E-05
7.227548E+03	3.973207E-03	3.042289E-05
7.237504E+03	3.944727E-03	3.021203E-05
7.247459E+03	3.916938E-03	3.000639E-05
7.257414E+03	3.889851E-03	2.980612E-05
7.267370E+03	3.863756E-03	2.961347E-05
7.277325E+03	3.838667E-03	2.942858E-05
7.287280E+03	3.814558E-03	2.925131E-05
7.297235E+03	3.791530E-03	2.908246E-05
7.307191E+03	3.769421E-03	2.892084E-05
7.317146E+03	3.748200E-03	2.876624E-05
7.327101E+03	3.727797E-03	2.861817E-05
7.337057E+03	3.708042E-03	2.847537E-05
7.347012E+03	3.688895E-03	2.833757E-05
7.356967E+03	3.669986E-03	2.820196E-05
7.366923E+03	3.651343E-03	2.806880E-05
7.376878E+03	3.632703E-03	2.793609E-05
7.386833E+03	3.614098E-03	2.780414E-05
7.396788E+03	3.595502E-03	2.767276E-05
7.406744E+03	3.577038E-03	2.754294E-05
7.416699E+03	3.558948E-03	2.741658E-05
7.426654E+03	3.541360E-03	2.729470E-05
7.436610E+03	3.524714E-03	2.718073E-05
7.446565E+03	3.509054E-03	2.707507E-05
7.456520E+03	3.494706E-03	2.698027E-05
7.466476E+03	3.481723E-03	2.689679E-05
7.476431E+03	3.470408E-03	2.682699E-05
7.486386E+03	3.460702E-03	2.677045E-05
7.496341E+03	3.452546E-03	2.672677E-05
7.506297E+03	3.445879E-03	2.669549E-05
7.516252E+03	3.440473E-03	2.667489E-05
7.526207E+03	3.436153E-03	2.666366E-05
7.536163E+03	3.432323E-03	2.665720E-05
7.546118E+03	3.428495E-03	2.665174E-05
7.556073E+03	3.424054E-03	2.664251E-05
7.566029E+03	3.418122E-03	2.662269E-05
7.575984E+03	3.409965E-03	2.658653E-05
7.585939E+03	3.398984E-03	2.652931E-05
7.595894E+03	3.385470E-03	2.645324E-05
7.605850E+03	3.369762E-03	2.636094E-05
7.615805E+03	3.352541E-03	2.625766E-05
7.625760E+03	3.334126E-03	2.614588E-05
7.635716E+03	3.315067E-03	2.602988E-05
7.645671E+03	3.295544E-03	2.591107E-05
7.655626E+03	3.275990E-03	2.579283E-05
7.665582E+03	3.256579E-03	2.567654E-05
7.675537E+03	3.237525E-03	2.556389E-05
7.685492E+03	3.219006E-03	2.545631E-05
7.695447E+03	3.201169E-03	2.535498E-05
7.705403E+03	3.184117E-03	2.526075E-05
7.715358E+03	3.167828E-03	2.517346E-05
7.725313E+03	3.152443E-03	2.509429E-05
