#wls	flux	fluxerr
1.592848E+03	1.079336E-03	3.658263E-05
1.632669E+03	1.097524E-03	3.702047E-05
1.672491E+03	1.117291E-03	3.750112E-05
1.712312E+03	1.138653E-03	3.802397E-05
1.752133E+03	1.161724E-03	3.859166E-05
1.791954E+03	1.186709E-03	3.920974E-05
1.831775E+03	1.213409E-03	3.987029E-05
1.871597E+03	1.242121E-03	4.058160E-05
1.911418E+03	1.272838E-03	4.134194E-05
1.951239E+03	1.305556E-03	4.214957E-05
1.991060E+03	1.340185E-03	4.299990E-05
2.030881E+03	1.376733E-03	4.389152E-05
2.070703E+03	1.415038E-03	4.481753E-05
2.110524E+03	1.454777E-03	4.576616E-05
2.150345E+03	1.495922E-03	4.673491E-05
2.190166E+03	1.538115E-03	4.771118E-05
2.229987E+03	1.581121E-03	4.868636E-05
2.269809E+03	1.624903E-03	4.965810E-05
2.309630E+03	1.669613E-03	5.062978E-05
2.349451E+03	1.715660E-03	5.161236E-05
2.389272E+03	1.763540E-03	5.261891E-05
2.429093E+03	1.813753E-03	5.366215E-05
2.468915E+03	1.867044E-03	5.476139E-05
2.508736E+03	1.923932E-03	5.592854E-05
2.548557E+03	1.985112E-03	5.717996E-05
2.588378E+03	2.051080E-03	5.852539E-05
2.628199E+03	2.122443E-03	5.997721E-05
2.668021E+03	2.199711E-03	6.154409E-05
2.707842E+03	2.283445E-03	6.323554E-05
2.747663E+03	2.374267E-03	6.506184E-05
2.787484E+03	2.472787E-03	6.703206E-05
2.827305E+03	2.579668E-03	6.915582E-05
2.867127E+03	2.695763E-03	7.144675E-05
2.906948E+03	2.821794E-03	7.391383E-05
2.946769E+03	2.958822E-03	7.657364E-05
2.986590E+03	3.107592E-03	7.943315E-05
2.996546E+03	3.146795E-03	8.018220E-05
3.006501E+03	3.186742E-03	8.094291E-05
3.016456E+03	3.227430E-03	8.171507E-05
3.026411E+03	3.269003E-03	8.250205E-05
3.036367E+03	3.311385E-03	8.330170E-05
3.046322E+03	3.354567E-03	8.411356E-05
3.056277E+03	3.398610E-03	8.493894E-05
3.066233E+03	3.443433E-03	8.577559E-05
3.076188E+03	3.489018E-03	8.662284E-05
3.086143E+03	3.535488E-03	8.748349E-05
3.096099E+03	3.582677E-03	8.835319E-05
3.106054E+03	3.630625E-03	8.923277E-05
3.116009E+03	3.679224E-03	9.011930E-05
3.125964E+03	3.728657E-03	9.101711E-05
3.135920E+03	3.778654E-03	9.191932E-05
3.145875E+03	3.829235E-03	9.282631E-05
3.155830E+03	3.880410E-03	9.373812E-05
3.165786E+03	3.932113E-03	9.465295E-05
3.175741E+03	3.984116E-03	9.556521E-05
3.185696E+03	4.036551E-03	9.647794E-05
3.195652E+03	4.089165E-03	9.738497E-05
3.205607E+03	4.141927E-03	9.828548E-05
3.215562E+03	4.194640E-03	9.917474E-05
3.225517E+03	4.247238E-03	1.000512E-04
3.235473E+03	4.299570E-03	1.009114E-04
3.245428E+03	4.351474E-03	1.017514E-04
3.255383E+03	4.402695E-03	1.025655E-04
3.265339E+03	4.453117E-03	1.033512E-04
3.275294E+03	4.502527E-03	1.041036E-04
3.285249E+03	4.550628E-03	1.048163E-04
3.295205E+03	4.597254E-03	1.054857E-04
3.305160E+03	4.642082E-03	1.061047E-04
3.315115E+03	4.684916E-03	1.066695E-04
3.325070E+03	4.725401E-03	1.071725E-04
3.335026E+03	4.763256E-03	1.076079E-04
3.344981E+03	4.798185E-03	1.079698E-04
3.354936E+03	4.829892E-03	1.082524E-04
3.364892E+03	4.858074E-03	1.084497E-04
3.374847E+03	4.882370E-03	1.085546E-04
3.384802E+03	4.902574E-03	1.085637E-04
3.394758E+03	4.918270E-03	1.084689E-04
3.404713E+03	4.929362E-03	1.082693E-04
3.414668E+03	4.935491E-03	1.079582E-04
3.424623E+03	4.936491E-03	1.075335E-04
3.434579E+03	4.932218E-03	1.069935E-04
3.444534E+03	4.922522E-03	1.063364E-04
3.454489E+03	4.907433E-03	1.055642E-04
3.464445E+03	4.886913E-03	1.046778E-04
3.474400E+03	4.860980E-03	1.036790E-04
3.484355E+03	4.829794E-03	1.025727E-04
3.494311E+03	4.793533E-03	1.013641E-04
3.504266E+03	4.752578E-03	1.000628E-04
3.514221E+03	4.707159E-03	9.867482E-05
3.524176E+03	4.657848E-03	9.721343E-05
3.534132E+03	4.605192E-03	9.569108E-05
3.544087E+03	4.549877E-03	9.412296E-05
3.554042E+03	4.492594E-03	9.252406E-05
3.563998E+03	4.434154E-03	9.091159E-05
3.573953E+03	4.375546E-03	8.930610E-05
3.583908E+03	4.317558E-03	8.772368E-05
3.593864E+03	4.261041E-03	8.618144E-05
3.603819E+03	4.206716E-03	8.469350E-05
3.613774E+03	4.155276E-03	8.327315E-05
3.623729E+03	4.107505E-03	8.193527E-05
3.633685E+03	4.064248E-03	8.069559E-05
3.643640E+03	4.026258E-03	7.956778E-05
3.653595E+03	3.994417E-03	7.856773E-05
3.663551E+03	3.969426E-03	7.770745E-05
3.673506E+03	3.952080E-03	7.700056E-05
3.683461E+03	3.943119E-03	7.645927E-05
3.693417E+03	3.943278E-03	7.609542E-05
3.703372E+03	3.953178E-03	7.591843E-05
3.713327E+03	3.973492E-03	7.593844E-05
3.723282E+03	4.004790E-03	7.616338E-05
3.733238E+03	4.047641E-03	7.660096E-05
3.743193E+03	4.102506E-03	7.725663E-05
3.753148E+03	4.169799E-03	7.813481E-05
3.763104E+03	4.249787E-03	7.923701E-05
3.773059E+03	4.342608E-03	8.056221E-05
3.783014E+03	4.448333E-03	8.210816E-05
3.792970E+03	4.566616E-03	8.386491E-05
3.802925E+03	4.697031E-03	8.582116E-05
3.812880E+03	4.838878E-03	8.796079E-05
3.822835E+03	4.990976E-03	9.025927E-05
3.832791E+03	5.151887E-03	9.268789E-05
3.842746E+03	5.319836E-03	9.521242E-05
3.852701E+03	5.492619E-03	9.779168E-05
3.862657E+03	5.667688E-03	1.003792E-04
3.872612E+03	5.842189E-03	1.029242E-04
3.882567E+03	6.013149E-03	1.053747E-04
3.892523E+03	6.177410E-03	1.076767E-04
3.902478E+03	6.331858E-03	1.097782E-04
3.912433E+03	6.473476E-03	1.116299E-04
3.922388E+03	6.599519E-03	1.131885E-04
3.932344E+03	6.707712E-03	1.144196E-04
3.942299E+03	6.796214E-03	1.152969E-04
3.952254E+03	6.863681E-03	1.158034E-04
3.962210E+03	6.909632E-03	1.159370E-04
3.972165E+03	6.934018E-03	1.157028E-04
3.982120E+03	6.937515E-03	1.151183E-04
3.992076E+03	6.921356E-03	1.142096E-04
4.002031E+03	6.887169E-03	1.130090E-04
4.011986E+03	6.837109E-03	1.115566E-04
4.021941E+03	6.773403E-03	1.098931E-04
4.031897E+03	6.698509E-03	1.080620E-04
4.041852E+03	6.614826E-03	1.061048E-04
4.051807E+03	6.524660E-03	1.040607E-04
4.061763E+03	6.430152E-03	1.019656E-04
4.071718E+03	6.333296E-03	9.985215E-05
4.081673E+03	6.235720E-03	9.774643E-05
4.091629E+03	6.138849E-03	9.567094E-05
4.101584E+03	6.043965E-03	9.364533E-05
4.111539E+03	5.951884E-03	9.168166E-05
4.121494E+03	5.863358E-03	8.979070E-05
4.131450E+03	5.778878E-03	8.797901E-05
4.141405E+03	5.698762E-03	8.625030E-05
4.151360E+03	5.623183E-03	8.460604E-05
4.161316E+03	5.552221E-03	8.304624E-05
4.171271E+03	5.485872E-03	8.156962E-05
4.181226E+03	5.424091E-03	8.017434E-05
4.191182E+03	5.366844E-03	7.885872E-05
4.201137E+03	5.314097E-03	7.762110E-05
4.211092E+03	5.265826E-03	7.646001E-05
4.221047E+03	5.222098E-03	7.537527E-05
4.231003E+03	5.183109E-03	7.436861E-05
4.240958E+03	5.149058E-03	7.344167E-05
4.250913E+03	5.120107E-03	7.259557E-05
4.260869E+03	5.096600E-03	7.183393E-05
4.270824E+03	5.078852E-03	7.115985E-05
4.280779E+03	5.067196E-03	7.057667E-05
4.290735E+03	5.061989E-03	7.008788E-05
4.300690E+03	5.063517E-03	6.969595E-05
4.310645E+03	5.072148E-03	6.940443E-05
4.320601E+03	5.087998E-03	6.921330E-05
4.330556E+03	5.111297E-03	6.912412E-05
4.340511E+03	5.142117E-03	6.913626E-05
4.350466E+03	5.180495E-03	6.924868E-05
4.360422E+03	5.226436E-03	6.945990E-05
4.370377E+03	5.280091E-03	6.977043E-05
4.380332E+03	5.341832E-03	7.018365E-05
4.390288E+03	5.412423E-03	7.070805E-05
4.400243E+03	5.492529E-03	7.135061E-05
4.410198E+03	5.582651E-03	7.211610E-05
4.420154E+03	5.683111E-03	7.300692E-05
4.430109E+03	5.793756E-03	7.401933E-05
4.440064E+03	5.913962E-03	7.514379E-05
4.450019E+03	6.042603E-03	7.636463E-05
4.459975E+03	6.177817E-03	7.765732E-05
4.469930E+03	6.317293E-03	7.899229E-05
4.479885E+03	6.458068E-03	8.033252E-05
4.489841E+03	6.596600E-03	8.163464E-05
4.499796E+03	6.729010E-03	8.285205E-05
4.509751E+03	6.851119E-03	8.393541E-05
4.519707E+03	6.958680E-03	8.483555E-05
4.529662E+03	7.047657E-03	8.550678E-05
4.539617E+03	7.114326E-03	8.590802E-05
4.549572E+03	7.155596E-03	8.600647E-05
4.559528E+03	7.169590E-03	8.578436E-05
4.569483E+03	7.155213E-03	8.523340E-05
4.579438E+03	7.112599E-03	8.435990E-05
4.589394E+03	7.043388E-03	8.318761E-05
4.599349E+03	6.950227E-03	8.175158E-05
4.609304E+03	6.836412E-03	8.009371E-05
4.619260E+03	6.706354E-03	7.826803E-05
4.629215E+03	6.564327E-03	7.632603E-05
4.639170E+03	6.414988E-03	7.432270E-05
4.649125E+03	6.262594E-03	7.230756E-05
4.659081E+03	6.110942E-03	7.032406E-05
4.669036E+03	5.963148E-03	6.840726E-05
4.678991E+03	5.821507E-03	6.658236E-05
4.688947E+03	5.687590E-03	6.486602E-05
4.698902E+03	5.561841E-03	6.326197E-05
4.708857E+03	5.443787E-03	6.176354E-05
4.718813E+03	5.332109E-03	6.035457E-05
4.728768E+03	5.224484E-03	5.900784E-05
4.738723E+03	5.118067E-03	5.769043E-05
4.748678E+03	5.009279E-03	5.636127E-05
4.758634E+03	4.894977E-03	5.498437E-05
4.768589E+03	4.774075E-03	5.354702E-05
4.778544E+03	4.649836E-03	5.208521E-05
4.788500E+03	4.526541E-03	5.064614E-05
4.798455E+03	4.407828E-03	4.926955E-05
4.808410E+03	4.296362E-03	4.798424E-05
4.818366E+03	4.194176E-03	4.681192E-05
4.828321E+03	4.102546E-03	4.576597E-05
4.838276E+03	4.022154E-03	4.485312E-05
4.848231E+03	3.953241E-03	4.407540E-05
4.858187E+03	3.895733E-03	4.343138E-05
4.868142E+03	3.849192E-03	4.291574E-05
4.878097E+03	3.813099E-03	4.252232E-05
4.888053E+03	3.786736E-03	4.224288E-05
4.898008E+03	3.769449E-03	4.206996E-05
4.907963E+03	3.760522E-03	4.199546E-05
4.917919E+03	3.759217E-03	4.201114E-05
4.927874E+03	3.764922E-03	4.211014E-05
4.937829E+03	3.777037E-03	4.228584E-05
4.947784E+03	3.795175E-03	4.253399E-05
4.957740E+03	3.818987E-03	4.285079E-05
4.967695E+03	3.848242E-03	4.323380E-05
4.977650E+03	3.882735E-03	4.368092E-05
4.987606E+03	3.922423E-03	4.419183E-05
4.997561E+03	3.967109E-03	4.476456E-05
5.007516E+03	4.016665E-03	4.539791E-05
5.017472E+03	4.070974E-03	4.609080E-05
5.027427E+03	4.129821E-03	4.684110E-05
5.037382E+03	4.192991E-03	4.764664E-05
5.047337E+03	4.260259E-03	4.850514E-05
5.057293E+03	4.331411E-03	4.941446E-05
5.067248E+03	4.406236E-03	5.037248E-05
5.077203E+03	4.484580E-03	5.137772E-05
5.087159E+03	4.566303E-03	5.242884E-05
5.097114E+03	4.651085E-03	5.352245E-05
5.107069E+03	4.738734E-03	5.465660E-05
5.117025E+03	4.828725E-03	5.582546E-05
5.126980E+03	4.920699E-03	5.702509E-05
5.136935E+03	5.014041E-03	5.824852E-05
5.146890E+03	5.108069E-03	5.948792E-05
5.156846E+03	5.202002E-03	6.073428E-05
5.166801E+03	5.294876E-03	6.197626E-05
5.176756E+03	5.385684E-03	6.320198E-05
5.186712E+03	5.473296E-03	6.439791E-05
5.196667E+03	5.556682E-03	6.555161E-05
5.206622E+03	5.634500E-03	6.664676E-05
5.216578E+03	5.705669E-03	6.766998E-05
5.226533E+03	5.769070E-03	6.860728E-05
5.236488E+03	5.823712E-03	6.944604E-05
5.246443E+03	5.868778E-03	7.017556E-05
5.256399E+03	5.903821E-03	7.078946E-05
5.266354E+03	5.928457E-03	7.128205E-05
5.276309E+03	5.942730E-03	7.165275E-05
5.286265E+03	5.946827E-03	7.190268E-05
5.296220E+03	5.941165E-03	7.203576E-05
5.306175E+03	5.926128E-03	7.205558E-05
5.316131E+03	5.902294E-03	7.196811E-05
5.326086E+03	5.870248E-03	7.177954E-05
5.336041E+03	5.830791E-03	7.149872E-05
5.345996E+03	5.784516E-03	7.113209E-05
5.355952E+03	5.732307E-03	7.068976E-05
5.365907E+03	5.675148E-03	7.018318E-05
5.375862E+03	5.614024E-03	6.962397E-05
5.385818E+03	5.549700E-03	6.902117E-05
5.395773E+03	5.483014E-03	6.838479E-05
5.405728E+03	5.414650E-03	6.772312E-05
5.415684E+03	5.344909E-03	6.703965E-05
5.425639E+03	5.274195E-03	6.633930E-05
5.435594E+03	5.202572E-03	6.562269E-05
5.445549E+03	5.130020E-03	6.488946E-05
5.455505E+03	5.056643E-03	6.414077E-05
5.465460E+03	4.982305E-03	6.337473E-05
5.475415E+03	4.907370E-03	6.259583E-05
5.485371E+03	4.832746E-03	6.181552E-05
5.495326E+03	4.759631E-03	6.104915E-05
5.505281E+03	4.688855E-03	6.030748E-05
5.515237E+03	4.621256E-03	5.960152E-05
5.525192E+03	4.557400E-03	5.893888E-05
5.535147E+03	4.497891E-03	5.832776E-05
5.545102E+03	4.443066E-03	5.777295E-05
5.555058E+03	4.393321E-03	5.728007E-05
5.565013E+03	4.348976E-03	5.685380E-05
5.574968E+03	4.310439E-03	5.650003E-05
5.584924E+03	4.277976E-03	5.622284E-05
5.594879E+03	4.251910E-03	5.602708E-05
5.604834E+03	4.232529E-03	5.591720E-05
5.614790E+03	4.220046E-03	5.589668E-05
5.624745E+03	4.214643E-03	5.596861E-05
5.634700E+03	4.216363E-03	5.613426E-05
5.644655E+03	4.225253E-03	5.639495E-05
5.654611E+03	4.241269E-03	5.675079E-05
5.664566E+03	4.264252E-03	5.720031E-05
5.674521E+03	4.293940E-03	5.774066E-05
5.684477E+03	4.329965E-03	5.836749E-05
5.694432E+03	4.371957E-03	5.907639E-05
5.704387E+03	4.419266E-03	5.985909E-05
5.714343E+03	4.471332E-03	6.070846E-05
5.724298E+03	4.527458E-03	6.161542E-05
5.734253E+03	4.586833E-03	6.256922E-05
5.744209E+03	4.648634E-03	6.355891E-05
5.754164E+03	4.711985E-03	6.457262E-05
5.764119E+03	4.775814E-03	6.559572E-05
5.774074E+03	4.839013E-03	6.661298E-05
5.784030E+03	4.900534E-03	6.760979E-05
5.793985E+03	4.959061E-03	6.856776E-05
5.803940E+03	5.013444E-03	6.947065E-05
5.813896E+03	5.062550E-03	7.030231E-05
5.823851E+03	5.105311E-03	7.104734E-05
5.833806E+03	5.140808E-03	7.169237E-05
5.843762E+03	5.168131E-03	7.222398E-05
5.853717E+03	5.186752E-03	7.263408E-05
5.863672E+03	5.196134E-03	7.291436E-05
5.873627E+03	5.195997E-03	7.306008E-05
5.883583E+03	5.186245E-03	7.306911E-05
5.893538E+03	5.166940E-03	7.294151E-05
5.903493E+03	5.138348E-03	7.268027E-05
5.913449E+03	5.100693E-03	7.228785E-05
5.923404E+03	5.054431E-03	7.176998E-05
5.933359E+03	5.000229E-03	7.113551E-05
5.943315E+03	4.938781E-03	7.039377E-05
5.953270E+03	4.870761E-03	6.955382E-05
5.963225E+03	4.797231E-03	6.863041E-05
5.973180E+03	4.719021E-03	6.763508E-05
5.983136E+03	4.637365E-03	6.658524E-05
5.993091E+03	4.553364E-03	6.549652E-05
6.003046E+03	4.468299E-03	6.438728E-05
6.013002E+03	4.383497E-03	6.327666E-05
6.022957E+03	4.300217E-03	6.218297E-05
6.032912E+03	4.219719E-03	6.112464E-05
6.042868E+03	4.143057E-03	6.011725E-05
6.052823E+03	4.071450E-03	5.917884E-05
6.062778E+03	4.005729E-03	5.832197E-05
6.072733E+03	3.946834E-03	5.756084E-05
6.082689E+03	3.895425E-03	5.690564E-05
6.092644E+03	3.851998E-03	5.636421E-05
6.102599E+03	3.816893E-03	5.594216E-05
6.112555E+03	3.790286E-03	5.564272E-05
6.122510E+03	3.772006E-03	5.546403E-05
6.132465E+03	3.761625E-03	5.540041E-05
6.142421E+03	3.758459E-03	5.544235E-05
6.152376E+03	3.761271E-03	5.557213E-05
6.162331E+03	3.768571E-03	5.576814E-05
6.172286E+03	3.778464E-03	5.600260E-05
6.182242E+03	3.788725E-03	5.624264E-05
6.192197E+03	3.796815E-03	5.645053E-05
6.202152E+03	3.800237E-03	5.658891E-05
6.212108E+03	3.797018E-03	5.662803E-05
6.222063E+03	3.786370E-03	5.655564E-05
6.232018E+03	3.769148E-03	5.638401E-05
6.241974E+03	3.746927E-03	5.613628E-05
6.251929E+03	3.721549E-03	5.583976E-05
6.261884E+03	3.694682E-03	5.551929E-05
6.271839E+03	3.667773E-03	5.519654E-05
6.281795E+03	3.642046E-03	5.488996E-05
6.291750E+03	3.618414E-03	5.461342E-05
6.301705E+03	3.597402E-03	5.437497E-05
6.311661E+03	3.579386E-03	5.418048E-05
6.321616E+03	3.564534E-03	5.403269E-05
6.331571E+03	3.552755E-03	5.393043E-05
6.341527E+03	3.544019E-03	5.387342E-05
6.351482E+03	3.538163E-03	5.385938E-05
6.361437E+03	3.535001E-03	5.388563E-05
6.371392E+03	3.534337E-03	5.394928E-05
6.381348E+03	3.536080E-03	5.404911E-05
6.391303E+03	3.539979E-03	5.418138E-05
6.401258E+03	3.545914E-03	5.434433E-05
6.411214E+03	3.553627E-03	5.453410E-05
6.421169E+03	3.562809E-03	5.474604E-05
6.431124E+03	3.573143E-03	5.497530E-05
6.441080E+03	3.584189E-03	5.521513E-05
6.451035E+03	3.595479E-03	5.545833E-05
6.460990E+03	3.606304E-03	5.569394E-05
6.470945E+03	3.616136E-03	5.591370E-05
6.480901E+03	3.624290E-03	5.610695E-05
6.490856E+03	3.630038E-03	5.626225E-05
6.500811E+03	3.632906E-03	5.637211E-05
6.510767E+03	3.632703E-03	5.643337E-05
6.520722E+03	3.629649E-03	5.644926E-05
6.530677E+03	3.624196E-03	5.642665E-05
6.540633E+03	3.616901E-03	5.637408E-05
6.550588E+03	3.608156E-03	5.629756E-05
6.560543E+03	3.598335E-03	5.620283E-05
6.570498E+03	3.587763E-03	5.609493E-05
6.580454E+03	3.576592E-03	5.597618E-05
6.590409E+03	3.564794E-03	5.584612E-05
6.600364E+03	3.552359E-03	5.570452E-05
6.610320E+03	3.539071E-03	5.554801E-05
6.620275E+03	3.524838E-03	5.537506E-05
6.630230E+03	3.509285E-03	5.517975E-05
6.640186E+03	3.492157E-03	5.495800E-05
6.650141E+03	3.473322E-03	5.470770E-05
6.660096E+03	3.452638E-03	5.442652E-05
6.670051E+03	3.429970E-03	5.411228E-05
6.680007E+03	3.405372E-03	5.376577E-05
6.689962E+03	3.379038E-03	5.339000E-05
6.699917E+03	3.351100E-03	5.298702E-05
6.709873E+03	3.321876E-03	5.256182E-05
6.719828E+03	3.291534E-03	5.211705E-05
6.729783E+03	3.260498E-03	5.165940E-05
6.739739E+03	3.228983E-03	5.119233E-05
6.749694E+03	3.197429E-03	5.072278E-05
6.759649E+03	3.166012E-03	5.025360E-05
6.769604E+03	3.135066E-03	4.979013E-05
6.779560E+03	3.104824E-03	4.933612E-05
6.789515E+03	3.075416E-03	4.889369E-05
6.799470E+03	3.047048E-03	4.846615E-05
6.809426E+03	3.019765E-03	4.805430E-05
6.819381E+03	2.993684E-03	4.766004E-05
6.829336E+03	2.968729E-03	4.728221E-05
6.839292E+03	2.945015E-03	4.692270E-05
6.849247E+03	2.922461E-03	4.658029E-05
6.859202E+03	2.901051E-03	4.625474E-05
6.869157E+03	2.880693E-03	4.594466E-05
6.879113E+03	2.861451E-03	4.565108E-05
6.889068E+03	2.843128E-03	4.537094E-05
6.899023E+03	2.825843E-03	4.510616E-05
6.908979E+03	2.809416E-03	4.485389E-05
6.918934E+03	2.793764E-03	4.461285E-05
6.928889E+03	2.778836E-03	4.438227E-05
6.938845E+03	2.764468E-03	4.415955E-05
6.948800E+03	2.750572E-03	4.394332E-05
6.958755E+03	2.737064E-03	4.373224E-05
6.968710E+03	2.723855E-03	4.352495E-05
6.978666E+03	2.710886E-03	4.332051E-05
6.988621E+03	2.698045E-03	4.311717E-05
6.998576E+03	2.685376E-03	4.291565E-05
7.008532E+03	2.672654E-03	4.271240E-05
7.018487E+03	2.659973E-03	4.250891E-05
7.028442E+03	2.647111E-03	4.230170E-05
7.038398E+03	2.634127E-03	4.209171E-05
7.048353E+03	2.620924E-03	4.187745E-05
7.058308E+03	2.607468E-03	4.165839E-05
7.068263E+03	2.593803E-03	4.143525E-05
7.078219E+03	2.579821E-03	4.120634E-05
7.088174E+03	2.565576E-03	4.097258E-05
7.098129E+03	2.551047E-03	4.073366E-05
7.108085E+03	2.536321E-03	4.049098E-05
7.118040E+03	2.521421E-03	4.024496E-05
7.127995E+03	2.506321E-03	3.999521E-05
7.137951E+03	2.491082E-03	3.974276E-05
7.147906E+03	2.475600E-03	3.948595E-05
7.157861E+03	2.459966E-03	3.922630E-05
7.167817E+03	2.444107E-03	3.896266E-05
7.177772E+03	2.427945E-03	3.869385E-05
7.187727E+03	2.411537E-03	3.842078E-05
7.197682E+03	2.394900E-03	3.814379E-05
7.207638E+03	2.378034E-03	3.786289E-05
7.217593E+03	2.361049E-03	3.757990E-05
7.227548E+03	2.344078E-03	3.729696E-05
7.237504E+03	2.327254E-03	3.701620E-05
7.247459E+03	2.310718E-03	3.673992E-05
7.257414E+03	2.294495E-03	3.646855E-05
7.267370E+03	2.278778E-03	3.620514E-05
7.277325E+03	2.263609E-03	3.595044E-05
7.287280E+03	2.249009E-03	3.570477E-05
7.297235E+03	2.235065E-03	3.546955E-05
7.307191E+03	2.221717E-03	3.524383E-05
7.317146E+03	2.208975E-03	3.502780E-05
7.327101E+03	2.196827E-03	3.482130E-05
7.337057E+03	2.185210E-03	3.462334E-05
7.347012E+03	2.174136E-03	3.443415E-05
7.356967E+03	2.163428E-03	3.425090E-05
7.366923E+03	2.153136E-03	3.407448E-05
7.376878E+03	2.143140E-03	3.390295E-05
7.386833E+03	2.133474E-03	3.373692E-05
7.396788E+03	2.124128E-03	3.357622E-05
7.406744E+03	2.115159E-03	3.342180E-05
7.416699E+03	2.106681E-03	3.327548E-05
7.426654E+03	2.098728E-03	3.313782E-05
7.436610E+03	2.091507E-03	3.301211E-05
7.446565E+03	2.084988E-03	3.289790E-05
7.456520E+03	2.079309E-03	3.279739E-05
7.466476E+03	2.074449E-03	3.271023E-05
7.476431E+03	2.070529E-03	3.263839E-05
7.486386E+03	2.067461E-03	3.258042E-05
7.496341E+03	2.065153E-03	3.253494E-05
7.506297E+03	2.063515E-03	3.250050E-05
7.516252E+03	2.062366E-03	3.247428E-05
7.526207E+03	2.061565E-03	3.245407E-05
7.536163E+03	2.060737E-03	3.243398E-05
7.546118E+03	2.059602E-03	3.240964E-05
7.556073E+03	2.057847E-03	3.237613E-05
7.566029E+03	2.055046E-03	3.232680E-05
7.575984E+03	2.050908E-03	3.225709E-05
7.585939E+03	2.045192E-03	3.216324E-05
7.595894E+03	2.038019E-03	3.204717E-05
7.605850E+03	2.029487E-03	3.191047E-05
7.615805E+03	2.019937E-03	3.175850E-05
7.625760E+03	2.009523E-03	3.159371E-05
7.635716E+03	1.998566E-03	3.142117E-05
7.645671E+03	1.987171E-03	3.124252E-05
7.655626E+03	1.975592E-03	3.106177E-05
7.665582E+03	1.963933E-03	3.088060E-05
7.675537E+03	1.952314E-03	3.070086E-05
7.685492E+03	1.940814E-03	3.052384E-05
7.695447E+03	1.929485E-03	3.035035E-05
7.705403E+03	1.918340E-03	3.018062E-05
7.715358E+03	1.907318E-03	3.001370E-05
7.725313E+03	1.896479E-03	2.985053E-05
