#wls	flux	fluxerr
1.592848E+03	1.830402E-03	5.307416E-05
1.632669E+03	1.874722E-03	5.402519E-05
1.672491E+03	1.922440E-03	5.505001E-05
1.712312E+03	1.973655E-03	5.614882E-05
1.752133E+03	2.028638E-03	5.732662E-05
1.791954E+03	2.087832E-03	5.859284E-05
1.831775E+03	2.150974E-03	5.993679E-05
1.871597E+03	2.218676E-03	6.137210E-05
1.911418E+03	2.291025E-03	6.289738E-05
1.951239E+03	2.368115E-03	6.451114E-05
1.991060E+03	2.449879E-03	6.620739E-05
2.030881E+03	2.536432E-03	6.798492E-05
2.070703E+03	2.627573E-03	6.983386E-05
2.110524E+03	2.722798E-03	7.173636E-05
2.150345E+03	2.822133E-03	7.368882E-05
2.190166E+03	2.924985E-03	7.567139E-05
2.229987E+03	3.030974E-03	7.767018E-05
2.269809E+03	3.140094E-03	7.968100E-05
2.309630E+03	3.252704E-03	8.170880E-05
2.349451E+03	3.369690E-03	8.377108E-05
2.389272E+03	3.492137E-03	8.588926E-05
2.429093E+03	3.621189E-03	8.808482E-05
2.468915E+03	3.758530E-03	9.039081E-05
2.508736E+03	3.905460E-03	9.282908E-05
2.548557E+03	4.063705E-03	9.542978E-05
2.588378E+03	4.234672E-03	9.821327E-05
2.628199E+03	4.420096E-03	1.012055E-04
2.668021E+03	4.621634E-03	1.044281E-04
2.707842E+03	4.841190E-03	1.079060E-04
2.747663E+03	5.081010E-03	1.116684E-04
2.787484E+03	5.343538E-03	1.157458E-04
2.827305E+03	5.631682E-03	1.201747E-04
2.867127E+03	5.949200E-03	1.250051E-04
2.906948E+03	6.300141E-03	1.302874E-04
2.946769E+03	6.690100E-03	1.360972E-04
2.986590E+03	7.125019E-03	1.425084E-04
2.996546E+03	7.241800E-03	1.442196E-04
3.006501E+03	7.361865E-03	1.459735E-04
3.016456E+03	7.485313E-03	1.477712E-04
3.026411E+03	7.612604E-03	1.496207E-04
3.036367E+03	7.743685E-03	1.515198E-04
3.046322E+03	7.878675E-03	1.534699E-04
3.056277E+03	8.017871E-03	1.554755E-04
3.066233E+03	8.161237E-03	1.575346E-04
3.076188E+03	8.308895E-03	1.596486E-04
3.086143E+03	8.461328E-03	1.618252E-04
3.096099E+03	8.618329E-03	1.640592E-04
3.106054E+03	8.780208E-03	1.663552E-04
3.116009E+03	8.946923E-03	1.687108E-04
3.125964E+03	9.119146E-03	1.711374E-04
3.135920E+03	9.296483E-03	1.736259E-04
3.145875E+03	9.479239E-03	1.761804E-04
3.155830E+03	9.667729E-03	1.788053E-04
3.165786E+03	9.862079E-03	1.815011E-04
3.175741E+03	1.006203E-02	1.842614E-04
3.185696E+03	1.026825E-02	1.870966E-04
3.195652E+03	1.048045E-02	1.899997E-04
3.205607E+03	1.069890E-02	1.929737E-04
3.215562E+03	1.092344E-02	1.960140E-04
3.225517E+03	1.115431E-02	1.991229E-04
3.235473E+03	1.139148E-02	2.022982E-04
3.245428E+03	1.163493E-02	2.055373E-04
3.255383E+03	1.188436E-02	2.088333E-04
3.265339E+03	1.213984E-02	2.121855E-04
3.275294E+03	1.240116E-02	2.155885E-04
3.285249E+03	1.266785E-02	2.190324E-04
3.295205E+03	1.293978E-02	2.225131E-04
3.305160E+03	1.321629E-02	2.260179E-04
3.315115E+03	1.349705E-02	2.295397E-04
3.325070E+03	1.378119E-02	2.330624E-04
3.335026E+03	1.406792E-02	2.365718E-04
3.344981E+03	1.435631E-02	2.400513E-04
3.354936E+03	1.464526E-02	2.434821E-04
3.364892E+03	1.493350E-02	2.468429E-04
3.374847E+03	1.521936E-02	2.501064E-04
3.384802E+03	1.550142E-02	2.532500E-04
3.394758E+03	1.577739E-02	2.562375E-04
3.404713E+03	1.604567E-02	2.590447E-04
3.414668E+03	1.630360E-02	2.616312E-04
3.424623E+03	1.654877E-02	2.639616E-04
3.434579E+03	1.677867E-02	2.659995E-04
3.444534E+03	1.699041E-02	2.677041E-04
3.454489E+03	1.718156E-02	2.690424E-04
3.464445E+03	1.734917E-02	2.699748E-04
3.474400E+03	1.749037E-02	2.704637E-04
3.484355E+03	1.760268E-02	2.704787E-04
3.494311E+03	1.768355E-02	2.699894E-04
3.504266E+03	1.773111E-02	2.689770E-04
3.514221E+03	1.774303E-02	2.674160E-04
3.524176E+03	1.771819E-02	2.653005E-04
3.534132E+03	1.765544E-02	2.626243E-04
3.544087E+03	1.755445E-02	2.593937E-04
3.554042E+03	1.741499E-02	2.556169E-04
3.563998E+03	1.723772E-02	2.513153E-04
3.573953E+03	1.702476E-02	2.465305E-04
3.583908E+03	1.677869E-02	2.413107E-04
3.593864E+03	1.650483E-02	2.357417E-04
3.603819E+03	1.620948E-02	2.299213E-04
3.613774E+03	1.589922E-02	2.239488E-04
3.623729E+03	1.558100E-02	2.179259E-04
3.633685E+03	1.526201E-02	2.119549E-04
3.643640E+03	1.494886E-02	2.061274E-04
3.653595E+03	1.464837E-02	2.005350E-04
3.663551E+03	1.436648E-02	1.952549E-04
3.673506E+03	1.410925E-02	1.903634E-04
3.683461E+03	1.388211E-02	1.859260E-04
3.693417E+03	1.369027E-02	1.820031E-04
3.703372E+03	1.353823E-02	1.786438E-04
3.713327E+03	1.343042E-02	1.758943E-04
3.723282E+03	1.337078E-02	1.737928E-04
3.733238E+03	1.336309E-02	1.723740E-04
3.743193E+03	1.341067E-02	1.716651E-04
3.753148E+03	1.351665E-02	1.716897E-04
3.763104E+03	1.368370E-02	1.724642E-04
3.773059E+03	1.391411E-02	1.739995E-04
3.783014E+03	1.421006E-02	1.763041E-04
3.792970E+03	1.457245E-02	1.793701E-04
3.802925E+03	1.500188E-02	1.831855E-04
3.812880E+03	1.549778E-02	1.877241E-04
3.822835E+03	1.605776E-02	1.929381E-04
3.832791E+03	1.667804E-02	1.987639E-04
3.842746E+03	1.735300E-02	2.051182E-04
3.852701E+03	1.807458E-02	2.118912E-04
3.862657E+03	1.883226E-02	2.189475E-04
3.872612E+03	1.961284E-02	2.261253E-04
3.882567E+03	2.040101E-02	2.332437E-04
3.892523E+03	2.117929E-02	2.401032E-04
3.902478E+03	2.192896E-02	2.464972E-04
3.912433E+03	2.263070E-02	2.522197E-04
3.922388E+03	2.326575E-02	2.570780E-04
3.932344E+03	2.381773E-02	2.609128E-04
3.942299E+03	2.427279E-02	2.635985E-04
3.952254E+03	2.462039E-02	2.650500E-04
3.962210E+03	2.485506E-02	2.652402E-04
3.972165E+03	2.497515E-02	2.641843E-04
3.982120E+03	2.498381E-02	2.619481E-04
3.992076E+03	2.488810E-02	2.586368E-04
4.002031E+03	2.469821E-02	2.543846E-04
4.011986E+03	2.442745E-02	2.493538E-04
4.021941E+03	2.409037E-02	2.437141E-04
4.031897E+03	2.370265E-02	2.376409E-04
4.041852E+03	2.327951E-02	2.312990E-04
4.051807E+03	2.283548E-02	2.248413E-04
4.061763E+03	2.238373E-02	2.184012E-04
4.071718E+03	2.193582E-02	2.120927E-04
4.081673E+03	2.150095E-02	2.060025E-04
4.091629E+03	2.108652E-02	2.001971E-04
4.101584E+03	2.069832E-02	1.947255E-04
4.111539E+03	2.033955E-02	1.896104E-04
4.121494E+03	2.001231E-02	1.848636E-04
4.131450E+03	1.971703E-02	1.804805E-04
4.141405E+03	1.945284E-02	1.764454E-04
4.151360E+03	1.921791E-02	1.727339E-04
4.161316E+03	1.900963E-02	1.693156E-04
4.171271E+03	1.882498E-02	1.661573E-04
4.181226E+03	1.866067E-02	1.632246E-04
4.191182E+03	1.851339E-02	1.604843E-04
4.201137E+03	1.838014E-02	1.579066E-04
4.211092E+03	1.825803E-02	1.554641E-04
4.221047E+03	1.814480E-02	1.531352E-04
4.231003E+03	1.803917E-02	1.509075E-04
4.240958E+03	1.794024E-02	1.487721E-04
4.250913E+03	1.784727E-02	1.467218E-04
4.260869E+03	1.776057E-02	1.447583E-04
4.270824E+03	1.768072E-02	1.428850E-04
4.280779E+03	1.760844E-02	1.411067E-04
4.290735E+03	1.754450E-02	1.394285E-04
4.300690E+03	1.748928E-02	1.378517E-04
4.310645E+03	1.744297E-02	1.363769E-04
4.320601E+03	1.740410E-02	1.349912E-04
4.330556E+03	1.737067E-02	1.336776E-04
4.340511E+03	1.733896E-02	1.324064E-04
4.350466E+03	1.730389E-02	1.311383E-04
4.360422E+03	1.725988E-02	1.298314E-04
4.370377E+03	1.720305E-02	1.284578E-04
4.380332E+03	1.713836E-02	1.270556E-04
4.390288E+03	1.707968E-02	1.257279E-04
4.400243E+03	1.704110E-02	1.245758E-04
4.410198E+03	1.703476E-02	1.236841E-04
4.420154E+03	1.707044E-02	1.231182E-04
4.430109E+03	1.715472E-02	1.229187E-04
4.440064E+03	1.729114E-02	1.231042E-04
4.450019E+03	1.748056E-02	1.236735E-04
4.459975E+03	1.772064E-02	1.246035E-04
4.469930E+03	1.800689E-02	1.258568E-04
4.479885E+03	1.833233E-02	1.273796E-04
4.489841E+03	1.868766E-02	1.291037E-04
4.499796E+03	1.906188E-02	1.309507E-04
4.509751E+03	1.944241E-02	1.328334E-04
4.519707E+03	1.981557E-02	1.346590E-04
4.529662E+03	2.016718E-02	1.363333E-04
4.539617E+03	2.048279E-02	1.377621E-04
4.549572E+03	2.074848E-02	1.388566E-04
4.559528E+03	2.095216E-02	1.395417E-04
4.569483E+03	2.108281E-02	1.397507E-04
4.579438E+03	2.113217E-02	1.394359E-04
4.589394E+03	2.109548E-02	1.385733E-04
4.599349E+03	2.097120E-02	1.371600E-04
4.609304E+03	2.076079E-02	1.352123E-04
4.619260E+03	2.047046E-02	1.327766E-04
4.629215E+03	2.010806E-02	1.299090E-04
4.639170E+03	1.968516E-02	1.266882E-04
4.649125E+03	1.921445E-02	1.231987E-04
4.659081E+03	1.870944E-02	1.195287E-04
4.669036E+03	1.818334E-02	1.157633E-04
4.678991E+03	1.764814E-02	1.119783E-04
4.688947E+03	1.711421E-02	1.082382E-04
4.698902E+03	1.658876E-02	1.045869E-04
4.708857E+03	1.607603E-02	1.010484E-04
4.718813E+03	1.557715E-02	9.762717E-05
4.728768E+03	1.508941E-02	9.430368E-05
4.738723E+03	1.460782E-02	9.104446E-05
4.748678E+03	1.412607E-02	8.780858E-05
4.758634E+03	1.364113E-02	8.457561E-05
4.768589E+03	1.315565E-02	8.136086E-05
4.778544E+03	1.268101E-02	7.823326E-05
4.788500E+03	1.223155E-02	7.527947E-05
4.798455E+03	1.181982E-02	7.257437E-05
4.808410E+03	1.145484E-02	7.017073E-05
4.818366E+03	1.114233E-02	6.810068E-05
4.828321E+03	1.088408E-02	6.637238E-05
4.838276E+03	1.067896E-02	6.497606E-05
4.848231E+03	1.052391E-02	6.389051E-05
4.858187E+03	1.041447E-02	6.308628E-05
4.868142E+03	1.034505E-02	6.252734E-05
4.878097E+03	1.030969E-02	6.217579E-05
4.888053E+03	1.030181E-02	6.199038E-05
4.898008E+03	1.031525E-02	6.193275E-05
4.907963E+03	1.034430E-02	6.196742E-05
4.917919E+03	1.038399E-02	6.206392E-05
4.927874E+03	1.043061E-02	6.219931E-05
4.937829E+03	1.048129E-02	6.235607E-05
4.947784E+03	1.053465E-02	6.252560E-05
4.957740E+03	1.059012E-02	6.270411E-05
4.967695E+03	1.064806E-02	6.289351E-05
4.977650E+03	1.070947E-02	6.309935E-05
4.987606E+03	1.077608E-02	6.333148E-05
4.997561E+03	1.084931E-02	6.359782E-05
5.007516E+03	1.093078E-02	6.390744E-05
5.017472E+03	1.102203E-02	6.426870E-05
5.027427E+03	1.112396E-02	6.468633E-05
5.037382E+03	1.123720E-02	6.516334E-05
5.047337E+03	1.136196E-02	6.570022E-05
5.057293E+03	1.149798E-02	6.629494E-05
5.067248E+03	1.164457E-02	6.694273E-05
5.077203E+03	1.180082E-02	6.763791E-05
5.087159E+03	1.196582E-02	6.837470E-05
5.097114E+03	1.213827E-02	6.914513E-05
5.107069E+03	1.231739E-02	6.994444E-05
5.117025E+03	1.250195E-02	7.076532E-05
5.126980E+03	1.269160E-02	7.160556E-05
5.136935E+03	1.288584E-02	7.246212E-05
5.146890E+03	1.308443E-02	7.333357E-05
5.156846E+03	1.328707E-02	7.421803E-05
5.166801E+03	1.349321E-02	7.511254E-05
5.176756E+03	1.370225E-02	7.601374E-05
5.186712E+03	1.391289E-02	7.691451E-05
5.196667E+03	1.412375E-02	7.780757E-05
5.206622E+03	1.433219E-02	7.867871E-05
5.216578E+03	1.453541E-02	7.951319E-05
5.226533E+03	1.472996E-02	8.029300E-05
5.236488E+03	1.491217E-02	8.099920E-05
5.246443E+03	1.507812E-02	8.161185E-05
5.256399E+03	1.522449E-02	8.211460E-05
5.266354E+03	1.534796E-02	8.249139E-05
5.276309E+03	1.544589E-02	8.273004E-05
5.286265E+03	1.551606E-02	8.282081E-05
5.296220E+03	1.555713E-02	8.275881E-05
5.306175E+03	1.556776E-02	8.253924E-05
5.316131E+03	1.554756E-02	8.216240E-05
5.326086E+03	1.549660E-02	8.163094E-05
5.336041E+03	1.541577E-02	8.095169E-05
5.345996E+03	1.530592E-02	8.013126E-05
5.355952E+03	1.516928E-02	7.918318E-05
5.365907E+03	1.500851E-02	7.812308E-05
5.375862E+03	1.482698E-02	7.696990E-05
5.385818E+03	1.462831E-02	7.574358E-05
5.395773E+03	1.441687E-02	7.446772E-05
5.405728E+03	1.419761E-02	7.316854E-05
5.415684E+03	1.397544E-02	7.187165E-05
5.425639E+03	1.375605E-02	7.060639E-05
5.435594E+03	1.354534E-02	6.940303E-05
5.445549E+03	1.335020E-02	6.829657E-05
5.455505E+03	1.317830E-02	6.732513E-05
5.465460E+03	1.303520E-02	6.651548E-05
5.475415E+03	1.292165E-02	6.586982E-05
5.485371E+03	1.282896E-02	6.534253E-05
5.495326E+03	1.274576E-02	6.487448E-05
5.505281E+03	1.266037E-02	6.440531E-05
5.515237E+03	1.256381E-02	6.388852E-05
5.525192E+03	1.244950E-02	6.328985E-05
5.535147E+03	1.231403E-02	6.259114E-05
5.545102E+03	1.215646E-02	6.178678E-05
5.555058E+03	1.197845E-02	6.088443E-05
5.565013E+03	1.178343E-02	5.990052E-05
5.574968E+03	1.157653E-02	5.886036E-05
5.584924E+03	1.136344E-02	5.779204E-05
5.594879E+03	1.115056E-02	5.672733E-05
5.604834E+03	1.094455E-02	5.569942E-05
5.614790E+03	1.075175E-02	5.473995E-05
5.624745E+03	1.057808E-02	5.387869E-05
5.634700E+03	1.042860E-02	5.314093E-05
5.644655E+03	1.030779E-02	5.254927E-05
5.654611E+03	1.021930E-02	5.212200E-05
5.664566E+03	1.016568E-02	5.187205E-05
5.674521E+03	1.014860E-02	5.180785E-05
5.684477E+03	1.016884E-02	5.193320E-05
5.694432E+03	1.022641E-02	5.224817E-05
5.704387E+03	1.031999E-02	5.274583E-05
5.714343E+03	1.044775E-02	5.341667E-05
5.724298E+03	1.060673E-02	5.424545E-05
5.734253E+03	1.079296E-02	5.521165E-05
5.744209E+03	1.100189E-02	5.629170E-05
5.754164E+03	1.122839E-02	5.745904E-05
5.764119E+03	1.146647E-02	5.868265E-05
5.774074E+03	1.170972E-02	5.992943E-05
5.784030E+03	1.195175E-02	6.116624E-05
5.793985E+03	1.218551E-02	6.235666E-05
5.803940E+03	1.240450E-02	6.346711E-05
5.813896E+03	1.260257E-02	6.446589E-05
5.823851E+03	1.277432E-02	6.532524E-05
5.833806E+03	1.291551E-02	6.602337E-05
5.843762E+03	1.302281E-02	6.654330E-05
5.853717E+03	1.309473E-02	6.687760E-05
5.863672E+03	1.313060E-02	6.702313E-05
5.873627E+03	1.313112E-02	6.698385E-05
5.883583E+03	1.309796E-02	6.676871E-05
5.893538E+03	1.303349E-02	6.639035E-05
5.903493E+03	1.294073E-02	6.586484E-05
5.913449E+03	1.282257E-02	6.520740E-05
5.923404E+03	1.268227E-02	6.443539E-05
5.933359E+03	1.252335E-02	6.356732E-05
5.943315E+03	1.234898E-02	6.261997E-05
5.953270E+03	1.216185E-02	6.160761E-05
5.963225E+03	1.196514E-02	6.054707E-05
5.973180E+03	1.176103E-02	5.944992E-05
5.983136E+03	1.155215E-02	5.833006E-05
5.993091E+03	1.134012E-02	5.719620E-05
6.003046E+03	1.112664E-02	5.605745E-05
6.013002E+03	1.091324E-02	5.492194E-05
6.022957E+03	1.070091E-02	5.379511E-05
6.032912E+03	1.049071E-02	5.268274E-05
6.042868E+03	1.028360E-02	5.158998E-05
6.052823E+03	1.008132E-02	5.052587E-05
6.062778E+03	9.885416E-03	4.949852E-05
6.072733E+03	9.698658E-03	4.852205E-05
6.082689E+03	9.524066E-03	4.761177E-05
6.092644E+03	9.365158E-03	4.678546E-05
6.102599E+03	9.225845E-03	4.606282E-05
6.112555E+03	9.110162E-03	4.546415E-05
6.122510E+03	9.021463E-03	4.500640E-05
6.132465E+03	8.962192E-03	4.470201E-05
6.142421E+03	8.933385E-03	4.455651E-05
6.152376E+03	8.933603E-03	4.456324E-05
6.162331E+03	8.959174E-03	4.470444E-05
6.172286E+03	9.003334E-03	4.494686E-05
6.182242E+03	9.056513E-03	4.524325E-05
6.192197E+03	9.106605E-03	4.553364E-05
6.202152E+03	9.140331E-03	4.575195E-05
6.212108E+03	9.146802E-03	4.584377E-05
6.222063E+03	9.122645E-03	4.579195E-05
6.232018E+03	9.074174E-03	4.562777E-05
6.241974E+03	9.011501E-03	4.540166E-05
6.251929E+03	8.945358E-03	4.516748E-05
6.261884E+03	8.884541E-03	4.496968E-05
6.271839E+03	8.835346E-03	4.484047E-05
6.281795E+03	8.801543E-03	4.479959E-05
6.291750E+03	8.784300E-03	4.485384E-05
6.301705E+03	8.782515E-03	4.499855E-05
6.311661E+03	8.793791E-03	4.522247E-05
6.321616E+03	8.814660E-03	4.550872E-05
6.331571E+03	8.840787E-03	4.583571E-05
6.341527E+03	8.868147E-03	4.618317E-05
6.351482E+03	8.892908E-03	4.653141E-05
6.361437E+03	8.911898E-03	4.686335E-05
6.371392E+03	8.922803E-03	4.716583E-05
6.381348E+03	8.924623E-03	4.743233E-05
6.391303E+03	8.916963E-03	4.765936E-05
6.401258E+03	8.900692E-03	4.785013E-05
6.411214E+03	8.877168E-03	4.801050E-05
6.421169E+03	8.848247E-03	4.814920E-05
6.431124E+03	8.816126E-03	4.827704E-05
6.441080E+03	8.782856E-03	4.840431E-05
6.451035E+03	8.750466E-03	4.854146E-05
6.460990E+03	8.720323E-03	4.869556E-05
6.470945E+03	8.694081E-03	4.887553E-05
6.480901E+03	8.672838E-03	4.908738E-05
6.490856E+03	8.657379E-03	4.933560E-05
6.500811E+03	8.648700E-03	4.962599E-05
6.510767E+03	8.647150E-03	4.996083E-05
6.520722E+03	8.652349E-03	5.033824E-05
6.530677E+03	8.663683E-03	5.075493E-05
6.540633E+03	8.680495E-03	5.120728E-05
6.550588E+03	8.701663E-03	5.168883E-05
6.560543E+03	8.725978E-03	5.219243E-05
6.570498E+03	8.752174E-03	5.271039E-05
6.580454E+03	8.778640E-03	5.323273E-05
6.590409E+03	8.803457E-03	5.374734E-05
6.600364E+03	8.824888E-03	5.424292E-05
6.610320E+03	8.840924E-03	5.470620E-05
6.620275E+03	8.850118E-03	5.512709E-05
6.630230E+03	8.850606E-03	5.549268E-05
6.640186E+03	8.841024E-03	5.579292E-05
6.650141E+03	8.820483E-03	5.602058E-05
6.660096E+03	8.788267E-03	5.616942E-05
6.670051E+03	8.743877E-03	5.623452E-05
6.680007E+03	8.687439E-03	5.621497E-05
6.689962E+03	8.619621E-03	5.611346E-05
6.699917E+03	8.541165E-03	5.593330E-05
6.709873E+03	8.453447E-03	5.568214E-05
6.719828E+03	8.357646E-03	5.536662E-05
6.729783E+03	8.255748E-03	5.499892E-05
6.739739E+03	8.149235E-03	5.458824E-05
6.749694E+03	8.040231E-03	5.414833E-05
6.759649E+03	7.930219E-03	5.368894E-05
6.769604E+03	7.821033E-03	5.322246E-05
6.779560E+03	7.714241E-03	5.275971E-05
6.789515E+03	7.611133E-03	5.230986E-05
6.799470E+03	7.513141E-03	5.188321E-05
6.809426E+03	7.421271E-03	5.148730E-05
6.819381E+03	7.336607E-03	5.113034E-05
6.829336E+03	7.259606E-03	5.081625E-05
6.839292E+03	7.191097E-03	5.055164E-05
6.849247E+03	7.131337E-03	5.033909E-05
6.859202E+03	7.080523E-03	5.018084E-05
6.869157E+03	7.038573E-03	5.007706E-05
6.879113E+03	7.005647E-03	5.002965E-05
6.889068E+03	6.981051E-03	5.003435E-05
6.899023E+03	6.964729E-03	5.009139E-05
6.908979E+03	6.955811E-03	5.019508E-05
6.918934E+03	6.953517E-03	5.034027E-05
6.928889E+03	6.957077E-03	5.052179E-05
6.938845E+03	6.965330E-03	5.073149E-05
6.948800E+03	6.977148E-03	5.096140E-05
6.958755E+03	6.991336E-03	5.120289E-05
6.968710E+03	7.006654E-03	5.144692E-05
6.978666E+03	7.021862E-03	5.168438E-05
6.988621E+03	7.035587E-03	5.190506E-05
6.998576E+03	7.046935E-03	5.210222E-05
7.008532E+03	7.054402E-03	5.226456E-05
7.018487E+03	7.057434E-03	5.238776E-05
7.028442E+03	7.054790E-03	5.246240E-05
7.038398E+03	7.046129E-03	5.248573E-05
7.048353E+03	7.030890E-03	5.245337E-05
7.058308E+03	7.008886E-03	5.236375E-05
7.068263E+03	6.980296E-03	5.221808E-05
7.078219E+03	6.945125E-03	5.201631E-05
7.088174E+03	6.904026E-03	5.176330E-05
7.098129E+03	6.857565E-03	5.146329E-05
7.108085E+03	6.806759E-03	5.112399E-05
7.118040E+03	6.752576E-03	5.075276E-05
7.127995E+03	6.695870E-03	5.035619E-05
7.137951E+03	6.637753E-03	4.994279E-05
7.147906E+03	6.578877E-03	4.951770E-05
7.157861E+03	6.520298E-03	4.908906E-05
7.167817E+03	6.462549E-03	4.866111E-05
7.177772E+03	6.406048E-03	4.823723E-05
7.187727E+03	6.351327E-03	4.782164E-05
7.197682E+03	6.298679E-03	4.741677E-05
7.207638E+03	6.248175E-03	4.702336E-05
7.217593E+03	6.199935E-03	4.664251E-05
7.227548E+03	6.153995E-03	4.627469E-05
7.237504E+03	6.110350E-03	4.592005E-05
7.247459E+03	6.068948E-03	4.557836E-05
7.257414E+03	6.029436E-03	4.524716E-05
7.267370E+03	5.991917E-03	4.492738E-05
7.277325E+03	5.956123E-03	4.461718E-05
7.287280E+03	5.921746E-03	4.431442E-05
7.297235E+03	5.888720E-03	4.401878E-05
7.307191E+03	5.856609E-03	4.372717E-05
7.317146E+03	5.825217E-03	4.343830E-05
7.327101E+03	5.794323E-03	4.315070E-05
7.337057E+03	5.763541E-03	4.286170E-05
7.347012E+03	5.732720E-03	4.257039E-05
7.356967E+03	5.701243E-03	4.227238E-05
7.366923E+03	5.669109E-03	4.196792E-05
7.376878E+03	5.635882E-03	4.165401E-05
7.386833E+03	5.601537E-03	4.133073E-05
7.396788E+03	5.565919E-03	4.099720E-05
7.406744E+03	5.529067E-03	4.065397E-05
7.416699E+03	5.491244E-03	4.030325E-05
7.426654E+03	5.452552E-03	3.994605E-05
7.436610E+03	5.413637E-03	3.958735E-05
7.446565E+03	5.374613E-03	3.922821E-05
7.456520E+03	5.336053E-03	3.887304E-05
7.466476E+03	5.298194E-03	3.852369E-05
7.476431E+03	5.261728E-03	3.818530E-05
7.486386E+03	5.226817E-03	3.785910E-05
7.496341E+03	5.193698E-03	3.754688E-05
7.506297E+03	5.162676E-03	3.725090E-05
7.516252E+03	5.133872E-03	3.697208E-05
7.526207E+03	5.107530E-03	3.671220E-05
7.536163E+03	5.083315E-03	3.646892E-05
7.546118E+03	5.061065E-03	3.624113E-05
7.556073E+03	5.040532E-03	3.602713E-05
7.566029E+03	5.021208E-03	3.582338E-05
7.575984E+03	5.002790E-03	3.562784E-05
7.585939E+03	4.984771E-03	3.543703E-05
7.595894E+03	4.966896E-03	3.524929E-05
7.605850E+03	4.948510E-03	3.506015E-05
7.615805E+03	4.929574E-03	3.486951E-05
7.625760E+03	4.909751E-03	3.467520E-05
7.635716E+03	4.889300E-03	3.447925E-05
7.645671E+03	4.868157E-03	3.428140E-05
7.655626E+03	4.846805E-03	3.408525E-05
7.665582E+03	4.825472E-03	3.389258E-05
7.675537E+03	4.804528E-03	3.370617E-05
7.685492E+03	4.784377E-03	3.352904E-05
7.695447E+03	4.765395E-03	3.336398E-05
7.705403E+03	4.747915E-03	3.321347E-05
7.715358E+03	4.732077E-03	3.307868E-05
7.725313E+03	4.718263E-03	3.296243E-05
