#wls	flux	fluxerr
1.592848E+03	1.703187E-03	4.891485E-05
1.632669E+03	1.742405E-03	4.975666E-05
1.672491E+03	1.784674E-03	5.066558E-05
1.712312E+03	1.830074E-03	5.164176E-05
1.752133E+03	1.878847E-03	5.268974E-05
1.791954E+03	1.931388E-03	5.381812E-05
1.831775E+03	1.987445E-03	5.501709E-05
1.871597E+03	2.047568E-03	5.629912E-05
1.911418E+03	2.111827E-03	5.766293E-05
1.951239E+03	2.180293E-03	5.910719E-05
1.991060E+03	2.252892E-03	6.062644E-05
2.030881E+03	2.329718E-03	6.221969E-05
2.070703E+03	2.410574E-03	6.387798E-05
2.110524E+03	2.494987E-03	6.558521E-05
2.150345E+03	2.582973E-03	6.733826E-05
2.190166E+03	2.673982E-03	6.911929E-05
2.229987E+03	2.767662E-03	7.091590E-05
2.269809E+03	2.864005E-03	7.272466E-05
2.309630E+03	2.963337E-03	7.455047E-05
2.349451E+03	3.066460E-03	7.640971E-05
2.389272E+03	3.174359E-03	7.832236E-05
2.429093E+03	3.288067E-03	8.030848E-05
2.468915E+03	3.409100E-03	8.239869E-05
2.508736E+03	3.538625E-03	8.461344E-05
2.548557E+03	3.678191E-03	8.698079E-05
2.588378E+03	3.829048E-03	8.951992E-05
2.628199E+03	3.992743E-03	9.225523E-05
2.668021E+03	4.170738E-03	9.520710E-05
2.707842E+03	4.364720E-03	9.839901E-05
2.747663E+03	4.576658E-03	1.018583E-04
2.787484E+03	4.808710E-03	1.056139E-04
2.827305E+03	5.063407E-03	1.096996E-04
2.867127E+03	5.344017E-03	1.141613E-04
2.906948E+03	5.654043E-03	1.190455E-04
2.946769E+03	5.998303E-03	1.244207E-04
2.986590E+03	6.381848E-03	1.303534E-04
2.996546E+03	6.484751E-03	1.319366E-04
3.006501E+03	6.590495E-03	1.335591E-04
3.016456E+03	6.699175E-03	1.352219E-04
3.026411E+03	6.811183E-03	1.369321E-04
3.036367E+03	6.926466E-03	1.386879E-04
3.046322E+03	7.045117E-03	1.404901E-04
3.056277E+03	7.167394E-03	1.423429E-04
3.066233E+03	7.293243E-03	1.442444E-04
3.076188E+03	7.422768E-03	1.461956E-04
3.086143E+03	7.556385E-03	1.482037E-04
3.096099E+03	7.693886E-03	1.502634E-04
3.106054E+03	7.835531E-03	1.523788E-04
3.116009E+03	7.981262E-03	1.545475E-04
3.125964E+03	8.131664E-03	1.567799E-04
3.135920E+03	8.286350E-03	1.590671E-04
3.145875E+03	8.445576E-03	1.614129E-04
3.155830E+03	8.609590E-03	1.638207E-04
3.165786E+03	8.778474E-03	1.662907E-04
3.175741E+03	8.951965E-03	1.688167E-04
3.185696E+03	9.130619E-03	1.714078E-04
3.195652E+03	9.314142E-03	1.740570E-04
3.205607E+03	9.502728E-03	1.767667E-04
3.215562E+03	9.696207E-03	1.795322E-04
3.225517E+03	9.894724E-03	1.823548E-04
3.235473E+03	1.009822E-02	1.852320E-04
3.245428E+03	1.030662E-02	1.881610E-04
3.255383E+03	1.051959E-02	1.911345E-04
3.265339E+03	1.073715E-02	1.941513E-04
3.275294E+03	1.095905E-02	1.972056E-04
3.285249E+03	1.118481E-02	2.002879E-04
3.295205E+03	1.141426E-02	2.033936E-04
3.305160E+03	1.164676E-02	2.065104E-04
3.315115E+03	1.188195E-02	2.096311E-04
3.325070E+03	1.211901E-02	2.127406E-04
3.335026E+03	1.235721E-02	2.158252E-04
3.344981E+03	1.259568E-02	2.188695E-04
3.354936E+03	1.283343E-02	2.218564E-04
3.364892E+03	1.306934E-02	2.247665E-04
3.374847E+03	1.330195E-02	2.275753E-04
3.384802E+03	1.353005E-02	2.302629E-04
3.394758E+03	1.375169E-02	2.327976E-04
3.404713E+03	1.396557E-02	2.351592E-04
3.414668E+03	1.416947E-02	2.373126E-04
3.424623E+03	1.436149E-02	2.392286E-04
3.434579E+03	1.453960E-02	2.408768E-04
3.444534E+03	1.470154E-02	2.422239E-04
3.454489E+03	1.484543E-02	2.432433E-04
3.464445E+03	1.496903E-02	2.439035E-04
3.474400E+03	1.507017E-02	2.441748E-04
3.484355E+03	1.514701E-02	2.440340E-04
3.494311E+03	1.519772E-02	2.434584E-04
3.504266E+03	1.522107E-02	2.424356E-04
3.514221E+03	1.521540E-02	2.409469E-04
3.524176E+03	1.518012E-02	2.389912E-04
3.534132E+03	1.511467E-02	2.365679E-04
3.544087E+03	1.501908E-02	2.336860E-04
3.554042E+03	1.489352E-02	2.303564E-04
3.563998E+03	1.473888E-02	2.266016E-04
3.573953E+03	1.455717E-02	2.224603E-04
3.583908E+03	1.435069E-02	2.179751E-04
3.593864E+03	1.412388E-02	2.132202E-04
3.603819E+03	1.388182E-02	2.082773E-04
3.613774E+03	1.362980E-02	2.032300E-04
3.623729E+03	1.337344E-02	1.981644E-04
3.633685E+03	1.311846E-02	1.931660E-04
3.643640E+03	1.287016E-02	1.883119E-04
3.653595E+03	1.263402E-02	1.836804E-04
3.663551E+03	1.241476E-02	1.793360E-04
3.673506E+03	1.221721E-02	1.753436E-04
3.683461E+03	1.204573E-02	1.717594E-04
3.693417E+03	1.190450E-02	1.686354E-04
3.703372E+03	1.179716E-02	1.660142E-04
3.713327E+03	1.172726E-02	1.639364E-04
3.723282E+03	1.169801E-02	1.624358E-04
3.733238E+03	1.171245E-02	1.615434E-04
3.743193E+03	1.177328E-02	1.612837E-04
3.753148E+03	1.188303E-02	1.616784E-04
3.763104E+03	1.204383E-02	1.627427E-04
3.773059E+03	1.225745E-02	1.644861E-04
3.783014E+03	1.252559E-02	1.669166E-04
3.792970E+03	1.284875E-02	1.700256E-04
3.802925E+03	1.322715E-02	1.738011E-04
3.812880E+03	1.366006E-02	1.782179E-04
3.822835E+03	1.414512E-02	1.832307E-04
3.832791E+03	1.467884E-02	1.887801E-04
3.842746E+03	1.525618E-02	1.947887E-04
3.852701E+03	1.587015E-02	2.011558E-04
3.862657E+03	1.651177E-02	2.077587E-04
3.872612E+03	1.716994E-02	2.144516E-04
3.882567E+03	1.783201E-02	2.210732E-04
3.892523E+03	1.848372E-02	2.274477E-04
3.902478E+03	1.910988E-02	2.333928E-04
3.912433E+03	1.969505E-02	2.387290E-04
3.922388E+03	2.022442E-02	2.432899E-04
3.932344E+03	2.068491E-02	2.469354E-04
3.942299E+03	2.106556E-02	2.495550E-04
3.952254E+03	2.135806E-02	2.510735E-04
3.962210E+03	2.155807E-02	2.514649E-04
3.972165E+03	2.166422E-02	2.507390E-04
3.982120E+03	2.167900E-02	2.489502E-04
3.992076E+03	2.160795E-02	2.461869E-04
4.002031E+03	2.145912E-02	2.425636E-04
4.011986E+03	2.124317E-02	2.382209E-04
4.021941E+03	2.097156E-02	2.333046E-04
4.031897E+03	2.065676E-02	2.279672E-04
4.041852E+03	2.031098E-02	2.223539E-04
4.051807E+03	1.994588E-02	2.165997E-04
4.061763E+03	1.957213E-02	2.108244E-04
4.071718E+03	1.919921E-02	2.051316E-04
4.081673E+03	1.883474E-02	1.996016E-04
4.091629E+03	1.848494E-02	1.942978E-04
4.101584E+03	1.815482E-02	1.892681E-04
4.111539E+03	1.784727E-02	1.845375E-04
4.121494E+03	1.756435E-02	1.801211E-04
4.131450E+03	1.730676E-02	1.760198E-04
4.141405E+03	1.707421E-02	1.722243E-04
4.151360E+03	1.686562E-02	1.687174E-04
4.161316E+03	1.667932E-02	1.654765E-04
4.171271E+03	1.651325E-02	1.624760E-04
4.181226E+03	1.636515E-02	1.596888E-04
4.191182E+03	1.623277E-02	1.570890E-04
4.201137E+03	1.611399E-02	1.546527E-04
4.211092E+03	1.600683E-02	1.523578E-04
4.221047E+03	1.590986E-02	1.501881E-04
4.231003E+03	1.582228E-02	1.481342E-04
4.240958E+03	1.574362E-02	1.461896E-04
4.250913E+03	1.567352E-02	1.443492E-04
4.260869E+03	1.561243E-02	1.426155E-04
4.270824E+03	1.556087E-02	1.409913E-04
4.280779E+03	1.551943E-02	1.394802E-04
4.290735E+03	1.548861E-02	1.380848E-04
4.300690E+03	1.546843E-02	1.368032E-04
4.310645E+03	1.545869E-02	1.356319E-04
4.320601E+03	1.545774E-02	1.345548E-04
4.330556E+03	1.546342E-02	1.335516E-04
4.340511E+03	1.547211E-02	1.325900E-04
4.350466E+03	1.547923E-02	1.316306E-04
4.360422E+03	1.547978E-02	1.306313E-04
4.370377E+03	1.547063E-02	1.295672E-04
4.380332E+03	1.545538E-02	1.284700E-04
4.390288E+03	1.544437E-02	1.274259E-04
4.400243E+03	1.544872E-02	1.265253E-04
4.410198E+03	1.547830E-02	1.258455E-04
4.420154E+03	1.554119E-02	1.254473E-04
4.430109E+03	1.564277E-02	1.253680E-04
4.440064E+03	1.578607E-02	1.256254E-04
4.450019E+03	1.597181E-02	1.262186E-04
4.459975E+03	1.619795E-02	1.271250E-04
4.469930E+03	1.646068E-02	1.283089E-04
4.479885E+03	1.675398E-02	1.297187E-04
4.489841E+03	1.706983E-02	1.312889E-04
4.499796E+03	1.739876E-02	1.329444E-04
4.509751E+03	1.772998E-02	1.346025E-04
4.519707E+03	1.805179E-02	1.361754E-04
4.529662E+03	1.835205E-02	1.375746E-04
4.539617E+03	1.861852E-02	1.387127E-04
4.549572E+03	1.883953E-02	1.395090E-04
4.559528E+03	1.900519E-02	1.398974E-04
4.569483E+03	1.910669E-02	1.398213E-04
4.579438E+03	1.913775E-02	1.392436E-04
4.589394E+03	1.909523E-02	1.381506E-04
4.599349E+03	1.897885E-02	1.365492E-04
4.609304E+03	1.879086E-02	1.344640E-04
4.619260E+03	1.853747E-02	1.319471E-04
4.629215E+03	1.822610E-02	1.290577E-04
4.639170E+03	1.786704E-02	1.258737E-04
4.649125E+03	1.747106E-02	1.224749E-04
4.659081E+03	1.704923E-02	1.189409E-04
4.669036E+03	1.661200E-02	1.153457E-04
4.678991E+03	1.616846E-02	1.117523E-04
4.688947E+03	1.572612E-02	1.082117E-04
4.698902E+03	1.528957E-02	1.047538E-04
4.708857E+03	1.486093E-02	1.013908E-04
4.718813E+03	1.443972E-02	9.811701E-05
4.728768E+03	1.402260E-02	9.490721E-05
4.738723E+03	1.360531E-02	9.173071E-05
4.748678E+03	1.318280E-02	8.855183E-05
4.758634E+03	1.275292E-02	8.535502E-05
4.768589E+03	1.231857E-02	8.215853E-05
4.778544E+03	1.188922E-02	7.902429E-05
4.788500E+03	1.147715E-02	7.603172E-05
4.798455E+03	1.109361E-02	7.325278E-05
4.808410E+03	1.074709E-02	7.074027E-05
4.818366E+03	1.044342E-02	6.852920E-05
4.828321E+03	1.018535E-02	6.663398E-05
4.838276E+03	9.972985E-03	6.505184E-05
4.848231E+03	9.804614E-03	6.376831E-05
4.858187E+03	9.677188E-03	6.276057E-05
4.868142E+03	9.586480E-03	6.199851E-05
4.878097E+03	9.527867E-03	6.144990E-05
4.888053E+03	9.496142E-03	6.107917E-05
4.898008E+03	9.486421E-03	6.085324E-05
4.907963E+03	9.494071E-03	6.074104E-05
4.917919E+03	9.514961E-03	6.071506E-05
4.927874E+03	9.545885E-03	6.075397E-05
4.937829E+03	9.584266E-03	6.084071E-05
4.947784E+03	9.628591E-03	6.096508E-05
4.957740E+03	9.677915E-03	6.112062E-05
4.967695E+03	9.732071E-03	6.130585E-05
4.977650E+03	9.791330E-03	6.152206E-05
4.987606E+03	9.856626E-03	6.177466E-05
4.997561E+03	9.928666E-03	6.206764E-05
5.007516E+03	1.000840E-02	6.240645E-05
5.017472E+03	1.009679E-02	6.279657E-05
5.027427E+03	1.019437E-02	6.324077E-05
5.037382E+03	1.030152E-02	6.374085E-05
5.047337E+03	1.041834E-02	6.429686E-05
5.057293E+03	1.054465E-02	6.490708E-05
5.067248E+03	1.067989E-02	6.556765E-05
5.077203E+03	1.082345E-02	6.627426E-05
5.087159E+03	1.097468E-02	6.702256E-05
5.097114E+03	1.113257E-02	6.780589E-05
5.107069E+03	1.129655E-02	6.862049E-05
5.117025E+03	1.146556E-02	6.945964E-05
5.126980E+03	1.163922E-02	7.032084E-05
5.136935E+03	1.181693E-02	7.120020E-05
5.146890E+03	1.199822E-02	7.209486E-05
5.156846E+03	1.218260E-02	7.300176E-05
5.166801E+03	1.236934E-02	7.391645E-05
5.176756E+03	1.255758E-02	7.483389E-05
5.186712E+03	1.274597E-02	7.574613E-05
5.196667E+03	1.293316E-02	7.664530E-05
5.206622E+03	1.311667E-02	7.751707E-05
5.216578E+03	1.329409E-02	7.834766E-05
5.226533E+03	1.346254E-02	7.912077E-05
5.236488E+03	1.361899E-02	7.981935E-05
5.246443E+03	1.376014E-02	8.042506E-05
5.256399E+03	1.388328E-02	8.092325E-05
5.266354E+03	1.398574E-02	8.129957E-05
5.276309E+03	1.406539E-02	8.154313E-05
5.286265E+03	1.412046E-02	8.164518E-05
5.296220E+03	1.414996E-02	8.160152E-05
5.306175E+03	1.415294E-02	8.140832E-05
5.316131E+03	1.412923E-02	8.106627E-05
5.326086E+03	1.407908E-02	8.057827E-05
5.336041E+03	1.400348E-02	7.995155E-05
5.345996E+03	1.390339E-02	7.919301E-05
5.355952E+03	1.378095E-02	7.831608E-05
5.365907E+03	1.363859E-02	7.733580E-05
5.375862E+03	1.347928E-02	7.626999E-05
5.385818E+03	1.330617E-02	7.513716E-05
5.395773E+03	1.312298E-02	7.395905E-05
5.405728E+03	1.293378E-02	7.275895E-05
5.415684E+03	1.274229E-02	7.155805E-05
5.425639E+03	1.255287E-02	7.038099E-05
5.435594E+03	1.236970E-02	6.925112E-05
5.445549E+03	1.219740E-02	6.819411E-05
5.455505E+03	1.204098E-02	6.723738E-05
5.465460E+03	1.190374E-02	6.639824E-05
5.475415E+03	1.178584E-02	6.567639E-05
5.485371E+03	1.168190E-02	6.504097E-05
5.495326E+03	1.158471E-02	6.445085E-05
5.505281E+03	1.148656E-02	6.386256E-05
5.515237E+03	1.138138E-02	6.324172E-05
5.525192E+03	1.126463E-02	6.256257E-05
5.535147E+03	1.113410E-02	6.181230E-05
5.545102E+03	1.098916E-02	6.098687E-05
5.555058E+03	1.083116E-02	6.009337E-05
5.565013E+03	1.066279E-02	5.914617E-05
5.574968E+03	1.048807E-02	5.816696E-05
5.584924E+03	1.031137E-02	5.717958E-05
5.594879E+03	1.013769E-02	5.621125E-05
5.604834E+03	9.972157E-03	5.528995E-05
5.614790E+03	9.819633E-03	5.444219E-05
5.624745E+03	9.684716E-03	5.369309E-05
5.634700E+03	9.571259E-03	5.306366E-05
5.644655E+03	9.482719E-03	5.257278E-05
5.654611E+03	9.421849E-03	5.223543E-05
5.664566E+03	9.390581E-03	5.206206E-05
5.674521E+03	9.390107E-03	5.205905E-05
5.684477E+03	9.420869E-03	5.222863E-05
5.694432E+03	9.482752E-03	5.256993E-05
5.704387E+03	9.574471E-03	5.307559E-05
5.714343E+03	9.694350E-03	5.373610E-05
5.724298E+03	9.839770E-03	5.453668E-05
5.734253E+03	1.000726E-02	5.545784E-05
5.744209E+03	1.019297E-02	5.647798E-05
5.754164E+03	1.039257E-02	5.757286E-05
5.764119E+03	1.060112E-02	5.871479E-05
5.774074E+03	1.081338E-02	5.987460E-05
5.784030E+03	1.102414E-02	6.102321E-05
5.793985E+03	1.122767E-02	6.212872E-05
5.803940E+03	1.141871E-02	6.316183E-05
5.813896E+03	1.159222E-02	6.409477E-05
5.823851E+03	1.174376E-02	6.490293E-05
5.833806E+03	1.186980E-02	6.556688E-05
5.843762E+03	1.196732E-02	6.607019E-05
5.853717E+03	1.203483E-02	6.640489E-05
5.863672E+03	1.207143E-02	6.656631E-05
5.873627E+03	1.207724E-02	6.655562E-05
5.883583E+03	1.205321E-02	6.637844E-05
5.893538E+03	1.200093E-02	6.604403E-05
5.903493E+03	1.192262E-02	6.556519E-05
5.913449E+03	1.182044E-02	6.495433E-05
5.923404E+03	1.169705E-02	6.422664E-05
5.933359E+03	1.155537E-02	6.339864E-05
5.943315E+03	1.139818E-02	6.248615E-05
5.953270E+03	1.122795E-02	6.150321E-05
5.963225E+03	1.104762E-02	6.046640E-05
5.973180E+03	1.085932E-02	5.938788E-05
5.983136E+03	1.066579E-02	5.828291E-05
5.993091E+03	1.046880E-02	5.716167E-05
6.003046E+03	1.027034E-02	5.603524E-05
6.013002E+03	1.007229E-02	5.491433E-05
6.022957E+03	9.876184E-03	5.380745E-05
6.032912E+03	9.683612E-03	5.272355E-05
6.042868E+03	9.495998E-03	5.167058E-05
6.052823E+03	9.315388E-03	5.065988E-05
6.062778E+03	9.143530E-03	4.970111E-05
6.072733E+03	8.983035E-03	4.880860E-05
6.082689E+03	8.836489E-03	4.799654E-05
6.092644E+03	8.706678E-03	4.728020E-05
6.102599E+03	8.596550E-03	4.667573E-05
6.112555E+03	8.508929E-03	4.619869E-05
6.122510E+03	8.445892E-03	4.586059E-05
6.132465E+03	8.408677E-03	4.566850E-05
6.142421E+03	8.397357E-03	4.562327E-05
6.152376E+03	8.409834E-03	4.571406E-05
6.162331E+03	8.442227E-03	4.592037E-05
6.172286E+03	8.488311E-03	4.620884E-05
6.182242E+03	8.539638E-03	4.653391E-05
6.192197E+03	8.585781E-03	4.683909E-05
6.202152E+03	8.615801E-03	4.706481E-05
6.212108E+03	8.620715E-03	4.716183E-05
6.222063E+03	8.597532E-03	4.711333E-05
6.232018E+03	8.551164E-03	4.694562E-05
6.241974E+03	8.489874E-03	4.670346E-05
6.251929E+03	8.422620E-03	4.643572E-05
6.261884E+03	8.357209E-03	4.618528E-05
6.271839E+03	8.299575E-03	4.598503E-05
6.281795E+03	8.253602E-03	4.585685E-05
6.291750E+03	8.221020E-03	4.581091E-05
6.301705E+03	8.201522E-03	4.584619E-05
6.311661E+03	8.193680E-03	4.595543E-05
6.321616E+03	8.195127E-03	4.612606E-05
6.331571E+03	8.202738E-03	4.634111E-05
6.341527E+03	8.213614E-03	4.658467E-05
6.351482E+03	8.224844E-03	4.684049E-05
6.361437E+03	8.233971E-03	4.709435E-05
6.371392E+03	8.239163E-03	4.733516E-05
6.381348E+03	8.239542E-03	4.755711E-05
6.391303E+03	8.234579E-03	4.775629E-05
6.401258E+03	8.224755E-03	4.793458E-05
6.411214E+03	8.210832E-03	4.809556E-05
6.421169E+03	8.193916E-03	4.824486E-05
6.431124E+03	8.175398E-03	4.838996E-05
6.441080E+03	8.156545E-03	4.853773E-05
6.451035E+03	8.138586E-03	4.869503E-05
6.460990E+03	8.122186E-03	4.886545E-05
6.470945E+03	8.108246E-03	4.905413E-05
6.480901E+03	8.097171E-03	4.926334E-05
6.490856E+03	8.089082E-03	4.949365E-05
6.500811E+03	8.084236E-03	4.974655E-05
6.510767E+03	8.082769E-03	5.002277E-05
6.520722E+03	8.084767E-03	5.032284E-05
6.530677E+03	8.090179E-03	5.064639E-05
6.540633E+03	8.098883E-03	5.099266E-05
6.550588E+03	8.110275E-03	5.135779E-05
6.560543E+03	8.123644E-03	5.173719E-05
6.570498E+03	8.138190E-03	5.212559E-05
6.580454E+03	8.152768E-03	5.251541E-05
6.590409E+03	8.165915E-03	5.289682E-05
6.600364E+03	8.176328E-03	5.326085E-05
6.610320E+03	8.182390E-03	5.359630E-05
6.620275E+03	8.182938E-03	5.389471E-05
6.630230E+03	8.176369E-03	5.414458E-05
6.640186E+03	8.161534E-03	5.433719E-05
6.650141E+03	8.137670E-03	5.446629E-05
6.660096E+03	8.104151E-03	5.452645E-05
6.670051E+03	8.060550E-03	5.451354E-05
6.680007E+03	8.006923E-03	5.442670E-05
6.689962E+03	7.943832E-03	5.426852E-05
6.699917E+03	7.871875E-03	5.404200E-05
6.709873E+03	7.792234E-03	5.375427E-05
6.719828E+03	7.705915E-03	5.341144E-05
6.729783E+03	7.614628E-03	5.302468E-05
6.739739E+03	7.519639E-03	5.260232E-05
6.749694E+03	7.422775E-03	5.215681E-05
6.759649E+03	7.325291E-03	5.169683E-05
6.769604E+03	7.228765E-03	5.123351E-05
6.779560E+03	7.134530E-03	5.077645E-05
6.789515E+03	7.043652E-03	5.033350E-05
6.799470E+03	6.957333E-03	4.991362E-05
6.809426E+03	6.876350E-03	4.952284E-05
6.819381E+03	6.801567E-03	4.916789E-05
6.829336E+03	6.733283E-03	4.885148E-05
6.839292E+03	6.672151E-03	4.857894E-05
6.849247E+03	6.618290E-03	4.835171E-05
6.859202E+03	6.571832E-03	4.817134E-05
6.869157E+03	6.532657E-03	4.803751E-05
6.879113E+03	6.500895E-03	4.795170E-05
6.889068E+03	6.475955E-03	4.791006E-05
6.899023E+03	6.457845E-03	4.791309E-05
6.908979E+03	6.445837E-03	4.795580E-05
6.918934E+03	6.439308E-03	4.803389E-05
6.928889E+03	6.437637E-03	4.814301E-05
6.938845E+03	6.439856E-03	4.827615E-05
6.948800E+03	6.445035E-03	4.842650E-05
6.958755E+03	6.452182E-03	4.858670E-05
6.968710E+03	6.460287E-03	4.874919E-05
6.978666E+03	6.468353E-03	4.890644E-05
6.988621E+03	6.475279E-03	4.905006E-05
6.998576E+03	6.480380E-03	4.917480E-05
7.008532E+03	6.482420E-03	4.927117E-05
7.018487E+03	6.481019E-03	4.933615E-05
7.028442E+03	6.475154E-03	4.936186E-05
7.038398E+03	6.464619E-03	4.934659E-05
7.048353E+03	6.448984E-03	4.928696E-05
7.058308E+03	6.428126E-03	4.918194E-05
7.068263E+03	6.402236E-03	4.903294E-05
7.078219E+03	6.371270E-03	4.883962E-05
7.088174E+03	6.335745E-03	4.860592E-05
7.098129E+03	6.296045E-03	4.833487E-05
7.108085E+03	6.252917E-03	4.803224E-05
7.118040E+03	6.207052E-03	4.770346E-05
7.127995E+03	6.159032E-03	4.735314E-05
7.137951E+03	6.109677E-03	4.698773E-05
7.147906E+03	6.059402E-03	4.661058E-05
7.157861E+03	6.009047E-03	4.622834E-05
7.167817E+03	5.958993E-03	4.584411E-05
7.177772E+03	5.909546E-03	4.546045E-05
7.187727E+03	5.861160E-03	4.508100E-05
7.197682E+03	5.814098E-03	4.470798E-05
7.207638E+03	5.768447E-03	4.434223E-05
7.217593E+03	5.724370E-03	4.398519E-05
7.227548E+03	5.681998E-03	4.363802E-05
7.237504E+03	5.641402E-03	4.330143E-05
7.247459E+03	5.602636E-03	4.297597E-05
7.257414E+03	5.565449E-03	4.265990E-05
7.267370E+03	5.530034E-03	4.235483E-05
7.277325E+03	5.496195E-03	4.205940E-05
7.287280E+03	5.463704E-03	4.177202E-05
7.297235E+03	5.432547E-03	4.149272E-05
7.307191E+03	5.402350E-03	4.121879E-05
7.317146E+03	5.372952E-03	4.094917E-05
7.327101E+03	5.344164E-03	4.068258E-05
7.337057E+03	5.315661E-03	4.041668E-05
7.347012E+03	5.287312E-03	4.015067E-05
7.356967E+03	5.258546E-03	3.988040E-05
7.366923E+03	5.229372E-03	3.960612E-05
7.376878E+03	5.199381E-03	3.932493E-05
7.386833E+03	5.168580E-03	3.903711E-05
7.396788E+03	5.136851E-03	3.874197E-05
7.406744E+03	5.104282E-03	3.844039E-05
7.416699E+03	5.071155E-03	3.813472E-05
7.426654E+03	5.037608E-03	3.782619E-05
7.436610E+03	5.004262E-03	3.751966E-05
7.446565E+03	4.971221E-03	3.721610E-05
7.456520E+03	4.939019E-03	3.691968E-05
7.466476E+03	4.907842E-03	3.663188E-05
7.476431E+03	4.878273E-03	3.635711E-05
7.486386E+03	4.850390E-03	3.609602E-05
7.496341E+03	4.824332E-03	3.584966E-05
7.506297E+03	4.800263E-03	3.561931E-05
7.516252E+03	4.778161E-03	3.540485E-05
7.526207E+03	4.758118E-03	3.520699E-05
7.536163E+03	4.739678E-03	3.502243E-05
7.546118E+03	4.722567E-03	3.484920E-05
7.556073E+03	4.706419E-03	3.468470E-05
7.566029E+03	4.690608E-03	3.452441E-05
7.575984E+03	4.674729E-03	3.436547E-05
7.585939E+03	4.658256E-03	3.420415E-05
7.595894E+03	4.641087E-03	3.403985E-05
7.605850E+03	4.622841E-03	3.386993E-05
7.615805E+03	4.603696E-03	3.369584E-05
7.625760E+03	4.583513E-03	3.351673E-05
7.635716E+03	4.562665E-03	3.333547E-05
7.645671E+03	4.541165E-03	3.315232E-05
7.655626E+03	4.519501E-03	3.297097E-05
7.665582E+03	4.497897E-03	3.279319E-05
7.675537E+03	4.476696E-03	3.262162E-05
7.685492E+03	4.456244E-03	3.245890E-05
7.695447E+03	4.436874E-03	3.230760E-05
7.705403E+03	4.418853E-03	3.216978E-05
7.715358E+03	4.402293E-03	3.204641E-05
7.725313E+03	4.387518E-03	3.193997E-05
