#wls	flux	fluxerr
1.592848E+03	2.134918E-03	3.641130E-05
1.632669E+03	2.201458E-03	3.734023E-05
1.672491E+03	2.272616E-03	3.832951E-05
1.712312E+03	2.349486E-03	3.939557E-05
1.752133E+03	2.432076E-03	4.053626E-05
1.791954E+03	2.520834E-03	4.175657E-05
1.831775E+03	2.616423E-03	4.306479E-05
1.871597E+03	2.719075E-03	4.446175E-05
1.911418E+03	2.829242E-03	4.595165E-05
1.951239E+03	2.947377E-03	4.753838E-05
1.991060E+03	3.073503E-03	4.921857E-05
2.030881E+03	3.208298E-03	5.099915E-05
2.070703E+03	3.351353E-03	5.286943E-05
2.110524E+03	3.502267E-03	5.481884E-05
2.150345E+03	3.660857E-03	5.684031E-05
2.190166E+03	3.826288E-03	5.891663E-05
2.229987E+03	3.997081E-03	6.102105E-05
2.269809E+03	4.173503E-03	6.315392E-05
2.309630E+03	4.355392E-03	6.530886E-05
2.349451E+03	4.544345E-03	6.750567E-05
2.389272E+03	4.742199E-03	6.976655E-05
2.429093E+03	4.950802E-03	7.211271E-05
2.468915E+03	5.172255E-03	7.456774E-05
2.508736E+03	5.407808E-03	7.714155E-05
2.548557E+03	5.659619E-03	7.985585E-05
2.588378E+03	5.928779E-03	8.271588E-05
2.628199E+03	6.216657E-03	8.572962E-05
2.668021E+03	6.524216E-03	8.889833E-05
2.707842E+03	6.852695E-03	9.222598E-05
2.747663E+03	7.202947E-03	9.571019E-05
2.787484E+03	7.575669E-03	9.934552E-05
2.827305E+03	7.972053E-03	1.031321E-04
2.867127E+03	8.393131E-03	1.070667E-04
2.906948E+03	8.840640E-03	1.111538E-04
2.946769E+03	9.316780E-03	1.154019E-04
2.986590E+03	9.824171E-03	1.198225E-04
2.996546E+03	9.956176E-03	1.209553E-04
3.006501E+03	1.009037E-02	1.220999E-04
3.016456E+03	1.022675E-02	1.232560E-04
3.026411E+03	1.036556E-02	1.244260E-04
3.036367E+03	1.050656E-02	1.256068E-04
3.046322E+03	1.064975E-02	1.267978E-04
3.056277E+03	1.079560E-02	1.280042E-04
3.066233E+03	1.094363E-02	1.292199E-04
3.076188E+03	1.109430E-02	1.304499E-04
3.086143E+03	1.124737E-02	1.316909E-04
3.096099E+03	1.140281E-02	1.329422E-04
3.106054E+03	1.156108E-02	1.342085E-04
3.116009E+03	1.172168E-02	1.354838E-04
3.125964E+03	1.188482E-02	1.367699E-04
3.135920E+03	1.205047E-02	1.380659E-04
3.145875E+03	1.221880E-02	1.393735E-04
3.155830E+03	1.238955E-02	1.406890E-04
3.165786E+03	1.256288E-02	1.420139E-04
3.175741E+03	1.273872E-02	1.433471E-04
3.185696E+03	1.291678E-02	1.446845E-04
3.195652E+03	1.309718E-02	1.460274E-04
3.205607E+03	1.328006E-02	1.473766E-04
3.215562E+03	1.346485E-02	1.487254E-04
3.225517E+03	1.365187E-02	1.500769E-04
3.235473E+03	1.384051E-02	1.514242E-04
3.245428E+03	1.403130E-02	1.527726E-04
3.255383E+03	1.422336E-02	1.541120E-04
3.265339E+03	1.441671E-02	1.554425E-04
3.275294E+03	1.461135E-02	1.567638E-04
3.285249E+03	1.480678E-02	1.580703E-04
3.295205E+03	1.500295E-02	1.593611E-04
3.305160E+03	1.519905E-02	1.606276E-04
3.315115E+03	1.539495E-02	1.618682E-04
3.325070E+03	1.559022E-02	1.630785E-04
3.335026E+03	1.578436E-02	1.642533E-04
3.344981E+03	1.597678E-02	1.653866E-04
3.354936E+03	1.616655E-02	1.664691E-04
3.364892E+03	1.635287E-02	1.674928E-04
3.374847E+03	1.653477E-02	1.684484E-04
3.384802E+03	1.671111E-02	1.693251E-04
3.394758E+03	1.688038E-02	1.701086E-04
3.404713E+03	1.704114E-02	1.707852E-04
3.414668E+03	1.719172E-02	1.713402E-04
3.424623E+03	1.733014E-02	1.717553E-04
3.434579E+03	1.745451E-02	1.720138E-04
3.444534E+03	1.756285E-02	1.720988E-04
3.454489E+03	1.765275E-02	1.719896E-04
3.464445E+03	1.772253E-02	1.716728E-04
3.474400E+03	1.777019E-02	1.711327E-04
3.484355E+03	1.779392E-02	1.703556E-04
3.494311E+03	1.779239E-02	1.693331E-04
3.504266E+03	1.776418E-02	1.680560E-04
3.514221E+03	1.770867E-02	1.665231E-04
3.524176E+03	1.762549E-02	1.647358E-04
3.534132E+03	1.751474E-02	1.626996E-04
3.544087E+03	1.737705E-02	1.604254E-04
3.554042E+03	1.721361E-02	1.579286E-04
3.563998E+03	1.702600E-02	1.552282E-04
3.573953E+03	1.681675E-02	1.523517E-04
3.583908E+03	1.658865E-02	1.493276E-04
3.593864E+03	1.634538E-02	1.461927E-04
3.603819E+03	1.609064E-02	1.429823E-04
3.613774E+03	1.582922E-02	1.397409E-04
3.623729E+03	1.556538E-02	1.365072E-04
3.633685E+03	1.530429E-02	1.333269E-04
3.643640E+03	1.505101E-02	1.302432E-04
3.653595E+03	1.481100E-02	1.273019E-04
3.663551E+03	1.458939E-02	1.245446E-04
3.673506E+03	1.439182E-02	1.220161E-04
3.683461E+03	1.422368E-02	1.197574E-04
3.693417E+03	1.409065E-02	1.178112E-04
3.703372E+03	1.399817E-02	1.162164E-04
3.713327E+03	1.395206E-02	1.150141E-04
3.723282E+03	1.395761E-02	1.142393E-04
3.733238E+03	1.402068E-02	1.139307E-04
3.743193E+03	1.414685E-02	1.141232E-04
3.753148E+03	1.434189E-02	1.148520E-04
3.763104E+03	1.461151E-02	1.161502E-04
3.773059E+03	1.496166E-02	1.180519E-04
3.783014E+03	1.539788E-02	1.205861E-04
3.792970E+03	1.592593E-02	1.237825E-04
3.802925E+03	1.655101E-02	1.276651E-04
3.812880E+03	1.727758E-02	1.322510E-04
3.822835E+03	1.810890E-02	1.375471E-04
3.832791E+03	1.904629E-02	1.435450E-04
3.842746E+03	2.008899E-02	1.502206E-04
3.852701E+03	2.123263E-02	1.575229E-04
3.862657E+03	2.246836E-02	1.653695E-04
3.872612E+03	2.378263E-02	1.736453E-04
3.882567E+03	2.515583E-02	1.821951E-04
3.892523E+03	2.656247E-02	1.908256E-04
3.902478E+03	2.797059E-02	1.993040E-04
3.912433E+03	2.934389E-02	2.073738E-04
3.922388E+03	3.064205E-02	2.147594E-04
3.932344E+03	3.182461E-02	2.211933E-04
3.942299E+03	3.285213E-02	2.264246E-04
3.952254E+03	3.369013E-02	2.302453E-04
3.962210E+03	3.431216E-02	2.325099E-04
3.972165E+03	3.470061E-02	2.331381E-04
3.982120E+03	3.484959E-02	2.321319E-04
3.992076E+03	3.476474E-02	2.295702E-04
4.002031E+03	3.446289E-02	2.256039E-04
4.011986E+03	3.397009E-02	2.204394E-04
4.021941E+03	3.331948E-02	2.143229E-04
4.031897E+03	3.254878E-02	2.075215E-04
4.041852E+03	3.169689E-02	2.003017E-04
4.051807E+03	3.080072E-02	1.929080E-04
4.061763E+03	2.989509E-02	1.855639E-04
4.071718E+03	2.900875E-02	1.784475E-04
4.081673E+03	2.816588E-02	1.717025E-04
4.091629E+03	2.738434E-02	1.654295E-04
4.101584E+03	2.667721E-02	1.596962E-04
4.111539E+03	2.605264E-02	1.545386E-04
4.121494E+03	2.551489E-02	1.499680E-04
4.131450E+03	2.506504E-02	1.459763E-04
4.141405E+03	2.470164E-02	1.425410E-04
4.151360E+03	2.442151E-02	1.396301E-04
4.161316E+03	2.421979E-02	1.372028E-04
4.171271E+03	2.409035E-02	1.352126E-04
4.181226E+03	2.402652E-02	1.336112E-04
4.191182E+03	2.402117E-02	1.323497E-04
4.201137E+03	2.406713E-02	1.313803E-04
4.211092E+03	2.415655E-02	1.306532E-04
4.221047E+03	2.428144E-02	1.301196E-04
4.231003E+03	2.443312E-02	1.297289E-04
4.240958E+03	2.460265E-02	1.294307E-04
4.250913E+03	2.477976E-02	1.291698E-04
4.260869E+03	2.495338E-02	1.288886E-04
4.270824E+03	2.511140E-02	1.285265E-04
4.280779E+03	2.524048E-02	1.280189E-04
4.290735E+03	2.532761E-02	1.273051E-04
4.300690E+03	2.535900E-02	1.263229E-04
4.310645E+03	2.532202E-02	1.250181E-04
4.320601E+03	2.520545E-02	1.233453E-04
4.330556E+03	2.500111E-02	1.212756E-04
4.340511E+03	2.470311E-02	1.187919E-04
4.350466E+03	2.431082E-02	1.159028E-04
4.360422E+03	2.382860E-02	1.126398E-04
4.370377E+03	2.326967E-02	1.090746E-04
4.380332E+03	2.267033E-02	1.053837E-04
4.390288E+03	2.208389E-02	1.018162E-04
4.400243E+03	2.156129E-02	9.860223E-05
4.410198E+03	2.114443E-02	9.592346E-05
4.420154E+03	2.086661E-02	9.391715E-05
4.430109E+03	2.075132E-02	9.267265E-05
4.440064E+03	2.081384E-02	9.224039E-05
4.450019E+03	2.106300E-02	9.264107E-05
4.459975E+03	2.150125E-02	9.386729E-05
4.469930E+03	2.212713E-02	9.589526E-05
4.479885E+03	2.293305E-02	9.867589E-05
4.489841E+03	2.390700E-02	1.021429E-04
4.499796E+03	2.503025E-02	1.062040E-04
4.509751E+03	2.627746E-02	1.107417E-04
4.519707E+03	2.761640E-02	1.156134E-04
4.529662E+03	2.900792E-02	1.206518E-04
4.539617E+03	3.040854E-02	1.256761E-04
4.549572E+03	3.177056E-02	1.304931E-04
4.559528E+03	3.304660E-02	1.349155E-04
4.569483E+03	3.419186E-02	1.387709E-04
4.579438E+03	3.516703E-02	1.419128E-04
4.589394E+03	3.594029E-02	1.442278E-04
4.599349E+03	3.648872E-02	1.456397E-04
4.609304E+03	3.679841E-02	1.461094E-04
4.619260E+03	3.686382E-02	1.456305E-04
4.629215E+03	3.668680E-02	1.442252E-04
4.639170E+03	3.627538E-02	1.419386E-04
4.649125E+03	3.564442E-02	1.388405E-04
4.659081E+03	3.481390E-02	1.350186E-04
4.669036E+03	3.380901E-02	1.305784E-04
4.678991E+03	3.265977E-02	1.256412E-04
4.688947E+03	3.139875E-02	1.203358E-04
4.698902E+03	3.005952E-02	1.147923E-04
4.708857E+03	2.867467E-02	1.091346E-04
4.718813E+03	2.727371E-02	1.034732E-04
4.728768E+03	2.588132E-02	9.789856E-05
4.738723E+03	2.451700E-02	9.247990E-05
4.748678E+03	2.319592E-02	8.726960E-05
4.758634E+03	2.193085E-02	8.231065E-05
4.768589E+03	2.073921E-02	7.766344E-05
4.778544E+03	1.964634E-02	7.341776E-05
4.788500E+03	1.867619E-02	6.965797E-05
4.798455E+03	1.784498E-02	6.643950E-05
4.808410E+03	1.716247E-02	6.379383E-05
4.818366E+03	1.663202E-02	6.172909E-05
4.828321E+03	1.625148E-02	6.023348E-05
4.838276E+03	1.601525E-02	5.928291E-05
4.848231E+03	1.591367E-02	5.883883E-05
4.858187E+03	1.593384E-02	5.885125E-05
4.868142E+03	1.605844E-02	5.925437E-05
4.878097E+03	1.626694E-02	5.997104E-05
4.888053E+03	1.653387E-02	6.090637E-05
4.898008E+03	1.683146E-02	6.195734E-05
4.907963E+03	1.713141E-02	6.301937E-05
4.917919E+03	1.740820E-02	6.399841E-05
4.927874E+03	1.764006E-02	6.481431E-05
4.937829E+03	1.781131E-02	6.540946E-05
4.947784E+03	1.791295E-02	6.575080E-05
4.957740E+03	1.794248E-02	6.582922E-05
4.967695E+03	1.790464E-02	6.566200E-05
4.977650E+03	1.781029E-02	6.528894E-05
4.987606E+03	1.767434E-02	6.476457E-05
4.997561E+03	1.751338E-02	6.414942E-05
5.007516E+03	1.734452E-02	6.350596E-05
5.017472E+03	1.718319E-02	6.289035E-05
5.027427E+03	1.704209E-02	6.234881E-05
5.037382E+03	1.693044E-02	6.191465E-05
5.047337E+03	1.685434E-02	6.160987E-05
5.057293E+03	1.681728E-02	6.144676E-05
5.067248E+03	1.681998E-02	6.142759E-05
5.077203E+03	1.686226E-02	6.155130E-05
5.087159E+03	1.694321E-02	6.181418E-05
5.097114E+03	1.706248E-02	6.221448E-05
5.107069E+03	1.722055E-02	6.275353E-05
5.117025E+03	1.741898E-02	6.343660E-05
5.126980E+03	1.766035E-02	6.427255E-05
5.136935E+03	1.794846E-02	6.527467E-05
5.146890E+03	1.828696E-02	6.645564E-05
5.156846E+03	1.867984E-02	6.782930E-05
5.166801E+03	1.912987E-02	6.940501E-05
5.176756E+03	1.963846E-02	7.118700E-05
5.186712E+03	2.020466E-02	7.317102E-05
5.196667E+03	2.082472E-02	7.534258E-05
5.206622E+03	2.149124E-02	7.767408E-05
5.216578E+03	2.219422E-02	8.012854E-05
5.226533E+03	2.291926E-02	8.265327E-05
5.236488E+03	2.365024E-02	8.518962E-05
5.246443E+03	2.436807E-02	8.766855E-05
5.256399E+03	2.505320E-02	9.001966E-05
5.266354E+03	2.568546E-02	9.217086E-05
5.276309E+03	2.624580E-02	9.405440E-05
5.286265E+03	2.671784E-02	9.561262E-05
5.296220E+03	2.708752E-02	9.679656E-05
5.306175E+03	2.734547E-02	9.757433E-05
5.316131E+03	2.748600E-02	9.792757E-05
5.326086E+03	2.750772E-02	9.785338E-05
5.336041E+03	2.741356E-02	9.736431E-05
5.345996E+03	2.720995E-02	9.648542E-05
5.355952E+03	2.690611E-02	9.525155E-05
5.365907E+03	2.651282E-02	9.370286E-05
5.375862E+03	2.604327E-02	9.188783E-05
5.385818E+03	2.551142E-02	8.985738E-05
5.395773E+03	2.493308E-02	8.766858E-05
5.405728E+03	2.432515E-02	8.538198E-05
5.415684E+03	2.370856E-02	8.307183E-05
5.425639E+03	2.310754E-02	8.082334E-05
5.435594E+03	2.255228E-02	7.874193E-05
5.445549E+03	2.207712E-02	7.694670E-05
5.455505E+03	2.172069E-02	7.557085E-05
5.465460E+03	2.152209E-02	7.474781E-05
5.475415E+03	2.149370E-02	7.451725E-05
5.485371E+03	2.158841E-02	7.471271E-05
5.495326E+03	2.174317E-02	7.511376E-05
5.505281E+03	2.190069E-02	7.552147E-05
5.515237E+03	2.201240E-02	7.576820E-05
5.525192E+03	2.204235E-02	7.573098E-05
5.535147E+03	2.196740E-02	7.533181E-05
5.545102E+03	2.177733E-02	7.453738E-05
5.555058E+03	2.147288E-02	7.335231E-05
5.565013E+03	2.106430E-02	7.181372E-05
5.574968E+03	2.056838E-02	6.998071E-05
5.584924E+03	2.000580E-02	6.792531E-05
5.594879E+03	1.939918E-02	6.572561E-05
5.604834E+03	1.877172E-02	6.346113E-05
5.614790E+03	1.814492E-02	6.120497E-05
5.624745E+03	1.753870E-02	5.902434E-05
5.634700E+03	1.697037E-02	5.697705E-05
5.644655E+03	1.645483E-02	5.511236E-05
5.654611E+03	1.600435E-02	5.347015E-05
5.664566E+03	1.562897E-02	5.208243E-05
5.674521E+03	1.533690E-02	5.097475E-05
5.684477E+03	1.513459E-02	5.016639E-05
5.694432E+03	1.502658E-02	4.967007E-05
5.704387E+03	1.501626E-02	4.949434E-05
5.714343E+03	1.510519E-02	4.964158E-05
5.724298E+03	1.529307E-02	5.010785E-05
5.734253E+03	1.557780E-02	5.088320E-05
5.744209E+03	1.595403E-02	5.194711E-05
5.754164E+03	1.641400E-02	5.327133E-05
5.764119E+03	1.694603E-02	5.481516E-05
5.774074E+03	1.753528E-02	5.652811E-05
5.784030E+03	1.816326E-02	5.834863E-05
5.793985E+03	1.880854E-02	6.020649E-05
5.803940E+03	1.944791E-02	6.202679E-05
5.813896E+03	2.005726E-02	6.373290E-05
5.823851E+03	2.061410E-02	6.525449E-05
5.833806E+03	2.109883E-02	6.653161E-05
5.843762E+03	2.149640E-02	6.751955E-05
5.853717E+03	2.179794E-02	6.819386E-05
5.863672E+03	2.199911E-02	6.854475E-05
5.873627E+03	2.210153E-02	6.858136E-05
5.883583E+03	2.211034E-02	6.832358E-05
5.893538E+03	2.203396E-02	6.780133E-05
5.903493E+03	2.188307E-02	6.705109E-05
5.913449E+03	2.166870E-02	6.610984E-05
5.923404E+03	2.140284E-02	6.501698E-05
5.933359E+03	2.109709E-02	6.381010E-05
5.943315E+03	2.076163E-02	6.252194E-05
5.953270E+03	2.040648E-02	6.118418E-05
5.963225E+03	2.004044E-02	5.982430E-05
5.973180E+03	1.967097E-02	5.846541E-05
5.983136E+03	1.930466E-02	5.712754E-05
5.993091E+03	1.894689E-02	5.582685E-05
6.003046E+03	1.860154E-02	5.457481E-05
6.013002E+03	1.827141E-02	5.337950E-05
6.022957E+03	1.795818E-02	5.224561E-05
6.032912E+03	1.766149E-02	5.117191E-05
6.042868E+03	1.738110E-02	5.015739E-05
6.052823E+03	1.711498E-02	4.919602E-05
6.062778E+03	1.686183E-02	4.828393E-05
6.072733E+03	1.661950E-02	4.741488E-05
6.082689E+03	1.638735E-02	4.658703E-05
6.092644E+03	1.616538E-02	4.580040E-05
6.102599E+03	1.595607E-02	4.506194E-05
6.112555E+03	1.576347E-02	4.438301E-05
6.122510E+03	1.559361E-02	4.378039E-05
6.132465E+03	1.545391E-02	4.327464E-05
6.142421E+03	1.535096E-02	4.288379E-05
6.152376E+03	1.528907E-02	4.261952E-05
6.162331E+03	1.526623E-02	4.247598E-05
6.172286E+03	1.527148E-02	4.242238E-05
6.182242E+03	1.528286E-02	4.239749E-05
6.192197E+03	1.526645E-02	4.230722E-05
6.202152E+03	1.517752E-02	4.202787E-05
6.212108E+03	1.497265E-02	4.143946E-05
6.222063E+03	1.465567E-02	4.055255E-05
6.232018E+03	1.429280E-02	3.954986E-05
6.241974E+03	1.394846E-02	3.860874E-05
6.251929E+03	1.366891E-02	3.785652E-05
6.261884E+03	1.348103E-02	3.736735E-05
6.271839E+03	1.339581E-02	3.717184E-05
6.281795E+03	1.341302E-02	3.726999E-05
6.291750E+03	1.352464E-02	3.764064E-05
6.301705E+03	1.371777E-02	3.824916E-05
6.311661E+03	1.397560E-02	3.905019E-05
6.321616E+03	1.427971E-02	3.999371E-05
6.331571E+03	1.461031E-02	4.102558E-05
6.341527E+03	1.494726E-02	4.209020E-05
6.351482E+03	1.527099E-02	4.313299E-05
6.361437E+03	1.556337E-02	4.410280E-05
6.371392E+03	1.580867E-02	4.495437E-05
6.381348E+03	1.599427E-02	4.565026E-05
6.391303E+03	1.611206E-02	4.616495E-05
6.401258E+03	1.615815E-02	4.648449E-05
6.411214E+03	1.613349E-02	4.660859E-05
6.421169E+03	1.604339E-02	4.654926E-05
6.431124E+03	1.589636E-02	4.632814E-05
6.441080E+03	1.570459E-02	4.597782E-05
6.451035E+03	1.548177E-02	4.553596E-05
6.460990E+03	1.524292E-02	4.504485E-05
6.470945E+03	1.500291E-02	4.454719E-05
6.480901E+03	1.477706E-02	4.408786E-05
6.490856E+03	1.457922E-02	4.370834E-05
6.500811E+03	1.442227E-02	4.344799E-05
6.510767E+03	1.431296E-02	4.332848E-05
6.520722E+03	1.425140E-02	4.335170E-05
6.530677E+03	1.423576E-02	4.351368E-05
6.540633E+03	1.426250E-02	4.380504E-05
6.550588E+03	1.432769E-02	4.421514E-05
6.560543E+03	1.442636E-02	4.472975E-05
6.570498E+03	1.455173E-02	4.532878E-05
6.580454E+03	1.469692E-02	4.599139E-05
6.590409E+03	1.485321E-02	4.669052E-05
6.600364E+03	1.501226E-02	4.739983E-05
6.610320E+03	1.516465E-02	4.808910E-05
6.620275E+03	1.530207E-02	4.873112E-05
6.630230E+03	1.541679E-02	4.930010E-05
6.640186E+03	1.550203E-02	4.977289E-05
6.650141E+03	1.555303E-02	5.013264E-05
6.660096E+03	1.556618E-02	5.036597E-05
6.670051E+03	1.553980E-02	5.046576E-05
6.680007E+03	1.547413E-02	5.043109E-05
6.689962E+03	1.537038E-02	5.026436E-05
6.699917E+03	1.523106E-02	4.997244E-05
6.709873E+03	1.506061E-02	4.956865E-05
6.719828E+03	1.486314E-02	4.906569E-05
6.729783E+03	1.464407E-02	4.848071E-05
6.739739E+03	1.440872E-02	4.783086E-05
6.749694E+03	1.416209E-02	4.713247E-05
6.759649E+03	1.390914E-02	4.640208E-05
6.769604E+03	1.365448E-02	4.565512E-05
6.779560E+03	1.340257E-02	4.490676E-05
6.789515E+03	1.315709E-02	4.416969E-05
6.799470E+03	1.292149E-02	4.345589E-05
6.809426E+03	1.269942E-02	4.277816E-05
6.819381E+03	1.249399E-02	4.214744E-05
6.829336E+03	1.230794E-02	4.157353E-05
6.839292E+03	1.214346E-02	4.106430E-05
6.849247E+03	1.200255E-02	4.062705E-05
6.859202E+03	1.188709E-02	4.026850E-05
6.869157E+03	1.179803E-02	3.999230E-05
6.879113E+03	1.173609E-02	3.980116E-05
6.889068E+03	1.170141E-02	3.969582E-05
6.899023E+03	1.169359E-02	3.967504E-05
6.908979E+03	1.171164E-02	3.973555E-05
6.918934E+03	1.175400E-02	3.987200E-05
6.928889E+03	1.181821E-02	4.007598E-05
6.938845E+03	1.190136E-02	4.033751E-05
6.948800E+03	1.200006E-02	4.064491E-05
6.958755E+03	1.211005E-02	4.098353E-05
6.968710E+03	1.222597E-02	4.133509E-05
6.978666E+03	1.234298E-02	4.168306E-05
6.988621E+03	1.245527E-02	4.200775E-05
6.998576E+03	1.255732E-02	4.229056E-05
7.008532E+03	1.264368E-02	4.251323E-05
7.018487E+03	1.270997E-02	4.266140E-05
7.028442E+03	1.275249E-02	4.272298E-05
7.038398E+03	1.276859E-02	4.268972E-05
7.048353E+03	1.275665E-02	4.255689E-05
7.058308E+03	1.271667E-02	4.232526E-05
7.068263E+03	1.265025E-02	4.200107E-05
7.078219E+03	1.255976E-02	4.159308E-05
7.088174E+03	1.244863E-02	4.111354E-05
7.098129E+03	1.232184E-02	4.057976E-05
7.108085E+03	1.218399E-02	4.000771E-05
7.118040E+03	1.203995E-02	3.941397E-05
7.127995E+03	1.189397E-02	3.881305E-05
7.137951E+03	1.175024E-02	3.821896E-05
7.147906E+03	1.161198E-02	3.764254E-05
7.157861E+03	1.148143E-02	3.709120E-05
7.167817E+03	1.136031E-02	3.657062E-05
7.177772E+03	1.124989E-02	3.608491E-05
7.187727E+03	1.115033E-02	3.563461E-05
7.197682E+03	1.106154E-02	3.521942E-05
7.207638E+03	1.098304E-02	3.483778E-05
7.217593E+03	1.091406E-02	3.448728E-05
7.227548E+03	1.085345E-02	3.416429E-05
7.237504E+03	1.080060E-02	3.386701E-05
7.247459E+03	1.075418E-02	3.359136E-05
7.257414E+03	1.071265E-02	3.333269E-05
7.267370E+03	1.067559E-02	3.308994E-05
7.277325E+03	1.064132E-02	3.285814E-05
7.287280E+03	1.060936E-02	3.263615E-05
7.297235E+03	1.057875E-02	3.242132E-05
7.307191E+03	1.054890E-02	3.221227E-05
7.317146E+03	1.051920E-02	3.200750E-05
7.327101E+03	1.048938E-02	3.180664E-05
7.337057E+03	1.045924E-02	3.160954E-05
7.347012E+03	1.042856E-02	3.141600E-05
7.356967E+03	1.039656E-02	3.122408E-05
7.366923E+03	1.036290E-02	3.103327E-05
7.376878E+03	1.032633E-02	3.084030E-05
7.386833E+03	1.028558E-02	3.064190E-05
7.396788E+03	1.023922E-02	3.043431E-05
7.406744E+03	1.018618E-02	3.021486E-05
7.416699E+03	1.012525E-02	2.998048E-05
7.426654E+03	1.005588E-02	2.972997E-05
7.436610E+03	9.977835E-03	2.946309E-05
7.446565E+03	9.890621E-03	2.917868E-05
7.456520E+03	9.794616E-03	2.887784E-05
7.466476E+03	9.690875E-03	2.856338E-05
7.476431E+03	9.580011E-03	2.823677E-05
7.486386E+03	9.463890E-03	2.790309E-05
7.496341E+03	9.344302E-03	2.756722E-05
7.506297E+03	9.223330E-03	2.723485E-05
7.516252E+03	9.103291E-03	2.691241E-05
7.526207E+03	8.986664E-03	2.660683E-05
7.536163E+03	8.876191E-03	2.632588E-05
7.546118E+03	8.774195E-03	2.607618E-05
7.556073E+03	8.683311E-03	2.586537E-05
7.566029E+03	8.605608E-03	2.569953E-05
7.575984E+03	8.543300E-03	2.558531E-05
7.585939E+03	8.497463E-03	2.552607E-05
7.595894E+03	8.466552E-03	2.551741E-05
7.605850E+03	8.448471E-03	2.555327E-05
7.615805E+03	8.440930E-03	2.562698E-05
7.625760E+03	8.441578E-03	2.573163E-05
7.635716E+03	8.448729E-03	2.586228E-05
7.645671E+03	8.460611E-03	2.601366E-05
7.655626E+03	8.476409E-03	2.618341E-05
7.665582E+03	8.494845E-03	2.636769E-05
7.675537E+03	8.515565E-03	2.656550E-05
7.685492E+03	8.538072E-03	2.677536E-05
7.695447E+03	8.562479E-03	2.699772E-05
7.705403E+03	8.588817E-03	2.723278E-05
7.715358E+03	8.617175E-03	2.748094E-05
7.725313E+03	8.647378E-03	2.774177E-05
