#wls	flux	fluxerr
1.592848E+03	2.225480E-03	2.996210E-05
1.632669E+03	2.297675E-03	3.079269E-05
1.672491E+03	2.375415E-03	3.168476E-05
1.712312E+03	2.458736E-03	3.263727E-05
1.752133E+03	2.548610E-03	3.366154E-05
1.791954E+03	2.645072E-03	3.475620E-05
1.831775E+03	2.748626E-03	3.592597E-05
1.871597E+03	2.860251E-03	3.718147E-05
1.911418E+03	2.979978E-03	3.852075E-05
1.951239E+03	3.108543E-03	3.995079E-05
1.991060E+03	3.246207E-03	4.147214E-05
2.030881E+03	3.393694E-03	4.309111E-05
2.070703E+03	3.550765E-03	4.480145E-05
2.110524E+03	3.717398E-03	4.659961E-05
2.150345E+03	3.893317E-03	4.847875E-05
2.190166E+03	4.076994E-03	5.041653E-05
2.229987E+03	4.266641E-03	5.238779E-05
2.269809E+03	4.461380E-03	5.437902E-05
2.309630E+03	4.661281E-03	5.638840E-05
2.349451E+03	4.869056E-03	5.844569E-05
2.389272E+03	5.086899E-03	6.057338E-05
2.429093E+03	5.316721E-03	6.278964E-05
2.468915E+03	5.560860E-03	6.511674E-05
2.508736E+03	5.820112E-03	6.755784E-05
2.548557E+03	6.095662E-03	7.012014E-05
2.588378E+03	6.388082E-03	7.280307E-05
2.628199E+03	6.698049E-03	7.560674E-05
2.668021E+03	7.025321E-03	7.852047E-05
2.707842E+03	7.369459E-03	8.153124E-05
2.747663E+03	7.729521E-03	8.462045E-05
2.787484E+03	8.104043E-03	8.776406E-05
2.827305E+03	8.491220E-03	9.093484E-05
2.867127E+03	8.889319E-03	9.410698E-05
2.906948E+03	9.296607E-03	9.725534E-05
2.946769E+03	9.711690E-03	1.003590E-04
2.986590E+03	1.013313E-02	1.033973E-04
2.996546E+03	1.023956E-02	1.041467E-04
3.006501E+03	1.034601E-02	1.048878E-04
3.016456E+03	1.045284E-02	1.056242E-04
3.026411E+03	1.055973E-02	1.063524E-04
3.036367E+03	1.066680E-02	1.070737E-04
3.046322E+03	1.077417E-02	1.077892E-04
3.056277E+03	1.088127E-02	1.084931E-04
3.066233E+03	1.098865E-02	1.091910E-04
3.076188E+03	1.109575E-02	1.098770E-04
3.086143E+03	1.120287E-02	1.105543E-04
3.096099E+03	1.130965E-02	1.112192E-04
3.106054E+03	1.141595E-02	1.118703E-04
3.116009E+03	1.152206E-02	1.125105E-04
3.125964E+03	1.162738E-02	1.131338E-04
3.135920E+03	1.173241E-02	1.137452E-04
3.145875E+03	1.183631E-02	1.143366E-04
3.155830E+03	1.193957E-02	1.149126E-04
3.165786E+03	1.204155E-02	1.154674E-04
3.175741E+03	1.214252E-02	1.160033E-04
3.185696E+03	1.224204E-02	1.165164E-04
3.195652E+03	1.234014E-02	1.170071E-04
3.205607E+03	1.243660E-02	1.174734E-04
3.215562E+03	1.253121E-02	1.179135E-04
3.225517E+03	1.262356E-02	1.183235E-04
3.235473E+03	1.271382E-02	1.187055E-04
3.245428E+03	1.280159E-02	1.190557E-04
3.255383E+03	1.288685E-02	1.193744E-04
3.265339E+03	1.296917E-02	1.196577E-04
3.275294E+03	1.304835E-02	1.199042E-04
3.285249E+03	1.312439E-02	1.201140E-04
3.295205E+03	1.319690E-02	1.202841E-04
3.305160E+03	1.326590E-02	1.204149E-04
3.315115E+03	1.333124E-02	1.205055E-04
3.325070E+03	1.339239E-02	1.205515E-04
3.335026E+03	1.344966E-02	1.205561E-04
3.344981E+03	1.350277E-02	1.205172E-04
3.354936E+03	1.355162E-02	1.204344E-04
3.364892E+03	1.359599E-02	1.203063E-04
3.374847E+03	1.363527E-02	1.201280E-04
3.384802E+03	1.366955E-02	1.199007E-04
3.394758E+03	1.369828E-02	1.196205E-04
3.404713E+03	1.372090E-02	1.192828E-04
3.414668E+03	1.373694E-02	1.188845E-04
3.424623E+03	1.374568E-02	1.184201E-04
3.434579E+03	1.374605E-02	1.178813E-04
3.444534E+03	1.373752E-02	1.172645E-04
3.454489E+03	1.371905E-02	1.165621E-04
3.464445E+03	1.369009E-02	1.157706E-04
3.474400E+03	1.365005E-02	1.148861E-04
3.484355E+03	1.359846E-02	1.139063E-04
3.494311E+03	1.353506E-02	1.128303E-04
3.504266E+03	1.345979E-02	1.116592E-04
3.514221E+03	1.337267E-02	1.103944E-04
3.524176E+03	1.327396E-02	1.090398E-04
3.534132E+03	1.316431E-02	1.076020E-04
3.544087E+03	1.304439E-02	1.060880E-04
3.554042E+03	1.291529E-02	1.045077E-04
3.563998E+03	1.277804E-02	1.028709E-04
3.573953E+03	1.263419E-02	1.011908E-04
3.583908E+03	1.248541E-02	9.948176E-05
3.593864E+03	1.233390E-02	9.776193E-05
3.603819E+03	1.218174E-02	9.604797E-05
3.613774E+03	1.203141E-02	9.435963E-05
3.623729E+03	1.188524E-02	9.271486E-05
3.633685E+03	1.174604E-02	9.113504E-05
3.643640E+03	1.161663E-02	8.964109E-05
3.653595E+03	1.149996E-02	8.825441E-05
3.663551E+03	1.139913E-02	8.699725E-05
3.673506E+03	1.131736E-02	8.589203E-05
3.683461E+03	1.125789E-02	8.496075E-05
3.693417E+03	1.122426E-02	8.422718E-05
3.703372E+03	1.121995E-02	8.371405E-05
3.713327E+03	1.124886E-02	8.344656E-05
3.723282E+03	1.131472E-02	8.344787E-05
3.733238E+03	1.142143E-02	8.374191E-05
3.743193E+03	1.157307E-02	8.435295E-05
3.753148E+03	1.177360E-02	8.530401E-05
3.763104E+03	1.202690E-02	8.661652E-05
3.773059E+03	1.233716E-02	8.831364E-05
3.783014E+03	1.270817E-02	9.041477E-05
3.792970E+03	1.314382E-02	9.293935E-05
3.802925E+03	1.364782E-02	9.590498E-05
3.812880E+03	1.422294E-02	9.932187E-05
3.822835E+03	1.487091E-02	1.031926E-04
3.832791E+03	1.559272E-02	1.075141E-04
3.842746E+03	1.638685E-02	1.122663E-04
3.852701E+03	1.725034E-02	1.174192E-04
3.862657E+03	1.817689E-02	1.229208E-04
3.872612E+03	1.915715E-02	1.286999E-04
3.882567E+03	2.017735E-02	1.346573E-04
3.892523E+03	2.122009E-02	1.406722E-04
3.902478E+03	2.226346E-02	1.465971E-04
3.912433E+03	2.328208E-02	1.522659E-04
3.922388E+03	2.424816E-02	1.575014E-04
3.932344E+03	2.513371E-02	1.621299E-04
3.942299E+03	2.591089E-02	1.659839E-04
3.952254E+03	2.655496E-02	1.689205E-04
3.962210E+03	2.704621E-02	1.708333E-04
3.972165E+03	2.737132E-02	1.716592E-04
3.982120E+03	2.752353E-02	1.713786E-04
3.992076E+03	2.750447E-02	1.700250E-04
4.002031E+03	2.732306E-02	1.676763E-04
4.011986E+03	2.699512E-02	1.644508E-04
4.021941E+03	2.654176E-02	1.604963E-04
4.031897E+03	2.598835E-02	1.559819E-04
4.041852E+03	2.536115E-02	1.510777E-04
4.051807E+03	2.468714E-02	1.459534E-04
4.061763E+03	2.399191E-02	1.407654E-04
4.071718E+03	2.329794E-02	1.356477E-04
4.081673E+03	2.262410E-02	1.307091E-04
4.091629E+03	2.198576E-02	1.260352E-04
4.101584E+03	2.139512E-02	1.216907E-04
4.111539E+03	2.086015E-02	1.177141E-04
4.121494E+03	2.038651E-02	1.141298E-04
4.131450E+03	1.997733E-02	1.109470E-04
4.141405E+03	1.963365E-02	1.081628E-04
4.151360E+03	1.935512E-02	1.057667E-04
4.161316E+03	1.914001E-02	1.037406E-04
4.171271E+03	1.898548E-02	1.020609E-04
4.181226E+03	1.888771E-02	1.006994E-04
4.191182E+03	1.884284E-02	9.962809E-05
4.201137E+03	1.884614E-02	9.881546E-05
4.211092E+03	1.889286E-02	9.823055E-05
4.221047E+03	1.897762E-02	9.784012E-05
4.231003E+03	1.909460E-02	9.760959E-05
4.240958E+03	1.923727E-02	9.750186E-05
4.250913E+03	1.939856E-02	9.747838E-05
4.260869E+03	1.956984E-02	9.749399E-05
4.270824E+03	1.974168E-02	9.750104E-05
4.280779E+03	1.990333E-02	9.744720E-05
4.290735E+03	2.004242E-02	9.727404E-05
4.300690E+03	2.014619E-02	9.692334E-05
4.310645E+03	2.020230E-02	9.634111E-05
4.320601E+03	2.019928E-02	9.547939E-05
4.330556E+03	2.012806E-02	9.430338E-05
4.340511E+03	1.998299E-02	9.279554E-05
4.350466E+03	1.976355E-02	9.096291E-05
4.360422E+03	1.947516E-02	8.883937E-05
4.370377E+03	1.913090E-02	8.649256E-05
4.380332E+03	1.875247E-02	8.402646E-05
4.390288E+03	1.836912E-02	8.157495E-05
4.400243E+03	1.801154E-02	7.927362E-05
4.410198E+03	1.770846E-02	7.724459E-05
4.420154E+03	1.748526E-02	7.559110E-05
4.430109E+03	1.736311E-02	7.439451E-05
4.440064E+03	1.735714E-02	7.370759E-05
4.450019E+03	1.747884E-02	7.356561E-05
4.459975E+03	1.773640E-02	7.398877E-05
4.469930E+03	1.813248E-02	7.497349E-05
4.479885E+03	1.866721E-02	7.650587E-05
4.489841E+03	1.933823E-02	7.856228E-05
4.499796E+03	2.013895E-02	8.110278E-05
4.509751E+03	2.105915E-02	8.407440E-05
4.519707E+03	2.208413E-02	8.740828E-05
4.529662E+03	2.319349E-02	9.101561E-05
4.539617E+03	2.436080E-02	9.478728E-05
4.549572E+03	2.555481E-02	9.859944E-05
4.559528E+03	2.673883E-02	1.023117E-04
4.569483E+03	2.787344E-02	1.057781E-04
4.579438E+03	2.891800E-02	1.088529E-04
4.589394E+03	2.983509E-02	1.114075E-04
4.599349E+03	3.059049E-02	1.133289E-04
4.609304E+03	3.115612E-02	1.145302E-04
4.619260E+03	3.151143E-02	1.149549E-04
4.629215E+03	3.164462E-02	1.145790E-04
4.639170E+03	3.155127E-02	1.134058E-04
4.649125E+03	3.123638E-02	1.114715E-04
4.659081E+03	3.071223E-02	1.088366E-04
4.669036E+03	2.999810E-02	1.055838E-04
4.678991E+03	2.911983E-02	1.018160E-04
4.688947E+03	2.810699E-02	9.764571E-05
4.698902E+03	2.699308E-02	9.319546E-05
4.708857E+03	2.581348E-02	8.859072E-05
4.718813E+03	2.460375E-02	8.395417E-05
4.728768E+03	2.339639E-02	7.939491E-05
4.738723E+03	2.222110E-02	7.501013E-05
4.748678E+03	2.110326E-02	7.088026E-05
4.758634E+03	2.006401E-02	6.706992E-05
4.768589E+03	1.911895E-02	6.362381E-05
4.778544E+03	1.827942E-02	6.057231E-05
4.788500E+03	1.755322E-02	5.793398E-05
4.798455E+03	1.694349E-02	5.571231E-05
4.808410E+03	1.645053E-02	5.390203E-05
4.818366E+03	1.607276E-02	5.249229E-05
4.828321E+03	1.580704E-02	5.146783E-05
4.838276E+03	1.564880E-02	5.080948E-05
4.848231E+03	1.559207E-02	5.049419E-05
4.858187E+03	1.562923E-02	5.049421E-05
4.868142E+03	1.575119E-02	5.077777E-05
4.878097E+03	1.594625E-02	5.130526E-05
4.888053E+03	1.620005E-02	5.202906E-05
4.898008E+03	1.649508E-02	5.289210E-05
4.907963E+03	1.681132E-02	5.382969E-05
4.917919E+03	1.712634E-02	5.476992E-05
4.927874E+03	1.741644E-02	5.563712E-05
4.937829E+03	1.765927E-02	5.636021E-05
4.947784E+03	1.783695E-02	5.688248E-05
4.957740E+03	1.793589E-02	5.716090E-05
4.967695E+03	1.795016E-02	5.717671E-05
4.977650E+03	1.788291E-02	5.693996E-05
4.987606E+03	1.774408E-02	5.648200E-05
4.997561E+03	1.754777E-02	5.584738E-05
5.007516E+03	1.731027E-02	5.508738E-05
5.017472E+03	1.704896E-02	5.425672E-05
5.027427E+03	1.678044E-02	5.340761E-05
5.037382E+03	1.651920E-02	5.258557E-05
5.047337E+03	1.627753E-02	5.182916E-05
5.057293E+03	1.606521E-02	5.116912E-05
5.067248E+03	1.588787E-02	5.062298E-05
5.077203E+03	1.574913E-02	5.020202E-05
5.087159E+03	1.565157E-02	4.991418E-05
5.097114E+03	1.559731E-02	4.976613E-05
5.107069E+03	1.558793E-02	4.976279E-05
5.117025E+03	1.562606E-02	4.991251E-05
5.126980E+03	1.571453E-02	5.022432E-05
5.136935E+03	1.585723E-02	5.071070E-05
5.146890E+03	1.605805E-02	5.138417E-05
5.156846E+03	1.632084E-02	5.225722E-05
5.166801E+03	1.664966E-02	5.334290E-05
5.176756E+03	1.704732E-02	5.465048E-05
5.186712E+03	1.751490E-02	5.618350E-05
5.196667E+03	1.805162E-02	5.793969E-05
5.206622E+03	1.865401E-02	5.990798E-05
5.216578E+03	1.931464E-02	6.206454E-05
5.226533E+03	2.002223E-02	6.437312E-05
5.236488E+03	2.076262E-02	6.678807E-05
5.246443E+03	2.151771E-02	6.925090E-05
5.256399E+03	2.226639E-02	7.169332E-05
5.266354E+03	2.298569E-02	7.404091E-05
5.276309E+03	2.365240E-02	7.621835E-05
5.286265E+03	2.424371E-02	7.815153E-05
5.296220E+03	2.473839E-02	7.977131E-05
5.306175E+03	2.511920E-02	8.102149E-05
5.316131E+03	2.537272E-02	8.185819E-05
5.326086E+03	2.549086E-02	8.225474E-05
5.336041E+03	2.547177E-02	8.220478E-05
5.345996E+03	2.531934E-02	8.172062E-05
5.355952E+03	2.504288E-02	8.083211E-05
5.365907E+03	2.465867E-02	7.959188E-05
5.375862E+03	2.418674E-02	7.806463E-05
5.385818E+03	2.365112E-02	7.632815E-05
5.395773E+03	2.307805E-02	7.446743E-05
5.405728E+03	2.249563E-02	7.257340E-05
5.415684E+03	2.193270E-02	7.073941E-05
5.425639E+03	2.141983E-02	6.906420E-05
5.435594E+03	2.098552E-02	6.763976E-05
5.445549E+03	2.065656E-02	6.655240E-05
5.455505E+03	2.045796E-02	6.588239E-05
5.465460E+03	2.040594E-02	6.568146E-05
5.475415E+03	2.049563E-02	6.593326E-05
5.485371E+03	2.069414E-02	6.653105E-05
5.495326E+03	2.095187E-02	6.731471E-05
5.505281E+03	2.121466E-02	6.810967E-05
5.515237E+03	2.143639E-02	6.876778E-05
5.525192E+03	2.157818E-02	6.916449E-05
5.535147E+03	2.160911E-02	6.920130E-05
5.545102E+03	2.151226E-02	6.882494E-05
5.555058E+03	2.128212E-02	6.801898E-05
5.565013E+03	2.092440E-02	6.680309E-05
5.574968E+03	2.045391E-02	6.522598E-05
5.584924E+03	1.989287E-02	6.335989E-05
5.594879E+03	1.926716E-02	6.128859E-05
5.604834E+03	1.860366E-02	5.909855E-05
5.614790E+03	1.792957E-02	5.687702E-05
5.624745E+03	1.726916E-02	5.470136E-05
5.634700E+03	1.664359E-02	5.263879E-05
5.644655E+03	1.607129E-02	5.074734E-05
5.654611E+03	1.556645E-02	4.907133E-05
5.664566E+03	1.514082E-02	4.764697E-05
5.674521E+03	1.480341E-02	4.650162E-05
5.684477E+03	1.456082E-02	4.565467E-05
5.694432E+03	1.441770E-02	4.511922E-05
5.704387E+03	1.437720E-02	4.490347E-05
5.714343E+03	1.444111E-02	4.501116E-05
5.724298E+03	1.460949E-02	4.544054E-05
5.734253E+03	1.488044E-02	4.618371E-05
5.744209E+03	1.525095E-02	4.722917E-05
5.754164E+03	1.571433E-02	4.855423E-05
5.764119E+03	1.626184E-02	5.012985E-05
5.774074E+03	1.688093E-02	5.191559E-05
5.784030E+03	1.755508E-02	5.385909E-05
5.793985E+03	1.826380E-02	5.589630E-05
5.803940E+03	1.898409E-02	5.795620E-05
5.813896E+03	1.969093E-02	5.996233E-05
5.823851E+03	2.035898E-02	6.183801E-05
5.833806E+03	2.096491E-02	6.351359E-05
5.843762E+03	2.149024E-02	6.493477E-05
5.853717E+03	2.192061E-02	6.606038E-05
5.863672E+03	2.224727E-02	6.686665E-05
5.873627E+03	2.246573E-02	6.734283E-05
5.883583E+03	2.257662E-02	6.749379E-05
5.893538E+03	2.258432E-02	6.733545E-05
5.903493E+03	2.249602E-02	6.689205E-05
5.913449E+03	2.232190E-02	6.619644E-05
5.923404E+03	2.207356E-02	6.528527E-05
5.933359E+03	2.176310E-02	6.419638E-05
5.943315E+03	2.140383E-02	6.297067E-05
5.953270E+03	2.100815E-02	6.164593E-05
5.963225E+03	2.058876E-02	6.026043E-05
5.973180E+03	2.015752E-02	5.884958E-05
5.983136E+03	1.972507E-02	5.744480E-05
5.993091E+03	1.930104E-02	5.607423E-05
6.003046E+03	1.889312E-02	5.476019E-05
6.013002E+03	1.850852E-02	5.352331E-05
6.022957E+03	1.815187E-02	5.237657E-05
6.032912E+03	1.782727E-02	5.133142E-05
6.042868E+03	1.753750E-02	5.039535E-05
6.052823E+03	1.728448E-02	4.957342E-05
6.062778E+03	1.706936E-02	4.886838E-05
6.072733E+03	1.689271E-02	4.828152E-05
6.082689E+03	1.675464E-02	4.781277E-05
6.092644E+03	1.665391E-02	4.745825E-05
6.102599E+03	1.658911E-02	4.721379E-05
6.112555E+03	1.655634E-02	4.706822E-05
6.122510E+03	1.655067E-02	4.700752E-05
6.132465E+03	1.656454E-02	4.701037E-05
6.142421E+03	1.658858E-02	4.705049E-05
6.152376E+03	1.660988E-02	4.709158E-05
6.162331E+03	1.661250E-02	4.708889E-05
6.172286E+03	1.657607E-02	4.698500E-05
6.182242E+03	1.647925E-02	4.671933E-05
6.192197E+03	1.630135E-02	4.623286E-05
6.202152E+03	1.602522E-02	4.547618E-05
6.212108E+03	1.564654E-02	4.443594E-05
6.222063E+03	1.518805E-02	4.317537E-05
6.232018E+03	1.469743E-02	4.182864E-05
6.241974E+03	1.422441E-02	4.053622E-05
6.251929E+03	1.381007E-02	3.941469E-05
6.261884E+03	1.347663E-02	3.852754E-05
6.271839E+03	1.323487E-02	3.790622E-05
6.281795E+03	1.308941E-02	3.756490E-05
6.291750E+03	1.303636E-02	3.749375E-05
6.301705E+03	1.306771E-02	3.767113E-05
6.311661E+03	1.317320E-02	3.806901E-05
6.321616E+03	1.334046E-02	3.865314E-05
6.331571E+03	1.355547E-02	3.938425E-05
6.341527E+03	1.380358E-02	4.022091E-05
6.351482E+03	1.406950E-02	4.111939E-05
6.361437E+03	1.433778E-02	4.203509E-05
6.371392E+03	1.459358E-02	4.292452E-05
6.381348E+03	1.482375E-02	4.374867E-05
6.391303E+03	1.501672E-02	4.447252E-05
6.401258E+03	1.516316E-02	4.506703E-05
6.411214E+03	1.525908E-02	4.551866E-05
6.421169E+03	1.530318E-02	4.582158E-05
6.431124E+03	1.529741E-02	4.597968E-05
6.441080E+03	1.524752E-02	4.600822E-05
6.451035E+03	1.516092E-02	4.592781E-05
6.460990E+03	1.504740E-02	4.576646E-05
6.470945E+03	1.491778E-02	4.555593E-05
6.480901E+03	1.478383E-02	4.533131E-05
6.490856E+03	1.465664E-02	4.512625E-05
6.500811E+03	1.454795E-02	4.497699E-05
6.510767E+03	1.446572E-02	4.490863E-05
6.520722E+03	1.441494E-02	4.493745E-05
6.530677E+03	1.439848E-02	4.507337E-05
6.540633E+03	1.441775E-02	4.532194E-05
6.550588E+03	1.447314E-02	4.568553E-05
6.560543E+03	1.456265E-02	4.615899E-05
6.570498E+03	1.468243E-02	4.673120E-05
6.580454E+03	1.482729E-02	4.738653E-05
6.590409E+03	1.499005E-02	4.810267E-05
6.600364E+03	1.516244E-02	4.885348E-05
6.610320E+03	1.533481E-02	4.960787E-05
6.620275E+03	1.549798E-02	5.033579E-05
6.630230E+03	1.564274E-02	5.100658E-05
6.640186E+03	1.576046E-02	5.159113E-05
6.650141E+03	1.584476E-02	5.206714E-05
6.660096E+03	1.589035E-02	5.241574E-05
6.670051E+03	1.589432E-02	5.262562E-05
6.680007E+03	1.585497E-02	5.268940E-05
6.689962E+03	1.577329E-02	5.260871E-05
6.699917E+03	1.565192E-02	5.239067E-05
6.709873E+03	1.549400E-02	5.204438E-05
6.719828E+03	1.530466E-02	5.158575E-05
6.729783E+03	1.508917E-02	5.103147E-05
6.739739E+03	1.485348E-02	5.040091E-05
6.749694E+03	1.460318E-02	4.971238E-05
6.759649E+03	1.434402E-02	4.898511E-05
6.769604E+03	1.408150E-02	4.823774E-05
6.779560E+03	1.382001E-02	4.748532E-05
6.789515E+03	1.356464E-02	4.674548E-05
6.799470E+03	1.331898E-02	4.603096E-05
6.809426E+03	1.308719E-02	4.535660E-05
6.819381E+03	1.287213E-02	4.473277E-05
6.829336E+03	1.267676E-02	4.417040E-05
6.839292E+03	1.250384E-02	4.367980E-05
6.849247E+03	1.235554E-02	4.326924E-05
6.859202E+03	1.223330E-02	4.294449E-05
6.869157E+03	1.213905E-02	4.271304E-05
6.879113E+03	1.207353E-02	4.257830E-05
6.889068E+03	1.203754E-02	4.254375E-05
6.899023E+03	1.203066E-02	4.260860E-05
6.908979E+03	1.205248E-02	4.277210E-05
6.918934E+03	1.210168E-02	4.303009E-05
6.928889E+03	1.217598E-02	4.337498E-05
6.938845E+03	1.227274E-02	4.379781E-05
6.948800E+03	1.238806E-02	4.428502E-05
6.958755E+03	1.251701E-02	4.481916E-05
6.968710E+03	1.265417E-02	4.538099E-05
6.978666E+03	1.279344E-02	4.594866E-05
6.988621E+03	1.292863E-02	4.649982E-05
6.998576E+03	1.305282E-02	4.700946E-05
7.008532E+03	1.316052E-02	4.745754E-05
7.018487E+03	1.324586E-02	4.782262E-05
7.028442E+03	1.330476E-02	4.808963E-05
7.038398E+03	1.333398E-02	4.824654E-05
7.048353E+03	1.333225E-02	4.828848E-05
7.058308E+03	1.329959E-02	4.821518E-05
7.068263E+03	1.323736E-02	4.803140E-05
7.078219E+03	1.314834E-02	4.774709E-05
7.088174E+03	1.303728E-02	4.737932E-05
7.098129E+03	1.290899E-02	4.694565E-05
7.108085E+03	1.276907E-02	4.646645E-05
7.118040E+03	1.262308E-02	4.596205E-05
7.127995E+03	1.247587E-02	4.545023E-05
7.137951E+03	1.233225E-02	4.494875E-05
7.147906E+03	1.219575E-02	4.447066E-05
7.157861E+03	1.206904E-02	4.402585E-05
7.167817E+03	1.195415E-02	4.362202E-05
7.177772E+03	1.185183E-02	4.326202E-05
7.187727E+03	1.176223E-02	4.294670E-05
7.197682E+03	1.168412E-02	4.267168E-05
7.207638E+03	1.161662E-02	4.243393E-05
7.217593E+03	1.155828E-02	4.222836E-05
7.227548E+03	1.150749E-02	4.204923E-05
7.237504E+03	1.146270E-02	4.189102E-05
7.247459E+03	1.142269E-02	4.174941E-05
7.257414E+03	1.138618E-02	4.161992E-05
7.267370E+03	1.135262E-02	4.150064E-05
7.277325E+03	1.132159E-02	4.139024E-05
7.287280E+03	1.129295E-02	4.128829E-05
7.297235E+03	1.126648E-02	4.119419E-05
7.307191E+03	1.124271E-02	4.111004E-05
7.317146E+03	1.122229E-02	4.103832E-05
7.327101E+03	1.120507E-02	4.097869E-05
7.337057E+03	1.119151E-02	4.093297E-05
7.347012E+03	1.118159E-02	4.090130E-05
7.356967E+03	1.117515E-02	4.088319E-05
7.366923E+03	1.117094E-02	4.087429E-05
7.376878E+03	1.116766E-02	4.087001E-05
7.386833E+03	1.116346E-02	4.086379E-05
7.396788E+03	1.115543E-02	4.084510E-05
7.406744E+03	1.114093E-02	4.080444E-05
7.416699E+03	1.111629E-02	4.072854E-05
7.426654E+03	1.107904E-02	4.060846E-05
7.436610E+03	1.102647E-02	4.043439E-05
7.446565E+03	1.095701E-02	4.020063E-05
7.456520E+03	1.086973E-02	3.990374E-05
7.466476E+03	1.076522E-02	3.954579E-05
7.476431E+03	1.064466E-02	3.913092E-05
7.486386E+03	1.051038E-02	3.866757E-05
7.496341E+03	1.036612E-02	3.816929E-05
7.506297E+03	1.021485E-02	3.764694E-05
7.516252E+03	1.006075E-02	3.711573E-05
7.526207E+03	9.907531E-03	3.658933E-05
7.536163E+03	9.759271E-03	3.608269E-05
7.546118E+03	9.619650E-03	3.560946E-05
7.556073E+03	9.492596E-03	3.518424E-05
7.566029E+03	9.381183E-03	3.481856E-05
7.575984E+03	9.288178E-03	3.452290E-05
7.585939E+03	9.215507E-03	3.430470E-05
7.595894E+03	9.162410E-03	3.416145E-05
7.605850E+03	9.127305E-03	3.408760E-05
7.615805E+03	9.108539E-03	3.407733E-05
7.625760E+03	9.103922E-03	3.412280E-05
7.635716E+03	9.111707E-03	3.421779E-05
7.645671E+03	9.129407E-03	3.435327E-05
7.655626E+03	9.155573E-03	3.452409E-05
7.665582E+03	9.188775E-03	3.472515E-05
7.675537E+03	9.227531E-03	3.495109E-05
7.685492E+03	9.270898E-03	3.519860E-05
7.695447E+03	9.317795E-03	3.546380E-05
7.705403E+03	9.367436E-03	3.574390E-05
7.715358E+03	9.419285E-03	3.603708E-05
7.725313E+03	9.472669E-03	3.634094E-05
