#wls	flux	fluxerr
1.592848E+03	2.163514E-03	4.500903E-05
1.632669E+03	2.230875E-03	4.614099E-05
1.672491E+03	2.303458E-03	4.735745E-05
1.712312E+03	2.381485E-03	4.866028E-05
1.752133E+03	2.465398E-03	5.005553E-05
1.791954E+03	2.555421E-03	5.154460E-05
1.831775E+03	2.652215E-03	5.313732E-05
1.871597E+03	2.756227E-03	5.483880E-05
1.911418E+03	2.867688E-03	5.664950E-05
1.951239E+03	2.986834E-03	5.856965E-05
1.991060E+03	3.113906E-03	6.059927E-05
2.030881E+03	3.249365E-03	6.274232E-05
2.070703E+03	3.392592E-03	6.498164E-05
2.110524E+03	3.543627E-03	6.731273E-05
2.150345E+03	3.702082E-03	6.972283E-05
2.190166E+03	3.866713E-03	7.218330E-05
2.229987E+03	4.037364E-03	7.468623E-05
2.269809E+03	4.213463E-03	7.721609E-05
2.309630E+03	4.395532E-03	7.977742E-05
2.349451E+03	4.584556E-03	8.238257E-05
2.389272E+03	4.781966E-03	8.505095E-05
2.429093E+03	4.989885E-03	8.781290E-05
2.468915E+03	5.209604E-03	9.068238E-05
2.508736E+03	5.443093E-03	9.368384E-05
2.548557E+03	5.692173E-03	9.683733E-05
2.588378E+03	5.958060E-03	1.001509E-04
2.628199E+03	6.242254E-03	1.036358E-04
2.668021E+03	6.545913E-03	1.072963E-04
2.707842E+03	6.870492E-03	1.111398E-04
2.747663E+03	7.217118E-03	1.151668E-04
2.787484E+03	7.587030E-03	1.193781E-04
2.827305E+03	7.981385E-03	1.237714E-04
2.867127E+03	8.402353E-03	1.283587E-04
2.906948E+03	8.852048E-03	1.331480E-04
2.946769E+03	9.332715E-03	1.381472E-04
2.986590E+03	9.847844E-03	1.433792E-04
2.996546E+03	9.982483E-03	1.447268E-04
3.006501E+03	1.011946E-02	1.460891E-04
3.016456E+03	1.025882E-02	1.474661E-04
3.026411E+03	1.040079E-02	1.488608E-04
3.036367E+03	1.054540E-02	1.502730E-04
3.046322E+03	1.069267E-02	1.517022E-04
3.056277E+03	1.084264E-02	1.531483E-04
3.066233E+03	1.099530E-02	1.546109E-04
3.076188E+03	1.115069E-02	1.560896E-04
3.086143E+03	1.130905E-02	1.575872E-04
3.096099E+03	1.147039E-02	1.591033E-04
3.106054E+03	1.163448E-02	1.606341E-04
3.116009E+03	1.180181E-02	1.621854E-04
3.125964E+03	1.197190E-02	1.637501E-04
3.135920E+03	1.214498E-02	1.653308E-04
3.145875E+03	1.232129E-02	1.669297E-04
3.155830E+03	1.250058E-02	1.685429E-04
3.165786E+03	1.268304E-02	1.701724E-04
3.175741E+03	1.286843E-02	1.718140E-04
3.185696E+03	1.305692E-02	1.734695E-04
3.195652E+03	1.324848E-02	1.751375E-04
3.205607E+03	1.344280E-02	1.768134E-04
3.215562E+03	1.364003E-02	1.784986E-04
3.225517E+03	1.384009E-02	1.801910E-04
3.235473E+03	1.404286E-02	1.818886E-04
3.245428E+03	1.424821E-02	1.835890E-04
3.255383E+03	1.445597E-02	1.852895E-04
3.265339E+03	1.466597E-02	1.869873E-04
3.275294E+03	1.487776E-02	1.886759E-04
3.285249E+03	1.509155E-02	1.903578E-04
3.295205E+03	1.530659E-02	1.920228E-04
3.305160E+03	1.552277E-02	1.936693E-04
3.315115E+03	1.573946E-02	1.952891E-04
3.325070E+03	1.595641E-02	1.968789E-04
3.335026E+03	1.617307E-02	1.984319E-04
3.344981E+03	1.638830E-02	1.999339E-04
3.354936E+03	1.660177E-02	2.013815E-04
3.364892E+03	1.681207E-02	2.027575E-04
3.374847E+03	1.701832E-02	2.040522E-04
3.384802E+03	1.721923E-02	2.052510E-04
3.394758E+03	1.741285E-02	2.063318E-04
3.404713E+03	1.759798E-02	2.072820E-04
3.414668E+03	1.777230E-02	2.080759E-04
3.424623E+03	1.793378E-02	2.086925E-04
3.434579E+03	1.808027E-02	2.091095E-04
3.444534E+03	1.820933E-02	2.093020E-04
3.454489E+03	1.831893E-02	2.092505E-04
3.464445E+03	1.840641E-02	2.089290E-04
3.474400E+03	1.846968E-02	2.083188E-04
3.484355E+03	1.850664E-02	2.074015E-04
3.494311E+03	1.851589E-02	2.061674E-04
3.504266E+03	1.849571E-02	2.046034E-04
3.514221E+03	1.844502E-02	2.027042E-04
3.524176E+03	1.836367E-02	2.004747E-04
3.534132E+03	1.825116E-02	1.979165E-04
3.544087E+03	1.810824E-02	1.950445E-04
3.554042E+03	1.793626E-02	1.918800E-04
3.563998E+03	1.773683E-02	1.884467E-04
3.573953E+03	1.751262E-02	1.847788E-04
3.583908E+03	1.726657E-02	1.809128E-04
3.593864E+03	1.700248E-02	1.768932E-04
3.603819E+03	1.672491E-02	1.727714E-04
3.613774E+03	1.643834E-02	1.685964E-04
3.623729E+03	1.614829E-02	1.644265E-04
3.633685E+03	1.586001E-02	1.603160E-04
3.643640E+03	1.557911E-02	1.563207E-04
3.653595E+03	1.531118E-02	1.524949E-04
3.663551E+03	1.506223E-02	1.488952E-04
3.673506E+03	1.483809E-02	1.455749E-04
3.683461E+03	1.464450E-02	1.425843E-04
3.693417E+03	1.448752E-02	1.399753E-04
3.703372E+03	1.437301E-02	1.377961E-04
3.713327E+03	1.430664E-02	1.360913E-04
3.723282E+03	1.429464E-02	1.349087E-04
3.733238E+03	1.434248E-02	1.342877E-04
3.743193E+03	1.445607E-02	1.342698E-04
3.753148E+03	1.464145E-02	1.348961E-04
3.763104E+03	1.490418E-02	1.362012E-04
3.773059E+03	1.525051E-02	1.382245E-04
3.783014E+03	1.568603E-02	1.409978E-04
3.792970E+03	1.621660E-02	1.445534E-04
3.802925E+03	1.684751E-02	1.489167E-04
3.812880E+03	1.758309E-02	1.541036E-04
3.822835E+03	1.842663E-02	1.601192E-04
3.832791E+03	1.937966E-02	1.669529E-04
3.842746E+03	2.044072E-02	1.745680E-04
3.852701E+03	2.160522E-02	1.829017E-04
3.862657E+03	2.286379E-02	1.918530E-04
3.872612E+03	2.420217E-02	2.012827E-04
3.882567E+03	2.559997E-02	2.110056E-04
3.892523E+03	2.703060E-02	2.207919E-04
3.902478E+03	2.846172E-02	2.303735E-04
3.912433E+03	2.985545E-02	2.394474E-04
3.922388E+03	3.117123E-02	2.477005E-04
3.932344E+03	3.236790E-02	2.548269E-04
3.942299E+03	3.340539E-02	2.605417E-04
3.952254E+03	3.424991E-02	2.646198E-04
3.962210E+03	3.487442E-02	2.668975E-04
3.972165E+03	3.526191E-02	2.672952E-04
3.982120E+03	3.540706E-02	2.658255E-04
3.992076E+03	3.531597E-02	2.625871E-04
4.002031E+03	3.500675E-02	2.577652E-04
4.011986E+03	3.450621E-02	2.516027E-04
4.021941E+03	3.384844E-02	2.443871E-04
4.031897E+03	3.307140E-02	2.364235E-04
4.041852E+03	3.221483E-02	2.280185E-04
4.051807E+03	3.131637E-02	2.194524E-04
4.061763E+03	3.041025E-02	2.109713E-04
4.071718E+03	2.952576E-02	2.027774E-04
4.081673E+03	2.868648E-02	1.950259E-04
4.091629E+03	2.791066E-02	1.878301E-04
4.101584E+03	2.721084E-02	1.812597E-04
4.111539E+03	2.659506E-02	1.753520E-04
4.121494E+03	2.606723E-02	1.701147E-04
4.131450E+03	2.562807E-02	1.655349E-04
4.141405E+03	2.527573E-02	1.615826E-04
4.151360E+03	2.500635E-02	1.582163E-04
4.161316E+03	2.481485E-02	1.553878E-04
4.171271E+03	2.469444E-02	1.530403E-04
4.181226E+03	2.463818E-02	1.511177E-04
4.191182E+03	2.463873E-02	1.495637E-04
4.201137E+03	2.468803E-02	1.483199E-04
4.211092E+03	2.477843E-02	1.473324E-04
4.221047E+03	2.490148E-02	1.465448E-04
4.231003E+03	2.504877E-02	1.459031E-04
4.240958E+03	2.521080E-02	1.453491E-04
4.250913E+03	2.537725E-02	1.448226E-04
4.260869E+03	2.553756E-02	1.442644E-04
4.270824E+03	2.567919E-02	1.436064E-04
4.280779E+03	2.579000E-02	1.427859E-04
4.290735E+03	2.585699E-02	1.417379E-04
4.300690E+03	2.586739E-02	1.404014E-04
4.310645E+03	2.580891E-02	1.387201E-04
4.320601E+03	2.567133E-02	1.366512E-04
4.330556E+03	2.544637E-02	1.341638E-04
4.340511E+03	2.512845E-02	1.312421E-04
4.350466E+03	2.471707E-02	1.278966E-04
4.360422E+03	2.421667E-02	1.241624E-04
4.370377E+03	2.364067E-02	1.201182E-04
4.380332E+03	2.302584E-02	1.159577E-04
4.390288E+03	2.242782E-02	1.119616E-04
4.400243E+03	2.189844E-02	1.083821E-04
4.410198E+03	2.148123E-02	1.054221E-04
4.420154E+03	2.120968E-02	1.032290E-04
4.430109E+03	2.110784E-02	1.019000E-04
4.440064E+03	2.119072E-02	1.014868E-04
4.450019E+03	2.146577E-02	1.020032E-04
4.459975E+03	2.193522E-02	1.034393E-04
4.469930E+03	2.259574E-02	1.057596E-04
4.479885E+03	2.343846E-02	1.089046E-04
4.489841E+03	2.444860E-02	1.127901E-04
4.499796E+03	2.560520E-02	1.173065E-04
4.509751E+03	2.687949E-02	1.223123E-04
4.519707E+03	2.823541E-02	1.276372E-04
4.529662E+03	2.963122E-02	1.330906E-04
4.539617E+03	3.102062E-02	1.384664E-04
4.549572E+03	3.235471E-02	1.435522E-04
4.559528E+03	3.358606E-02	1.481472E-04
4.569483E+03	3.467237E-02	1.520773E-04
4.579438E+03	3.557598E-02	1.551921E-04
4.589394E+03	3.626988E-02	1.573901E-04
4.599349E+03	3.673619E-02	1.586102E-04
4.609304E+03	3.696495E-02	1.588258E-04
4.619260E+03	3.695419E-02	1.580439E-04
4.629215E+03	3.670814E-02	1.562965E-04
4.639170E+03	3.623817E-02	1.536444E-04
4.649125E+03	3.555903E-02	1.501603E-04
4.659081E+03	3.469150E-02	1.459402E-04
4.669036E+03	3.366077E-02	1.410961E-04
4.678991E+03	3.249700E-02	1.357583E-04
4.688947E+03	3.123199E-02	1.300614E-04
4.698902E+03	2.989819E-02	1.241405E-04
4.708857E+03	2.852604E-02	1.181201E-04
4.718813E+03	2.714312E-02	1.121115E-04
4.728768E+03	2.577003E-02	1.061957E-04
4.738723E+03	2.442237E-02	1.004317E-04
4.748678E+03	2.311198E-02	9.486286E-05
4.758634E+03	2.184913E-02	8.952611E-05
4.768589E+03	2.064973E-02	8.448163E-05
4.778544E+03	1.954237E-02	7.984152E-05
4.788500E+03	1.855382E-02	7.571034E-05
4.798455E+03	1.770350E-02	7.216282E-05
4.808410E+03	1.700358E-02	6.924436E-05
4.818366E+03	1.645907E-02	6.697177E-05
4.828321E+03	1.606906E-02	6.533829E-05
4.838276E+03	1.582733E-02	6.431604E-05
4.848231E+03	1.572468E-02	6.386564E-05
4.858187E+03	1.574713E-02	6.392869E-05
4.868142E+03	1.587704E-02	6.443234E-05
4.878097E+03	1.609181E-02	6.528389E-05
4.888053E+03	1.636397E-02	6.637112E-05
4.898008E+03	1.666241E-02	6.756732E-05
4.907963E+03	1.695698E-02	6.874977E-05
4.917919E+03	1.722297E-02	6.981779E-05
4.927874E+03	1.744094E-02	7.069225E-05
4.937829E+03	1.759766E-02	7.131907E-05
4.947784E+03	1.768630E-02	7.167016E-05
4.957740E+03	1.770740E-02	7.174733E-05
4.967695E+03	1.766686E-02	7.157414E-05
4.977650E+03	1.757665E-02	7.119873E-05
4.987606E+03	1.745204E-02	7.068257E-05
4.997561E+03	1.730990E-02	7.009379E-05
5.007516E+03	1.716643E-02	6.949763E-05
5.017472E+03	1.703581E-02	6.895126E-05
5.027427E+03	1.692987E-02	6.850223E-05
5.037382E+03	1.685649E-02	6.818214E-05
5.047337E+03	1.682033E-02	6.800947E-05
5.057293E+03	1.682322E-02	6.799120E-05
5.067248E+03	1.686555E-02	6.812856E-05
5.077203E+03	1.694610E-02	6.841615E-05
5.087159E+03	1.706303E-02	6.884605E-05
5.097114E+03	1.721626E-02	6.941746E-05
5.107069E+03	1.740577E-02	7.012976E-05
5.117025E+03	1.763298E-02	7.098810E-05
5.126980E+03	1.790066E-02	7.200304E-05
5.136935E+03	1.821230E-02	7.318787E-05
5.146890E+03	1.857193E-02	7.455801E-05
5.156846E+03	1.898289E-02	7.612598E-05
5.166801E+03	1.944776E-02	7.790113E-05
5.176756E+03	1.996745E-02	7.988603E-05
5.186712E+03	2.054014E-02	8.207221E-05
5.196667E+03	2.116194E-02	8.444303E-05
5.206622E+03	2.182528E-02	8.696711E-05
5.216578E+03	2.251920E-02	8.959985E-05
5.226533E+03	2.322977E-02	9.228500E-05
5.236488E+03	2.394056E-02	9.495672E-05
5.246443E+03	2.463337E-02	9.754277E-05
5.256399E+03	2.528962E-02	9.996985E-05
5.266354E+03	2.589014E-02	1.021629E-04
5.276309E+03	2.641811E-02	1.040569E-04
5.286265E+03	2.685822E-02	1.055931E-04
5.296220E+03	2.719899E-02	1.067288E-04
5.306175E+03	2.743231E-02	1.074345E-04
5.316131E+03	2.755435E-02	1.076982E-04
5.326086E+03	2.756510E-02	1.075228E-04
5.336041E+03	2.746759E-02	1.069233E-04
5.345996E+03	2.726880E-02	1.059297E-04
5.355952E+03	2.697736E-02	1.045787E-04
5.365907E+03	2.660370E-02	1.029133E-04
5.375862E+03	2.615897E-02	1.009792E-04
5.385818E+03	2.565642E-02	9.882975E-05
5.395773E+03	2.510892E-02	9.651630E-05
5.405728E+03	2.453161E-02	9.409854E-05
5.415684E+03	2.394258E-02	9.164680E-05
5.425639E+03	2.336260E-02	8.924115E-05
5.435594E+03	2.281676E-02	8.697734E-05
5.445549E+03	2.233703E-02	8.497653E-05
5.455505E+03	2.196463E-02	8.339381E-05
5.465460E+03	2.173951E-02	8.237765E-05
5.475415E+03	2.167448E-02	8.197263E-05
5.485371E+03	2.172489E-02	8.200609E-05
5.495326E+03	2.183241E-02	8.225525E-05
5.505281E+03	2.194143E-02	8.250928E-05
5.515237E+03	2.200747E-02	8.260061E-05
5.525192E+03	2.199668E-02	8.240286E-05
5.535147E+03	2.188703E-02	8.183481E-05
5.545102E+03	2.166950E-02	8.086438E-05
5.555058E+03	2.134530E-02	7.949808E-05
5.565013E+03	2.092436E-02	7.777469E-05
5.574968E+03	2.042261E-02	7.575521E-05
5.584924E+03	1.985966E-02	7.351386E-05
5.594879E+03	1.925719E-02	7.113196E-05
5.604834E+03	1.863685E-02	6.869026E-05
5.614790E+03	1.801936E-02	6.626531E-05
5.624745E+03	1.742380E-02	6.392722E-05
5.634700E+03	1.686668E-02	6.173593E-05
5.644655E+03	1.636279E-02	5.974459E-05
5.654611E+03	1.592369E-02	5.799403E-05
5.664566E+03	1.555945E-02	5.651918E-05
5.674521E+03	1.527791E-02	5.534645E-05
5.684477E+03	1.508499E-02	5.449485E-05
5.694432E+03	1.498546E-02	5.397890E-05
5.704387E+03	1.498218E-02	5.380593E-05
5.714343E+03	1.507671E-02	5.397831E-05
5.724298E+03	1.526850E-02	5.449067E-05
5.734253E+03	1.555512E-02	5.533073E-05
5.744209E+03	1.593125E-02	5.647596E-05
5.754164E+03	1.638874E-02	5.789395E-05
5.764119E+03	1.691531E-02	5.953797E-05
5.774074E+03	1.749587E-02	6.135189E-05
5.784030E+03	1.811198E-02	6.326870E-05
5.793985E+03	1.874216E-02	6.521163E-05
5.803940E+03	1.936298E-02	6.709845E-05
5.813896E+03	1.995129E-02	6.884920E-05
5.823851E+03	2.048519E-02	7.038965E-05
5.833806E+03	2.094532E-02	7.165575E-05
5.843762E+03	2.131822E-02	7.260484E-05
5.853717E+03	2.159594E-02	7.321396E-05
5.863672E+03	2.177500E-02	7.347601E-05
5.873627E+03	2.185788E-02	7.340424E-05
5.883583E+03	2.185059E-02	7.302377E-05
5.893538E+03	2.176148E-02	7.236727E-05
5.903493E+03	2.160149E-02	7.147555E-05
5.913449E+03	2.138245E-02	7.039180E-05
5.923404E+03	2.111556E-02	6.915628E-05
5.933359E+03	2.081214E-02	6.780910E-05
5.943315E+03	2.048243E-02	6.638605E-05
5.953270E+03	2.013544E-02	6.491824E-05
5.963225E+03	1.977928E-02	6.343329E-05
5.973180E+03	1.942088E-02	6.195459E-05
5.983136E+03	1.906583E-02	6.050066E-05
5.993091E+03	1.871904E-02	5.908753E-05
6.003046E+03	1.838375E-02	5.772568E-05
6.013002E+03	1.806215E-02	5.642202E-05
6.022957E+03	1.775466E-02	5.517787E-05
6.032912E+03	1.746145E-02	5.399366E-05
6.042868E+03	1.718064E-02	5.286361E-05
6.052823E+03	1.691062E-02	5.178282E-05
6.062778E+03	1.664840E-02	5.074225E-05
6.072733E+03	1.639230E-02	4.973708E-05
6.082689E+03	1.614051E-02	4.876212E-05
6.092644E+03	1.589326E-02	4.781840E-05
6.102599E+03	1.565304E-02	4.691363E-05
6.112555E+03	1.542541E-02	4.606468E-05
6.122510E+03	1.521812E-02	4.529458E-05
6.132465E+03	1.504058E-02	4.463107E-05
6.142421E+03	1.490280E-02	4.410341E-05
6.152376E+03	1.481253E-02	4.373409E-05
6.162331E+03	1.477028E-02	4.352426E-05
6.172286E+03	1.476637E-02	4.344500E-05
6.182242E+03	1.478053E-02	4.343630E-05
6.192197E+03	1.477947E-02	4.340025E-05
6.202152E+03	1.471903E-02	4.320731E-05
6.212108E+03	1.455678E-02	4.273288E-05
6.222063E+03	1.429542E-02	4.198425E-05
6.232018E+03	1.399424E-02	4.113430E-05
6.241974E+03	1.371032E-02	4.034963E-05
6.251929E+03	1.348723E-02	3.975778E-05
6.261884E+03	1.334968E-02	3.943180E-05
6.271839E+03	1.330750E-02	3.940168E-05
6.281795E+03	1.336120E-02	3.967081E-05
6.291750E+03	1.350254E-02	4.021701E-05
6.301705E+03	1.371822E-02	4.100340E-05
6.311661E+03	1.399125E-02	4.198195E-05
6.321616E+03	1.430368E-02	4.310128E-05
6.331571E+03	1.463575E-02	4.430404E-05
6.341527E+03	1.496778E-02	4.553203E-05
6.351482E+03	1.528122E-02	4.672950E-05
6.361437E+03	1.555851E-02	4.784230E-05
6.371392E+03	1.578528E-02	4.882480E-05
6.381348E+03	1.595054E-02	4.963977E-05
6.391303E+03	1.604723E-02	5.026111E-05
6.401258E+03	1.607287E-02	5.067602E-05
6.411214E+03	1.602955E-02	5.088579E-05
6.421169E+03	1.592347E-02	5.090457E-05
6.431124E+03	1.576390E-02	5.075683E-05
6.441080E+03	1.556297E-02	5.047690E-05
6.451035E+03	1.533472E-02	5.010637E-05
6.460990E+03	1.509313E-02	4.968811E-05
6.470945E+03	1.485321E-02	4.926958E-05
6.480901E+03	1.462891E-02	4.889652E-05
6.490856E+03	1.443336E-02	4.861318E-05
6.500811E+03	1.427821E-02	4.846043E-05
6.510767E+03	1.416994E-02	4.846267E-05
6.520722E+03	1.410877E-02	4.862358E-05
6.530677E+03	1.409246E-02	4.893834E-05
6.540633E+03	1.411814E-02	4.939974E-05
6.550588E+03	1.418162E-02	4.999574E-05
6.560543E+03	1.427738E-02	5.070906E-05
6.570498E+03	1.439923E-02	5.151947E-05
6.580454E+03	1.453976E-02	5.240169E-05
6.590409E+03	1.469070E-02	5.332657E-05
6.600364E+03	1.484321E-02	5.426196E-05
6.610320E+03	1.498847E-02	5.517484E-05
6.620275E+03	1.511824E-02	5.603352E-05
6.630230E+03	1.522488E-02	5.680771E-05
6.640186E+03	1.530242E-02	5.747272E-05
6.650141E+03	1.534598E-02	5.800737E-05
6.660096E+03	1.535279E-02	5.839820E-05
6.670051E+03	1.532134E-02	5.863643E-05
6.680007E+03	1.525148E-02	5.871837E-05
6.689962E+03	1.514468E-02	5.864691E-05
6.699917E+03	1.500394E-02	5.843096E-05
6.709873E+03	1.483255E-02	5.808110E-05
6.719828E+03	1.463560E-02	5.761539E-05
6.729783E+03	1.441783E-02	5.705100E-05
6.739739E+03	1.418416E-02	5.640637E-05
6.749694E+03	1.393998E-02	5.570222E-05
6.759649E+03	1.369010E-02	5.495752E-05
6.769604E+03	1.343869E-02	5.418902E-05
6.779560E+03	1.319006E-02	5.341432E-05
6.789515E+03	1.294774E-02	5.264833E-05
6.799470E+03	1.271565E-02	5.190762E-05
6.809426E+03	1.249674E-02	5.120514E-05
6.819381E+03	1.229457E-02	5.055644E-05
6.829336E+03	1.211143E-02	4.997200E-05
6.839292E+03	1.195013E-02	4.946457E-05
6.849247E+03	1.181220E-02	4.904163E-05
6.859202E+03	1.169945E-02	4.871175E-05
6.869157E+03	1.161278E-02	4.847982E-05
6.879113E+03	1.155303E-02	4.835037E-05
6.889068E+03	1.152002E-02	4.832358E-05
6.899023E+03	1.151346E-02	4.839898E-05
6.908979E+03	1.153181E-02	4.857091E-05
6.918934E+03	1.157386E-02	4.883473E-05
6.928889E+03	1.163710E-02	4.918030E-05
6.938845E+03	1.171838E-02	4.959463E-05
6.948800E+03	1.181456E-02	5.006458E-05
6.958755E+03	1.192097E-02	5.057041E-05
6.968710E+03	1.203311E-02	5.109296E-05
6.978666E+03	1.214564E-02	5.160940E-05
6.988621E+03	1.225346E-02	5.209793E-05
6.998576E+03	1.235108E-02	5.253493E-05
7.008532E+03	1.243379E-02	5.290033E-05
7.018487E+03	1.249678E-02	5.317339E-05
7.028442E+03	1.253697E-02	5.334109E-05
7.038398E+03	1.255145E-02	5.339105E-05
7.048353E+03	1.253946E-02	5.332021E-05
7.058308E+03	1.250049E-02	5.312675E-05
7.068263E+03	1.243608E-02	5.281757E-05
7.078219E+03	1.234842E-02	5.240249E-05
7.088174E+03	1.224119E-02	5.189772E-05
7.098129E+03	1.211861E-02	5.132168E-05
7.108085E+03	1.198480E-02	5.069251E-05
7.118040E+03	1.184489E-02	5.003242E-05
7.127995E+03	1.170315E-02	4.935997E-05
7.137951E+03	1.156288E-02	4.868962E-05
7.147906E+03	1.142749E-02	4.803601E-05
7.157861E+03	1.129937E-02	4.740962E-05
7.167817E+03	1.118002E-02	4.681691E-05
7.177772E+03	1.107098E-02	4.626450E-05
7.187727E+03	1.097226E-02	4.575266E-05
7.197682E+03	1.088388E-02	4.528154E-05
7.207638E+03	1.080570E-02	4.485069E-05
7.217593E+03	1.073664E-02	4.445566E-05
7.227548E+03	1.067632E-02	4.409499E-05
7.237504E+03	1.062354E-02	4.376390E-05
7.247459E+03	1.057725E-02	4.345812E-05
7.257414E+03	1.053611E-02	4.317239E-05
7.267370E+03	1.049902E-02	4.290236E-05
7.277325E+03	1.046507E-02	4.264459E-05
7.287280E+03	1.043299E-02	4.239421E-05
7.297235E+03	1.040167E-02	4.214704E-05
7.307191E+03	1.037043E-02	4.190067E-05
7.317146E+03	1.033877E-02	4.165349E-05
7.327101E+03	1.030634E-02	4.140456E-05
7.337057E+03	1.027274E-02	4.115264E-05
7.347012E+03	1.023758E-02	4.089673E-05
7.356967E+03	1.020062E-02	4.063627E-05
7.366923E+03	1.016100E-02	4.036829E-05
7.376878E+03	1.011854E-02	4.009267E-05
7.386833E+03	1.007183E-02	3.980429E-05
7.396788E+03	1.001995E-02	3.950009E-05
7.406744E+03	9.962192E-03	3.917779E-05
7.416699E+03	9.897941E-03	3.883558E-05
7.426654E+03	9.826314E-03	3.847054E-05
7.436610E+03	9.747386E-03	3.808348E-05
7.446565E+03	9.661094E-03	3.767466E-05
7.456520E+03	9.568071E-03	3.724678E-05
7.466476E+03	9.468656E-03	3.680112E-05
7.476431E+03	9.364176E-03	3.634278E-05
7.486386E+03	9.255788E-03	3.587611E-05
7.496341E+03	9.144940E-03	3.540657E-05
7.506297E+03	9.033572E-03	3.494152E-05
7.516252E+03	8.923425E-03	3.448747E-05
7.526207E+03	8.816978E-03	3.405379E-05
7.536163E+03	8.716179E-03	3.364780E-05
7.546118E+03	8.623137E-03	3.327741E-05
7.556073E+03	8.540118E-03	3.295120E-05
7.566029E+03	8.469190E-03	3.267698E-05
7.575984E+03	8.412457E-03	3.246278E-05
7.585939E+03	8.371149E-03	3.231329E-05
7.595894E+03	8.343821E-03	3.222296E-05
7.605850E+03	8.327516E-03	3.218041E-05
7.615805E+03	8.320363E-03	3.217852E-05
7.625760E+03	8.320024E-03	3.220837E-05
7.635716E+03	8.325256E-03	3.226529E-05
7.645671E+03	8.334388E-03	3.234294E-05
7.655626E+03	8.346817E-03	3.243914E-05
7.665582E+03	8.361684E-03	3.255071E-05
7.675537E+03	8.378580E-03	3.267625E-05
7.685492E+03	8.397141E-03	3.281448E-05
7.695447E+03	8.417752E-03	3.296713E-05
7.705403E+03	8.440334E-03	3.313408E-05
7.715358E+03	8.465040E-03	3.331617E-05
7.725313E+03	8.491772E-03	3.351326E-05
