#wls	flux	fluxerr
1.592848E+03	2.251726E-03	2.024517E-05
1.632669E+03	2.324192E-03	2.081325E-05
1.672491E+03	2.402067E-03	2.142220E-05
1.712312E+03	2.486075E-03	2.207763E-05
1.752133E+03	2.576246E-03	2.277881E-05
1.791954E+03	2.673307E-03	2.353113E-05
1.831775E+03	2.777521E-03	2.433576E-05
1.871597E+03	2.889620E-03	2.519784E-05
1.911418E+03	3.010103E-03	2.612035E-05
1.951239E+03	3.139466E-03	2.710606E-05
1.991060E+03	3.277735E-03	2.815359E-05
2.030881E+03	3.425398E-03	2.926543E-05
2.070703E+03	3.582705E-03	3.044187E-05
2.110524E+03	3.749189E-03	3.167703E-05
2.150345E+03	3.924359E-03	3.296487E-05
2.190166E+03	4.107008E-03	3.429337E-05
2.229987E+03	4.295658E-03	3.564844E-05
2.269809E+03	4.489766E-03	3.702395E-05
2.309630E+03	4.689255E-03	3.841766E-05
2.349451E+03	4.896417E-03	3.984656E-05
2.389272E+03	5.113306E-03	4.132515E-05
2.429093E+03	5.341708E-03	4.286526E-05
2.468915E+03	5.583878E-03	4.448192E-05
2.508736E+03	5.841301E-03	4.618348E-05
2.548557E+03	6.114950E-03	4.797377E-05
2.588378E+03	6.406453E-03	4.986133E-05
2.628199E+03	6.716172E-03	5.184439E-05
2.668021E+03	7.044849E-03	5.392385E-05
2.707842E+03	7.392166E-03	5.609220E-05
2.747663E+03	7.758389E-03	5.834627E-05
2.787484E+03	8.142662E-03	6.067426E-05
2.827305E+03	8.544414E-03	6.306658E-05
2.867127E+03	8.963052E-03	6.551350E-05
2.906948E+03	9.398153E-03	6.800651E-05
2.946769E+03	9.849602E-03	7.053933E-05
2.986590E+03	1.031744E-02	7.310670E-05
2.996546E+03	1.043686E-02	7.375253E-05
3.006501E+03	1.055738E-02	7.440066E-05
3.016456E+03	1.067871E-02	7.504889E-05
3.026411E+03	1.080125E-02	7.569996E-05
3.036367E+03	1.092470E-02	7.635164E-05
3.046322E+03	1.104897E-02	7.700329E-05
3.056277E+03	1.117400E-02	7.765431E-05
3.066233E+03	1.130015E-02	7.830724E-05
3.076188E+03	1.142688E-02	7.895815E-05
3.086143E+03	1.155454E-02	7.960947E-05
3.096099E+03	1.168281E-02	8.025884E-05
3.106054E+03	1.181181E-02	8.090700E-05
3.116009E+03	1.194141E-02	8.155306E-05
3.125964E+03	1.207150E-02	8.219614E-05
3.135920E+03	1.220193E-02	8.283524E-05
3.145875E+03	1.233281E-02	8.347095E-05
3.155830E+03	1.246375E-02	8.410062E-05
3.165786E+03	1.259482E-02	8.472472E-05
3.175741E+03	1.272586E-02	8.534206E-05
3.185696E+03	1.285668E-02	8.595145E-05
3.195652E+03	1.298734E-02	8.655312E-05
3.205607E+03	1.311717E-02	8.714276E-05
3.215562E+03	1.324666E-02	8.772351E-05
3.225517E+03	1.337491E-02	8.828949E-05
3.235473E+03	1.350236E-02	8.884368E-05
3.245428E+03	1.362835E-02	8.938167E-05
3.255383E+03	1.375286E-02	8.990339E-05
3.265339E+03	1.387562E-02	9.040729E-05
3.275294E+03	1.399617E-02	9.089035E-05
3.285249E+03	1.411470E-02	9.135392E-05
3.295205E+03	1.423050E-02	9.179357E-05
3.305160E+03	1.434332E-02	9.220782E-05
3.315115E+03	1.445335E-02	9.259802E-05
3.325070E+03	1.455990E-02	9.296000E-05
3.335026E+03	1.466274E-02	9.329254E-05
3.344981E+03	1.476165E-02	9.359435E-05
3.354936E+03	1.485655E-02	9.386518E-05
3.364892E+03	1.494659E-02	9.410008E-05
3.374847E+03	1.503132E-02	9.429638E-05
3.384802E+03	1.511040E-02	9.445231E-05
3.394758E+03	1.518295E-02	9.456283E-05
3.404713E+03	1.524826E-02	9.462393E-05
3.414668E+03	1.530508E-02	9.462839E-05
3.424623E+03	1.535253E-02	9.457135E-05
3.434579E+03	1.538947E-02	9.444638E-05
3.444534E+03	1.541434E-02	9.424481E-05
3.454489E+03	1.542605E-02	9.396068E-05
3.464445E+03	1.542338E-02	9.358765E-05
3.474400E+03	1.540569E-02	9.312270E-05
3.484355E+03	1.537171E-02	9.255939E-05
3.494311E+03	1.532117E-02	9.189720E-05
3.504266E+03	1.525353E-02	9.113406E-05
3.514221E+03	1.516869E-02	9.027060E-05
3.524176E+03	1.506687E-02	8.930944E-05
3.534132E+03	1.494847E-02	8.825407E-05
3.544087E+03	1.481446E-02	8.711149E-05
3.554042E+03	1.466568E-02	8.588776E-05
3.563998E+03	1.450368E-02	8.459294E-05
3.573953E+03	1.433044E-02	8.323962E-05
3.583908E+03	1.414803E-02	8.184063E-05
3.593864E+03	1.395906E-02	8.041162E-05
3.603819E+03	1.376630E-02	7.896906E-05
3.613774E+03	1.357279E-02	7.753065E-05
3.623729E+03	1.338194E-02	7.611590E-05
3.633685E+03	1.319706E-02	7.474336E-05
3.643640E+03	1.302198E-02	7.343431E-05
3.653595E+03	1.286030E-02	7.220820E-05
3.663551E+03	1.271596E-02	7.108617E-05
3.673506E+03	1.259311E-02	7.009013E-05
3.683461E+03	1.249566E-02	6.924017E-05
3.693417E+03	1.242786E-02	6.855785E-05
3.703372E+03	1.239430E-02	6.806622E-05
3.713327E+03	1.239933E-02	6.778654E-05
3.723282E+03	1.244746E-02	6.774054E-05
3.733238E+03	1.254360E-02	6.795158E-05
3.743193E+03	1.269236E-02	6.844098E-05
3.753148E+03	1.289848E-02	6.923017E-05
3.763104E+03	1.316691E-02	7.034131E-05
3.773059E+03	1.350248E-02	7.179542E-05
3.783014E+03	1.391004E-02	7.361310E-05
3.792970E+03	1.439444E-02	7.581439E-05
3.802925E+03	1.496023E-02	7.841725E-05
3.812880E+03	1.561111E-02	8.143491E-05
3.822835E+03	1.634963E-02	8.487407E-05
3.832791E+03	1.717728E-02	8.873569E-05
3.842746E+03	1.809334E-02	9.300926E-05
3.852701E+03	1.909428E-02	9.766996E-05
3.862657E+03	2.017343E-02	1.026773E-04
3.872612E+03	2.131990E-02	1.079701E-04
3.882567E+03	2.251768E-02	1.134626E-04
3.892523E+03	2.374554E-02	1.190443E-04
3.902478E+03	2.497719E-02	1.245817E-04
3.912433E+03	2.618123E-02	1.299187E-04
3.922388E+03	2.732259E-02	1.348844E-04
3.932344E+03	2.836701E-02	1.393151E-04
3.942299E+03	2.928067E-02	1.430532E-04
3.952254E+03	3.003268E-02	1.459587E-04
3.962210E+03	3.059928E-02	1.479290E-04
3.972165E+03	3.096488E-02	1.489036E-04
3.982120E+03	3.112139E-02	1.488593E-04
3.992076E+03	3.107240E-02	1.478292E-04
4.002031E+03	3.083072E-02	1.458898E-04
4.011986E+03	3.041587E-02	1.431481E-04
4.021941E+03	2.985604E-02	1.397491E-04
4.031897E+03	2.918229E-02	1.358488E-04
4.041852E+03	2.842800E-02	1.316105E-04
4.051807E+03	2.762590E-02	1.271911E-04
4.061763E+03	2.680684E-02	1.227356E-04
4.071718E+03	2.599791E-02	1.183686E-04
4.081673E+03	2.522010E-02	1.141845E-04
4.091629E+03	2.449105E-02	1.102602E-04
4.101584E+03	2.382313E-02	1.066475E-04
4.111539E+03	2.322471E-02	1.033790E-04
4.121494E+03	2.270107E-02	1.004727E-04
4.131450E+03	2.225460E-02	9.793350E-05
4.141405E+03	2.188532E-02	9.575566E-05
4.151360E+03	2.159151E-02	9.392590E-05
4.161316E+03	2.137011E-02	9.242533E-05
4.171271E+03	2.121705E-02	9.123094E-05
4.181226E+03	2.112683E-02	9.031426E-05
4.191182E+03	2.109435E-02	8.964887E-05
4.201137E+03	2.111330E-02	8.920387E-05
4.211092E+03	2.117760E-02	8.895006E-05
4.221047E+03	2.128077E-02	8.885707E-05
4.231003E+03	2.141542E-02	8.889144E-05
4.240958E+03	2.157439E-02	8.902149E-05
4.250913E+03	2.174917E-02	8.921060E-05
4.260869E+03	2.192959E-02	8.941634E-05
4.270824E+03	2.210449E-02	8.959323E-05
4.280779E+03	2.226199E-02	8.969400E-05
4.290735E+03	2.238829E-02	8.966472E-05
4.300690E+03	2.246861E-02	8.944906E-05
4.310645E+03	2.248984E-02	8.899853E-05
4.320601E+03	2.243921E-02	8.826727E-05
4.330556E+03	2.230758E-02	8.722474E-05
4.340511E+03	2.208926E-02	8.585458E-05
4.350466E+03	2.178455E-02	8.416410E-05
4.360422E+03	2.140095E-02	8.218814E-05
4.370377E+03	2.095461E-02	7.999370E-05
4.380332E+03	2.047290E-02	7.768883E-05
4.390288E+03	1.999267E-02	7.541489E-05
4.400243E+03	1.955211E-02	7.331485E-05
4.410198E+03	1.918530E-02	7.151287E-05
4.420154E+03	1.892214E-02	7.011480E-05
4.430109E+03	1.878617E-02	6.920046E-05
4.440064E+03	1.879261E-02	6.881725E-05
4.450019E+03	1.895155E-02	6.899281E-05
4.459975E+03	1.926972E-02	6.974188E-05
4.469930E+03	1.974836E-02	7.105907E-05
4.479885E+03	2.038527E-02	7.292690E-05
4.489841E+03	2.117537E-02	7.531794E-05
4.499796E+03	2.210854E-02	7.818762E-05
4.509751E+03	2.316978E-02	8.147535E-05
4.519707E+03	2.433984E-02	8.510699E-05
4.529662E+03	2.559140E-02	8.898216E-05
4.539617E+03	2.689140E-02	9.298285E-05
4.549572E+03	2.820154E-02	9.697580E-05
4.559528E+03	2.947945E-02	1.008168E-04
4.569483E+03	3.067997E-02	1.043553E-04
4.579438E+03	3.175898E-02	1.074476E-04
4.589394E+03	3.267864E-02	1.099742E-04
4.599349E+03	3.340636E-02	1.118354E-04
4.609304E+03	3.391709E-02	1.129591E-04
4.619260E+03	3.419470E-02	1.133036E-04
4.629215E+03	3.423180E-02	1.128569E-04
4.639170E+03	3.402857E-02	1.116320E-04
4.649125E+03	3.359404E-02	1.096701E-04
4.659081E+03	3.294377E-02	1.070326E-04
4.669036E+03	3.210004E-02	1.038012E-04
4.678991E+03	3.109058E-02	1.000734E-04
4.688947E+03	2.994667E-02	9.595583E-05
4.698902E+03	2.870302E-02	9.156409E-05
4.708857E+03	2.739594E-02	8.701651E-05
4.718813E+03	2.606168E-02	8.242908E-05
4.728768E+03	2.473321E-02	7.790533E-05
4.738723E+03	2.343839E-02	7.353102E-05
4.748678E+03	2.220242E-02	6.938200E-05
4.758634E+03	2.104509E-02	6.551614E-05
4.768589E+03	1.998192E-02	6.197728E-05
4.778544E+03	1.902934E-02	5.881159E-05
4.788500E+03	1.819920E-02	5.605070E-05
4.798455E+03	1.749792E-02	5.370930E-05
4.808410E+03	1.692692E-02	5.178688E-05
4.818366E+03	1.648586E-02	5.027771E-05
4.828321E+03	1.617083E-02	4.916557E-05
4.838276E+03	1.597666E-02	4.843079E-05
4.848231E+03	1.589586E-02	4.804713E-05
4.858187E+03	1.591912E-02	4.798336E-05
4.868142E+03	1.603509E-02	4.820260E-05
4.878097E+03	1.622973E-02	4.866046E-05
4.888053E+03	1.648530E-02	4.930208E-05
4.898008E+03	1.678149E-02	5.006551E-05
4.907963E+03	1.709602E-02	5.088368E-05
4.917919E+03	1.740368E-02	5.168142E-05
4.927874E+03	1.767953E-02	5.238506E-05
4.937829E+03	1.790088E-02	5.292817E-05
4.947784E+03	1.805159E-02	5.326417E-05
4.957740E+03	1.812095E-02	5.336276E-05
4.967695E+03	1.810593E-02	5.321634E-05
4.977650E+03	1.801371E-02	5.284728E-05
4.987606E+03	1.785808E-02	5.229698E-05
4.997561E+03	1.765516E-02	5.161335E-05
5.007516E+03	1.742307E-02	5.084973E-05
5.017472E+03	1.717961E-02	5.005817E-05
5.027427E+03	1.694118E-02	4.928629E-05
5.037382E+03	1.672053E-02	4.857080E-05
5.047337E+03	1.652806E-02	4.794140E-05
5.057293E+03	1.637162E-02	4.742028E-05
5.067248E+03	1.625461E-02	4.701663E-05
5.077203E+03	1.617824E-02	4.673333E-05
5.087159E+03	1.614329E-02	4.657200E-05
5.097114E+03	1.615075E-02	4.653493E-05
5.107069E+03	1.620130E-02	4.662351E-05
5.117025E+03	1.629682E-02	4.684256E-05
5.126980E+03	1.644032E-02	4.720023E-05
5.136935E+03	1.663583E-02	4.770751E-05
5.146890E+03	1.688766E-02	4.837621E-05
5.156846E+03	1.720034E-02	4.921870E-05
5.166801E+03	1.757796E-02	5.024610E-05
5.176756E+03	1.802415E-02	5.146813E-05
5.186712E+03	1.853890E-02	5.288418E-05
5.196667E+03	1.912094E-02	5.449003E-05
5.206622E+03	1.976575E-02	5.627220E-05
5.216578E+03	2.046440E-02	5.820479E-05
5.226533E+03	2.120376E-02	6.025004E-05
5.236488E+03	2.196834E-02	6.236362E-05
5.246443E+03	2.273874E-02	6.449032E-05
5.256399E+03	2.349258E-02	6.656666E-05
5.266354E+03	2.420692E-02	6.852779E-05
5.276309E+03	2.485914E-02	7.031001E-05
5.286265E+03	2.542725E-02	7.185166E-05
5.296220E+03	2.589179E-02	7.309833E-05
5.306175E+03	2.623767E-02	7.400823E-05
5.316131E+03	2.645428E-02	7.455230E-05
5.326086E+03	2.653602E-02	7.471567E-05
5.336041E+03	2.648291E-02	7.449941E-05
5.345996E+03	2.630083E-02	7.392099E-05
5.355952E+03	2.599993E-02	7.300982E-05
5.365907E+03	2.559539E-02	7.180935E-05
5.375862E+03	2.510549E-02	7.037156E-05
5.385818E+03	2.455195E-02	6.875791E-05
5.395773E+03	2.395826E-02	6.703457E-05
5.405728E+03	2.334885E-02	6.527014E-05
5.415684E+03	2.275107E-02	6.354113E-05
5.425639E+03	2.219421E-02	6.192915E-05
5.435594E+03	2.170675E-02	6.051333E-05
5.445549E+03	2.131951E-02	5.937893E-05
5.455505E+03	2.106423E-02	5.861352E-05
5.465460E+03	2.096377E-02	5.827963E-05
5.475415E+03	2.101680E-02	5.837235E-05
5.485371E+03	2.118608E-02	5.878700E-05
5.495326E+03	2.141617E-02	5.936899E-05
5.505281E+03	2.164863E-02	5.995587E-05
5.515237E+03	2.183548E-02	6.041484E-05
5.525192E+03	2.193847E-02	6.064044E-05
5.535147E+03	2.192879E-02	6.055379E-05
5.545102E+03	2.179296E-02	6.011855E-05
5.555058E+03	2.153003E-02	5.933312E-05
5.565013E+03	2.114801E-02	5.822062E-05
5.574968E+03	2.066334E-02	5.682731E-05
5.584924E+03	2.009830E-02	5.521525E-05
5.594879E+03	1.947759E-02	5.345300E-05
5.604834E+03	1.882651E-02	5.161042E-05
5.614790E+03	1.816967E-02	4.975528E-05
5.624745E+03	1.752940E-02	4.794876E-05
5.634700E+03	1.692509E-02	4.624373E-05
5.644655E+03	1.637294E-02	4.468418E-05
5.654611E+03	1.588639E-02	4.330630E-05
5.664566E+03	1.547646E-02	4.213951E-05
5.674521E+03	1.515179E-02	4.120668E-05
5.684477E+03	1.491910E-02	4.052528E-05
5.694432E+03	1.478351E-02	4.010830E-05
5.704387E+03	1.474877E-02	3.996503E-05
5.714343E+03	1.481734E-02	4.010110E-05
5.724298E+03	1.498883E-02	4.051443E-05
5.734253E+03	1.526178E-02	4.120008E-05
5.744209E+03	1.563242E-02	4.214685E-05
5.754164E+03	1.609368E-02	4.333468E-05
5.764119E+03	1.663586E-02	4.473655E-05
5.774074E+03	1.724535E-02	4.631506E-05
5.784030E+03	1.790494E-02	4.802338E-05
5.793985E+03	1.859331E-02	4.980390E-05
5.803940E+03	1.928660E-02	5.159250E-05
5.813896E+03	1.995966E-02	5.332197E-05
5.823851E+03	2.058774E-02	5.492659E-05
5.833806E+03	2.114784E-02	5.634562E-05
5.843762E+03	2.162327E-02	5.753545E-05
5.853717E+03	2.200245E-02	5.846631E-05
5.863672E+03	2.227827E-02	5.912049E-05
5.873627E+03	2.244931E-02	5.949540E-05
5.883583E+03	2.251868E-02	5.960050E-05
5.893538E+03	2.249220E-02	5.945234E-05
5.903493E+03	2.237867E-02	5.907530E-05
5.913449E+03	2.218866E-02	5.849824E-05
5.923404E+03	2.193417E-02	5.775358E-05
5.933359E+03	2.162627E-02	5.687125E-05
5.943315E+03	2.127709E-02	5.588364E-05
5.953270E+03	2.089769E-02	5.482031E-05
5.963225E+03	2.049942E-02	5.371129E-05
5.973180E+03	2.009268E-02	5.258404E-05
5.983136E+03	1.968662E-02	5.146258E-05
5.993091E+03	1.928938E-02	5.036821E-05
6.003046E+03	1.890725E-02	4.931728E-05
6.013002E+03	1.854606E-02	4.832487E-05
6.022957E+03	1.820877E-02	4.739852E-05
6.032912E+03	1.789838E-02	4.654587E-05
6.042868E+03	1.761628E-02	4.577039E-05
6.052823E+03	1.736361E-02	4.507480E-05
6.062778E+03	1.714058E-02	4.445951E-05
6.072733E+03	1.694772E-02	4.392573E-05
6.082689E+03	1.678499E-02	4.347322E-05
6.092644E+03	1.665267E-02	4.310262E-05
6.102599E+03	1.655047E-02	4.281302E-05
6.112555E+03	1.647723E-02	4.260143E-05
6.122510E+03	1.643117E-02	4.246315E-05
6.132465E+03	1.640915E-02	4.239015E-05
6.142421E+03	1.640568E-02	4.236822E-05
6.152376E+03	1.641261E-02	4.237645E-05
6.162331E+03	1.641676E-02	4.238089E-05
6.172286E+03	1.639899E-02	4.233222E-05
6.182242E+03	1.633578E-02	4.216974E-05
6.192197E+03	1.619995E-02	4.182322E-05
6.202152E+03	1.596359E-02	4.122035E-05
6.212108E+03	1.561457E-02	4.032949E-05
6.222063E+03	1.517562E-02	3.920890E-05
6.232018E+03	1.469909E-02	3.799333E-05
6.241974E+03	1.424342E-02	3.683345E-05
6.251929E+03	1.385596E-02	3.585158E-05
6.261884E+03	1.356081E-02	3.511010E-05
6.271839E+03	1.336936E-02	3.463882E-05
6.281795E+03	1.328395E-02	3.444419E-05
6.291750E+03	1.329872E-02	3.451157E-05
6.301705E+03	1.340237E-02	3.481221E-05
6.311661E+03	1.358181E-02	3.531276E-05
6.321616E+03	1.382138E-02	3.597305E-05
6.331571E+03	1.410382E-02	3.674868E-05
6.341527E+03	1.441121E-02	3.759340E-05
6.351482E+03	1.472533E-02	3.845994E-05
6.361437E+03	1.502806E-02	3.930107E-05
6.371392E+03	1.530286E-02	4.007349E-05
6.381348E+03	1.553520E-02	4.073886E-05
6.391303E+03	1.571389E-02	4.126732E-05
6.401258E+03	1.583082E-02	4.163689E-05
6.411214E+03	1.588315E-02	4.183928E-05
6.421169E+03	1.587242E-02	4.187765E-05
6.431124E+03	1.580399E-02	4.176526E-05
6.441080E+03	1.568645E-02	4.152395E-05
6.451035E+03	1.553117E-02	4.118308E-05
6.460990E+03	1.535119E-02	4.077661E-05
6.470945E+03	1.516025E-02	4.034058E-05
6.480901E+03	1.497311E-02	3.991404E-05
6.490856E+03	1.480369E-02	3.953409E-05
6.500811E+03	1.466454E-02	3.923437E-05
6.510767E+03	1.456441E-02	3.903874E-05
6.520722E+03	1.450562E-02	3.895382E-05
6.530677E+03	1.448825E-02	3.898040E-05
6.540633E+03	1.451197E-02	3.911807E-05
6.550588E+03	1.457447E-02	3.936117E-05
6.560543E+03	1.467191E-02	3.969981E-05
6.570498E+03	1.479941E-02	4.012122E-05
6.580454E+03	1.495017E-02	4.060732E-05
6.590409E+03	1.511624E-02	4.113675E-05
6.600364E+03	1.528914E-02	4.168655E-05
6.610320E+03	1.545904E-02	4.222989E-05
6.620275E+03	1.561664E-02	4.274120E-05
6.630230E+03	1.575330E-02	4.319651E-05
6.640186E+03	1.586092E-02	4.357318E-05
6.650141E+03	1.593353E-02	4.385424E-05
6.660096E+03	1.596716E-02	4.402814E-05
6.670051E+03	1.595875E-02	4.408574E-05
6.680007E+03	1.590780E-02	4.402496E-05
6.689962E+03	1.581607E-02	4.385003E-05
6.699917E+03	1.568570E-02	4.356618E-05
6.709873E+03	1.552067E-02	4.318389E-05
6.719828E+03	1.532622E-02	4.271724E-05
6.729783E+03	1.510754E-02	4.218030E-05
6.739739E+03	1.487032E-02	4.158858E-05
6.749694E+03	1.462027E-02	4.095781E-05
6.759649E+03	1.436286E-02	4.030320E-05
6.769604E+03	1.410276E-02	3.963778E-05
6.779560E+03	1.384475E-02	3.897498E-05
6.789515E+03	1.359304E-02	3.832673E-05
6.799470E+03	1.335123E-02	3.770331E-05
6.809426E+03	1.312305E-02	3.711545E-05
6.819381E+03	1.291144E-02	3.657161E-05
6.829336E+03	1.271916E-02	3.607994E-05
6.839292E+03	1.254866E-02	3.564762E-05
6.849247E+03	1.240181E-02	3.528031E-05
6.859202E+03	1.228089E-02	3.498477E-05
6.869157E+03	1.218712E-02	3.476485E-05
6.879113E+03	1.212131E-02	3.462317E-05
6.889068E+03	1.208411E-02	3.456192E-05
6.899023E+03	1.207525E-02	3.458070E-05
6.908979E+03	1.209416E-02	3.467813E-05
6.918934E+03	1.213971E-02	3.485132E-05
6.928889E+03	1.220974E-02	3.509433E-05
6.938845E+03	1.230159E-02	3.539972E-05
6.948800E+03	1.241145E-02	3.575679E-05
6.958755E+03	1.253481E-02	3.615267E-05
6.968710E+03	1.266628E-02	3.657191E-05
6.978666E+03	1.280034E-02	3.699866E-05
6.988621E+03	1.293012E-02	3.741305E-05
6.998576E+03	1.304932E-02	3.779680E-05
7.008532E+03	1.315233E-02	3.813355E-05
7.018487E+03	1.323360E-02	3.840706E-05
7.028442E+03	1.328873E-02	3.860442E-05
7.038398E+03	1.331479E-02	3.871688E-05
7.048353E+03	1.331006E-02	3.873924E-05
7.058308E+03	1.327451E-02	3.867123E-05
7.068263E+03	1.320934E-02	3.851614E-05
7.078219E+03	1.311755E-02	3.828252E-05
7.088174E+03	1.300343E-02	3.798278E-05
7.098129E+03	1.287228E-02	3.763229E-05
7.108085E+03	1.272963E-02	3.724719E-05
7.118040E+03	1.258135E-02	3.684460E-05
7.127995E+03	1.243192E-02	3.643773E-05
7.137951E+03	1.228628E-02	3.604112E-05
7.147906E+03	1.214786E-02	3.566488E-05
7.157861E+03	1.201920E-02	3.531665E-05
7.167817E+03	1.190182E-02	3.500098E-05
7.177772E+03	1.179716E-02	3.472231E-05
7.187727E+03	1.170474E-02	3.447934E-05
7.197682E+03	1.162418E-02	3.427110E-05
7.207638E+03	1.155426E-02	3.409416E-05
7.217593E+03	1.149395E-02	3.394564E-05
7.227548E+03	1.144161E-02	3.382077E-05
7.237504E+03	1.139585E-02	3.371562E-05
7.247459E+03	1.135574E-02	3.362755E-05
7.257414E+03	1.132004E-02	3.355297E-05
7.267370E+03	1.128816E-02	3.349024E-05
7.277325E+03	1.125900E-02	3.343623E-05
7.287280E+03	1.123241E-02	3.339054E-05
7.297235E+03	1.120839E-02	3.335328E-05
7.307191E+03	1.118645E-02	3.332312E-05
7.317146E+03	1.116694E-02	3.330116E-05
7.327101E+03	1.114971E-02	3.328707E-05
7.337057E+03	1.113506E-02	3.328183E-05
7.347012E+03	1.112259E-02	3.328439E-05
7.356967E+03	1.111185E-02	3.329346E-05
7.366923E+03	1.110189E-02	3.330631E-05
7.376878E+03	1.109104E-02	3.331800E-05
7.386833E+03	1.107738E-02	3.332282E-05
7.396788E+03	1.105848E-02	3.331353E-05
7.406744E+03	1.103151E-02	3.328160E-05
7.416699E+03	1.099393E-02	3.321928E-05
7.426654E+03	1.094321E-02	3.311886E-05
7.436610E+03	1.087786E-02	3.297570E-05
7.446565E+03	1.079653E-02	3.278551E-05
7.456520E+03	1.069919E-02	3.254794E-05
7.466476E+03	1.058657E-02	3.226490E-05
7.476431E+03	1.046010E-02	3.194044E-05
7.486386E+03	1.032275E-02	3.158330E-05
7.496341E+03	1.017709E-02	3.120111E-05
7.506297E+03	1.002664E-02	3.080446E-05
7.516252E+03	9.875009E-03	3.040424E-05
7.526207E+03	9.726081E-03	3.001233E-05
7.536163E+03	9.583037E-03	2.963855E-05
7.546118E+03	9.449739E-03	2.929490E-05
7.556073E+03	9.329640E-03	2.899225E-05
7.566029E+03	9.226075E-03	2.874121E-05
7.575984E+03	9.141408E-03	2.854948E-05
7.585939E+03	9.078012E-03	2.842489E-05
7.595894E+03	9.034171E-03	2.836253E-05
7.605850E+03	9.007311E-03	2.835477E-05
7.615805E+03	8.995460E-03	2.839581E-05
7.625760E+03	8.996002E-03	2.847774E-05
7.635716E+03	9.006662E-03	2.859368E-05
7.645671E+03	9.025295E-03	2.873710E-05
7.655626E+03	9.050043E-03	2.890231E-05
7.665582E+03	9.079605E-03	2.908532E-05
7.675537E+03	9.113227E-03	2.928388E-05
7.685492E+03	9.149710E-03	2.949429E-05
7.695447E+03	9.189045E-03	2.971662E-05
7.705403E+03	9.230700E-03	2.994928E-05
7.715358E+03	9.274382E-03	3.019141E-05
7.725313E+03	9.319768E-03	3.044207E-05
