#wls	flux	fluxerr
1.592848E+03	2.548955E-03	8.563470E-05
1.632669E+03	2.630127E-03	8.781593E-05
1.672491E+03	2.717520E-03	9.015794E-05
1.712312E+03	2.811160E-03	9.265634E-05
1.752133E+03	2.912145E-03	9.534153E-05
1.791954E+03	3.020501E-03	9.820795E-05
1.831775E+03	3.136791E-03	1.012670E-04
1.871597E+03	3.262114E-03	1.045467E-04
1.911418E+03	3.396490E-03	1.080392E-04
1.951239E+03	3.540743E-03	1.117618E-04
1.991060E+03	3.695151E-03	1.157137E-04
2.030881E+03	3.860525E-03	1.199100E-04
2.070703E+03	4.036577E-03	1.243305E-04
2.110524E+03	4.223273E-03	1.289630E-04
2.150345E+03	4.420281E-03	1.337858E-04
2.190166E+03	4.625875E-03	1.387355E-04
2.229987E+03	4.838021E-03	1.437409E-04
2.269809E+03	5.055742E-03	1.487642E-04
2.309630E+03	5.279135E-03	1.537993E-04
2.349451E+03	5.511296E-03	1.589268E-04
2.389272E+03	5.754731E-03	1.642062E-04
2.429093E+03	6.011650E-03	1.696851E-04
2.468915E+03	6.284726E-03	1.754210E-04
2.508736E+03	6.574925E-03	1.814204E-04
2.548557E+03	6.883657E-03	1.877000E-04
2.588378E+03	7.211670E-03	1.942561E-04
2.628199E+03	7.559843E-03	2.010868E-04
2.668021E+03	7.928071E-03	2.081625E-04
2.707842E+03	8.316044E-03	2.154477E-04
2.747663E+03	8.722952E-03	2.228938E-04
2.787484E+03	9.147432E-03	2.304386E-04
2.827305E+03	9.587799E-03	2.380133E-04
2.867127E+03	1.004253E-02	2.455549E-04
2.906948E+03	1.051014E-02	2.530032E-04
2.946769E+03	1.098963E-02	2.603112E-04
2.986590E+03	1.148004E-02	2.674335E-04
2.996546E+03	1.160451E-02	2.691864E-04
3.006501E+03	1.172929E-02	2.709174E-04
3.016456E+03	1.185482E-02	2.726361E-04
3.026411E+03	1.198072E-02	2.743338E-04
3.036367E+03	1.210715E-02	2.760139E-04
3.046322E+03	1.223427E-02	2.776795E-04
3.056277E+03	1.236142E-02	2.793155E-04
3.066233E+03	1.248928E-02	2.809368E-04
3.076188E+03	1.261718E-02	2.825284E-04
3.086143E+03	1.274551E-02	2.840985E-04
3.096099E+03	1.287385E-02	2.856379E-04
3.106054E+03	1.300207E-02	2.871433E-04
3.116009E+03	1.313051E-02	2.886220E-04
3.125964E+03	1.325850E-02	2.900591E-04
3.135920E+03	1.338661E-02	2.914673E-04
3.145875E+03	1.351390E-02	2.928261E-04
3.155830E+03	1.364094E-02	2.941476E-04
3.165786E+03	1.376703E-02	2.954167E-04
3.175741E+03	1.389244E-02	2.966395E-04
3.185696E+03	1.401672E-02	2.978066E-04
3.195652E+03	1.413987E-02	2.989182E-04
3.205607E+03	1.426167E-02	2.999698E-04
3.215562E+03	1.438188E-02	3.009565E-04
3.225517E+03	1.450000E-02	3.018685E-04
3.235473E+03	1.461625E-02	3.027111E-04
3.245428E+03	1.473014E-02	3.034744E-04
3.255383E+03	1.484164E-02	3.041585E-04
3.265339E+03	1.495025E-02	3.047540E-04
3.275294E+03	1.505571E-02	3.052561E-04
3.285249E+03	1.515799E-02	3.056656E-04
3.295205E+03	1.525660E-02	3.059735E-04
3.305160E+03	1.535154E-02	3.061807E-04
3.315115E+03	1.544259E-02	3.062840E-04
3.317106E+03	3.936832E-03	7.799455E-05
3.319097E+03	3.962425E-03	7.841348E-05
3.321088E+03	4.048660E-03	8.002992E-05
3.323079E+03	4.129985E-03	8.154550E-05
3.325070E+03	4.116732E-03	8.119210E-05
3.327061E+03	4.186172E-03	8.246828E-05
3.329053E+03	4.295721E-03	8.453059E-05
3.331044E+03	4.382897E-03	8.614818E-05
3.333035E+03	4.541862E-03	8.917124E-05
3.335026E+03	4.677169E-03	9.172321E-05
3.337017E+03	4.695626E-03	9.198014E-05
3.339008E+03	4.818789E-03	9.428484E-05
3.340999E+03	4.857936E-03	9.494200E-05
3.342990E+03	4.871669E-03	9.510120E-05
3.344981E+03	5.035268E-03	9.818194E-05
3.346972E+03	5.021252E-03	9.779596E-05
3.348963E+03	5.052068E-03	9.828270E-05
3.350954E+03	5.175393E-03	1.005656E-04
3.352945E+03	5.273707E-03	1.023574E-04
3.354936E+03	5.278848E-03	1.023384E-04
3.356927E+03	5.262654E-03	1.019060E-04
3.358918E+03	5.204456E-03	1.006618E-04
3.360910E+03	5.254737E-03	1.015158E-04
3.362901E+03	5.320635E-03	1.026689E-04
3.364892E+03	5.372906E-03	1.035563E-04
3.366883E+03	5.483977E-03	1.055732E-04
3.368874E+03	5.501918E-03	1.057942E-04
3.370865E+03	5.529230E-03	1.061944E-04
3.372856E+03	5.582560E-03	1.070923E-04
3.374847E+03	5.631260E-03	1.078990E-04
3.376838E+03	5.698452E-03	1.090574E-04
3.378829E+03	5.735190E-03	1.096305E-04
3.380820E+03	5.801647E-03	1.107692E-04
3.382811E+03	5.943950E-03	1.133512E-04
3.384802E+03	6.008594E-03	1.144475E-04
3.386793E+03	6.104969E-03	1.161445E-04
3.388784E+03	6.298048E-03	1.196745E-04
3.390775E+03	6.340229E-03	1.203317E-04
3.392766E+03	6.381748E-03	1.209744E-04
3.394758E+03	6.568644E-03	1.243676E-04
3.396749E+03	6.747290E-03	1.275962E-04
3.398740E+03	6.982158E-03	1.318784E-04
3.400731E+03	7.159430E-03	1.350633E-04
3.402722E+03	7.248740E-03	1.365826E-04
3.404713E+03	7.400899E-03	1.392804E-04
3.406704E+03	7.592442E-03	1.427116E-04
3.408695E+03	7.767062E-03	1.458161E-04
3.410686E+03	7.926025E-03	1.486189E-04
3.412677E+03	8.097448E-03	1.516477E-04
3.414668E+03	8.311478E-03	1.554655E-04
3.416659E+03	8.544516E-03	1.596284E-04
3.418650E+03	8.741440E-03	1.631067E-04
3.420641E+03	8.944172E-03	1.666841E-04
3.422632E+03	9.159300E-03	1.704827E-04
3.424623E+03	9.343936E-03	1.737045E-04
3.426615E+03	9.567342E-03	1.776375E-04
3.428606E+03	9.787463E-03	1.814992E-04
3.430597E+03	9.995855E-03	1.851333E-04
3.432588E+03	1.024583E-02	1.895269E-04
3.434579E+03	1.050010E-02	1.939883E-04
3.436570E+03	1.074633E-02	1.982894E-04
3.438561E+03	1.097837E-02	2.023174E-04
3.440552E+03	1.122745E-02	2.066483E-04
3.442543E+03	1.143812E-02	2.102613E-04
3.444534E+03	1.161740E-02	2.132881E-04
3.446525E+03	1.180657E-02	2.164879E-04
3.448516E+03	1.191867E-02	2.182673E-04
3.450507E+03	1.204153E-02	2.202382E-04
3.452498E+03	1.223638E-02	2.235183E-04
3.454489E+03	1.241548E-02	2.265019E-04
3.456480E+03	1.252872E-02	2.282769E-04
3.458471E+03	1.264145E-02	2.300370E-04
3.460463E+03	1.275733E-02	2.318492E-04
3.462454E+03	1.285838E-02	2.333868E-04
3.464445E+03	1.297221E-02	2.351509E-04
3.466436E+03	1.309144E-02	2.370074E-04
3.468427E+03	1.316871E-02	2.380995E-04
3.470418E+03	1.324243E-02	2.391237E-04
3.472409E+03	1.331383E-02	2.401024E-04
3.474400E+03	1.340717E-02	2.414729E-04
3.476391E+03	1.352141E-02	2.432146E-04
3.478382E+03	1.355549E-02	2.435109E-04
3.480373E+03	1.358281E-02	2.436842E-04
3.482364E+03	1.361864E-02	2.440085E-04
3.484355E+03	1.370203E-02	2.451818E-04
3.486346E+03	1.373491E-02	2.454485E-04
3.488337E+03	1.372405E-02	2.449329E-04
3.490328E+03	1.371015E-02	2.443634E-04
3.492319E+03	1.372529E-02	2.443111E-04
3.494311E+03	1.370854E-02	2.436912E-04
3.496302E+03	1.371735E-02	2.435256E-04
3.498293E+03	1.371276E-02	2.431219E-04
3.500284E+03	1.368952E-02	2.423880E-04
3.502275E+03	1.362131E-02	2.408599E-04
3.504266E+03	1.362747E-02	2.406481E-04
3.506257E+03	1.361500E-02	2.401071E-04
3.508248E+03	1.361466E-02	2.397803E-04
3.510239E+03	1.355021E-02	2.383258E-04
3.512230E+03	1.351755E-02	2.374323E-04
3.514221E+03	1.345459E-02	2.360090E-04
3.516212E+03	1.338401E-02	2.344548E-04
3.518203E+03	1.337626E-02	2.340029E-04
3.520194E+03	1.331625E-02	2.326383E-04
3.522185E+03	1.327726E-02	2.316429E-04
3.524176E+03	1.323467E-02	2.305866E-04
3.526168E+03	1.320036E-02	2.296762E-04
3.528159E+03	1.314795E-02	2.284528E-04
3.530150E+03	1.313222E-02	2.278680E-04
3.532141E+03	1.315491E-02	2.279497E-04
3.534132E+03	1.320472E-02	2.284994E-04
3.536123E+03	1.321870E-02	2.284273E-04
3.538114E+03	1.331502E-02	2.297754E-04
3.540105E+03	1.336145E-02	2.302589E-04
3.542096E+03	1.343451E-02	2.311984E-04
3.544087E+03	1.351873E-02	2.323261E-04
3.546078E+03	1.356135E-02	2.327356E-04
3.548069E+03	1.363439E-02	2.336642E-04
3.550060E+03	1.369392E-02	2.343580E-04
3.552051E+03	1.370493E-02	2.342195E-04
3.554042E+03	1.372132E-02	2.341721E-04
3.556033E+03	1.376329E-02	2.345598E-04
3.558024E+03	1.382141E-02	2.352201E-04
3.560016E+03	1.387786E-02	2.358491E-04
3.562007E+03	1.395882E-02	2.368911E-04
3.563998E+03	1.399137E-02	2.371087E-04
3.565989E+03	1.401729E-02	2.372124E-04
3.567980E+03	1.404796E-02	2.373949E-04
3.569971E+03	1.403053E-02	2.367642E-04
3.571962E+03	1.402666E-02	2.363625E-04
3.573953E+03	1.401502E-02	2.358301E-04
3.575944E+03	1.402647E-02	2.356861E-04
3.577935E+03	1.399292E-02	2.347863E-04
3.579926E+03	1.399182E-02	2.344315E-04
3.581917E+03	1.397897E-02	2.338803E-04
3.583908E+03	1.396612E-02	2.333294E-04
3.585899E+03	1.390044E-02	2.318974E-04
3.587890E+03	1.383937E-02	2.305454E-04
3.589881E+03	1.374838E-02	2.286984E-04
3.591872E+03	1.372888E-02	2.280432E-04
3.593864E+03	1.370978E-02	2.273953E-04
3.595855E+03	1.366869E-02	2.263840E-04
3.597846E+03	1.361674E-02	2.251948E-04
3.599837E+03	1.352562E-02	2.233612E-04
3.601828E+03	1.342528E-02	2.213798E-04
3.603819E+03	1.337882E-02	2.202903E-04
3.605810E+03	1.330828E-02	2.188069E-04
3.607801E+03	1.328463E-02	2.180965E-04
3.609792E+03	1.320529E-02	2.164743E-04
3.611783E+03	1.314931E-02	2.152381E-04
3.613774E+03	1.313205E-02	2.146373E-04
3.615765E+03	1.305780E-02	2.131071E-04
3.617756E+03	1.298756E-02	2.116455E-04
3.619747E+03	1.294199E-02	2.105889E-04
3.621738E+03	1.288229E-02	2.093045E-04
3.623729E+03	1.283109E-02	2.081610E-04
3.625721E+03	1.282006E-02	2.076704E-04
3.627712E+03	1.279252E-02	2.069132E-04
3.629703E+03	1.277207E-02	2.062716E-04
3.631694E+03	1.276381E-02	2.058274E-04
3.633685E+03	1.276556E-02	2.055447E-04
3.635676E+03	1.275198E-02	2.050154E-04
3.637667E+03	1.275293E-02	2.047197E-04
3.639658E+03	1.274563E-02	2.042917E-04
3.641649E+03	1.272676E-02	2.036787E-04
3.643640E+03	1.270595E-02	2.030353E-04
3.645631E+03	1.267359E-02	2.022087E-04
3.647622E+03	1.263675E-02	2.013122E-04
3.649613E+03	1.264903E-02	2.011984E-04
3.651604E+03	1.263020E-02	2.005900E-04
3.653595E+03	1.260865E-02	1.999391E-04
3.655586E+03	1.256308E-02	1.989090E-04
3.657577E+03	1.253278E-02	1.981222E-04
3.659569E+03	1.252610E-02	1.977096E-04
3.661560E+03	1.250323E-02	1.970421E-04
3.663551E+03	1.247530E-02	1.962960E-04
3.665542E+03	1.244000E-02	1.954351E-04
3.667533E+03	1.239264E-02	1.943869E-04
3.669524E+03	1.236031E-02	1.935761E-04
3.671515E+03	1.232294E-02	1.926880E-04
3.673506E+03	1.228229E-02	1.917505E-04
3.675497E+03	1.220534E-02	1.902489E-04
3.677488E+03	1.212497E-02	1.886977E-04
3.679479E+03	1.204058E-02	1.870880E-04
3.681470E+03	1.194599E-02	1.853240E-04
3.683461E+03	1.183404E-02	1.832955E-04
3.685452E+03	1.172704E-02	1.813491E-04
3.687443E+03	1.159979E-02	1.790952E-04
3.689434E+03	1.146589E-02	1.767449E-04
3.691425E+03	1.130870E-02	1.740427E-04
3.693417E+03	1.114006E-02	1.711721E-04
3.695408E+03	1.101604E-02	1.689943E-04
3.697399E+03	1.085698E-02	1.662858E-04
3.699390E+03	1.066949E-02	1.631503E-04
3.701381E+03	1.049569E-02	1.602330E-04
3.703372E+03	1.032381E-02	1.573533E-04
3.705363E+03	1.007689E-02	1.533404E-04
3.707354E+03	9.863754E-03	1.498527E-04
3.709345E+03	9.606917E-03	1.457126E-04
3.711336E+03	9.375938E-03	1.419768E-04
3.713327E+03	9.123446E-03	1.379270E-04
3.715318E+03	8.884098E-03	1.340881E-04
3.717309E+03	8.636337E-03	1.301342E-04
3.719300E+03	8.338881E-03	1.254449E-04
3.721291E+03	8.090689E-03	1.215102E-04
3.723282E+03	7.819336E-03	1.172405E-04
3.725274E+03	7.568018E-03	1.132841E-04
3.727265E+03	7.325960E-03	1.094785E-04
3.729256E+03	7.108485E-03	1.060516E-04
3.731247E+03	6.914597E-03	1.029868E-04
3.733238E+03	6.705781E-03	9.970962E-05
3.735229E+03	6.470020E-03	9.604279E-05
3.737220E+03	6.258205E-03	9.274250E-05
3.739211E+03	6.041449E-03	8.937961E-05
3.741202E+03	5.832176E-03	8.613801E-05
3.743193E+03	5.625027E-03	8.293810E-05
3.745184E+03	5.448234E-03	8.019530E-05
3.747175E+03	5.290314E-03	7.773862E-05
3.749166E+03	5.150663E-03	7.555777E-05
3.751157E+03	5.051157E-03	7.397175E-05
3.753148E+03	4.959748E-03	7.250904E-05
3.755139E+03	4.845596E-03	7.071893E-05
3.757130E+03	4.756287E-03	6.929643E-05
3.759122E+03	4.660037E-03	6.777741E-05
3.761113E+03	4.595422E-03	6.672247E-05
3.763104E+03	4.536755E-03	6.575695E-05
3.765095E+03	4.512879E-03	6.529772E-05
3.767086E+03	4.505525E-03	6.507830E-05
3.769077E+03	4.457603E-03	6.427423E-05
3.771068E+03	4.463733E-03	6.425057E-05
3.773059E+03	4.476098E-03	6.431612E-05
3.775050E+03	4.496394E-03	6.449478E-05
3.777041E+03	4.501535E-03	6.445538E-05
3.779032E+03	4.558087E-03	6.515052E-05
3.781023E+03	4.605882E-03	6.571781E-05
3.783014E+03	4.644933E-03	6.615812E-05
3.785005E+03	4.686204E-03	6.662798E-05
3.786996E+03	4.759494E-03	6.755015E-05
3.788987E+03	4.827422E-03	6.839263E-05
3.790979E+03	4.920526E-03	6.958768E-05
3.792970E+03	4.998076E-03	7.055842E-05
3.794961E+03	5.093043E-03	7.177063E-05
3.796952E+03	5.211045E-03	7.330203E-05
3.798943E+03	5.324963E-03	7.477008E-05
3.800934E+03	5.459802E-03	7.652558E-05
3.802925E+03	5.623975E-03	7.868461E-05
3.804916E+03	5.790776E-03	8.087201E-05
3.806907E+03	5.979531E-03	8.335697E-05
3.808898E+03	6.122317E-03	8.519266E-05
3.810889E+03	6.303361E-03	8.755248E-05
3.812880E+03	6.492065E-03	9.000928E-05
3.814871E+03	6.633941E-03	9.180841E-05
3.816862E+03	6.797729E-03	9.390299E-05
3.818853E+03	6.996677E-03	9.647403E-05
3.820844E+03	7.203060E-03	9.913725E-05
3.822835E+03	7.412007E-03	1.018252E-04
3.824827E+03	7.633037E-03	1.046681E-04
3.826818E+03	7.838515E-03	1.072869E-04
3.828809E+03	8.079934E-03	1.103863E-04
3.830800E+03	8.316045E-03	1.134009E-04
3.832791E+03	8.576658E-03	1.167370E-04
3.834782E+03	8.798804E-03	1.195372E-04
3.836773E+03	9.038187E-03	1.225597E-04
3.838764E+03	9.342937E-03	1.264547E-04
3.840755E+03	9.654957E-03	1.304324E-04
3.842746E+03	1.000080E-02	1.348502E-04
3.844737E+03	1.036109E-02	1.394448E-04
3.846728E+03	1.076197E-02	1.445662E-04
3.848719E+03	1.115683E-02	1.495864E-04
3.850710E+03	1.153548E-02	1.543695E-04
3.852701E+03	1.195037E-02	1.596171E-04
3.854692E+03	1.242790E-02	1.656787E-04
3.856683E+03	1.288823E-02	1.714870E-04
3.858675E+03	1.335857E-02	1.774046E-04
3.860666E+03	1.385626E-02	1.836607E-04
3.862657E+03	1.438257E-02	1.902698E-04
3.864648E+03	1.488574E-02	1.965465E-04
3.866639E+03	1.543260E-02	2.033731E-04
3.868630E+03	1.599652E-02	2.103962E-04
3.870621E+03	1.653823E-02	2.170987E-04
3.872612E+03	1.710748E-02	2.241342E-04
3.874603E+03	1.771453E-02	2.316348E-04
3.876594E+03	1.831444E-02	2.390110E-04
3.878585E+03	1.891419E-02	2.463544E-04
3.880576E+03	1.955752E-02	2.542334E-04
3.882567E+03	2.023682E-02	2.625461E-04
3.884558E+03	2.093919E-02	2.711225E-04
3.886549E+03	2.158202E-02	2.788935E-04
3.888540E+03	2.223142E-02	2.867162E-04
3.890532E+03	2.290388E-02	2.948022E-04
3.892523E+03	2.358103E-02	3.029138E-04
3.894514E+03	2.426103E-02	3.110271E-04
3.896505E+03	2.493657E-02	3.190483E-04
3.898496E+03	2.560399E-02	3.269310E-04
3.900487E+03	2.626330E-02	3.346760E-04
3.902478E+03	2.690173E-02	3.421215E-04
3.904469E+03	2.753027E-02	3.494084E-04
3.906460E+03	2.817811E-02	3.569075E-04
3.908451E+03	2.878872E-02	3.639024E-04
3.910442E+03	2.939494E-02	3.708105E-04
3.912433E+03	3.001135E-02	3.778154E-04
3.914424E+03	3.058697E-02	3.842762E-04
3.916415E+03	3.114735E-02	3.905160E-04
3.918406E+03	3.169432E-02	3.965589E-04
3.920397E+03	3.220973E-02	4.021797E-04
3.922388E+03	3.271544E-02	4.076527E-04
3.924380E+03	3.322414E-02	4.131368E-04
3.926371E+03	3.371771E-02	4.184067E-04
3.928362E+03	3.418348E-02	4.233067E-04
3.930353E+03	3.461425E-02	4.277501E-04
3.932344E+03	3.500286E-02	4.316512E-04
3.934335E+03	3.535660E-02	4.351030E-04
3.936326E+03	3.570627E-02	4.384864E-04
3.938317E+03	3.604646E-02	4.417353E-04
3.940308E+03	3.638079E-02	4.448950E-04
3.942299E+03	3.671288E-02	4.480098E-04
3.944290E+03	3.702110E-02	4.508166E-04
3.946281E+03	3.729466E-02	4.531863E-04
3.948272E+03	3.754265E-02	4.552314E-04
3.950263E+03	3.777950E-02	4.571288E-04
3.952254E+03	3.796924E-02	4.584451E-04
3.954245E+03	3.811197E-02	4.591850E-04
3.956236E+03	3.828145E-02	4.602388E-04
3.958228E+03	3.841118E-02	4.608069E-04
3.960219E+03	3.855147E-02	4.614946E-04
3.962210E+03	3.867901E-02	4.620224E-04
3.964201E+03	3.877587E-02	4.621779E-04
3.966192E+03	3.883137E-02	4.618363E-04
3.968183E+03	3.887959E-02	4.614052E-04
3.970174E+03	3.889195E-02	4.605468E-04
3.972165E+03	3.891140E-02	4.597713E-04
3.974156E+03	3.890396E-02	4.586777E-04
3.976147E+03	3.885719E-02	4.571216E-04
3.978138E+03	3.883366E-02	4.558405E-04
3.980129E+03	3.873518E-02	4.536828E-04
3.982120E+03	3.862787E-02	4.514266E-04
3.984111E+03	3.852064E-02	4.491769E-04
3.986102E+03	3.838324E-02	4.465815E-04
3.988093E+03	3.824774E-02	4.440152E-04
3.990085E+03	3.811414E-02	4.414778E-04
3.992076E+03	3.794689E-02	4.385582E-04
3.994067E+03	3.778159E-02	4.356696E-04
3.996058E+03	3.762000E-02	4.328321E-04
3.998049E+03	3.741953E-02	4.295567E-04
4.000040E+03	3.721040E-02	4.261922E-04
4.002031E+03	3.694833E-02	4.222335E-04
4.004022E+03	3.670425E-02	4.184933E-04
4.006013E+03	3.643211E-02	4.144465E-04
4.008004E+03	3.615673E-02	4.103770E-04
4.009995E+03	3.586574E-02	4.061448E-04
4.011986E+03	3.554504E-02	4.015919E-04
4.013977E+03	3.520704E-02	3.968606E-04
4.015968E+03	3.488883E-02	3.923693E-04
4.017959E+03	3.456922E-02	3.878786E-04
4.019950E+03	3.419533E-02	3.827969E-04
4.021941E+03	3.381131E-02	3.776212E-04
4.023933E+03	3.342420E-02	3.724310E-04
4.025924E+03	3.301643E-02	3.670312E-04
4.027915E+03	3.261441E-02	3.617161E-04
4.029906E+03	3.219703E-02	3.562520E-04
4.031897E+03	3.178191E-02	3.508343E-04
4.033888E+03	3.136551E-02	3.454241E-04
4.035879E+03	3.098117E-02	3.403876E-04
4.037870E+03	3.062005E-02	3.356256E-04
4.039861E+03	3.020856E-02	3.303315E-04
4.041852E+03	2.980806E-02	3.251786E-04
4.043843E+03	2.940804E-02	3.200515E-04
4.045834E+03	2.899624E-02	3.148174E-04
4.047825E+03	2.856222E-02	3.093640E-04
4.049816E+03	2.813744E-02	3.040329E-04
4.051807E+03	2.774982E-02	2.991242E-04
4.053798E+03	2.735393E-02	2.941469E-04
4.055790E+03	2.692889E-02	2.888773E-04
4.057781E+03	2.649564E-02	2.835420E-04
4.059772E+03	2.610295E-02	2.786621E-04
4.061763E+03	2.569856E-02	2.736779E-04
4.063754E+03	2.528421E-02	2.686090E-04
4.065745E+03	2.490511E-02	2.639352E-04
4.067736E+03	2.451084E-02	2.591206E-04
4.069727E+03	2.411704E-02	2.543315E-04
4.071718E+03	2.378441E-02	2.502063E-04
4.073709E+03	2.344351E-02	2.460115E-04
4.075700E+03	2.308223E-02	2.416213E-04
4.077691E+03	2.278196E-02	2.378868E-04
4.079682E+03	2.249762E-02	2.343338E-04
4.081673E+03	2.220843E-02	2.307452E-04
4.083664E+03	2.192477E-02	2.272289E-04
4.085655E+03	2.163281E-02	2.236416E-04
4.087646E+03	2.139986E-02	2.206780E-04
4.089638E+03	2.120166E-02	2.180839E-04
4.091629E+03	2.100369E-02	2.155026E-04
4.093620E+03	2.081112E-02	2.129868E-04
4.095611E+03	2.062222E-02	2.105184E-04
4.097602E+03	2.045761E-02	2.083072E-04
4.099593E+03	2.031381E-02	2.063160E-04
4.101584E+03	2.017189E-02	2.043513E-04
4.103575E+03	2.004557E-02	2.025517E-04
4.105566E+03	1.994513E-02	2.010194E-04
4.107557E+03	1.984993E-02	1.995452E-04
4.109548E+03	1.975826E-02	1.981113E-04
4.111539E+03	1.965642E-02	1.965804E-04
4.113530E+03	1.956495E-02	1.951584E-04
4.115521E+03	1.947701E-02	1.937762E-04
4.117512E+03	1.939427E-02	1.924503E-04
4.119503E+03	1.931163E-02	1.911297E-04
4.121494E+03	1.926148E-02	1.901342E-04
4.123486E+03	1.920286E-02	1.890580E-04
4.125477E+03	1.913577E-02	1.879017E-04
4.127468E+03	1.910111E-02	1.870664E-04
4.129459E+03	1.903583E-02	1.859341E-04
4.131450E+03	1.897232E-02	1.848224E-04
4.133441E+03	1.894287E-02	1.840450E-04
4.135432E+03	1.891343E-02	1.832692E-04
4.137423E+03	1.888740E-02	1.825281E-04
4.139414E+03	1.889361E-02	1.820991E-04
4.141405E+03	1.888962E-02	1.815719E-04
4.143396E+03	1.889070E-02	1.810935E-04
4.145387E+03	1.890868E-02	1.807768E-04
4.147378E+03	1.892662E-02	1.804587E-04
4.149369E+03	1.896311E-02	1.803163E-04
4.151360E+03	1.898094E-02	1.799952E-04
4.153351E+03	1.902744E-02	1.799442E-04
4.155343E+03	1.907722E-02	1.799220E-04
4.157334E+03	1.913029E-02	1.799283E-04
4.159325E+03	1.919842E-02	1.800732E-04
4.161316E+03	1.926140E-02	1.801664E-04
4.163307E+03	1.933605E-02	1.803655E-04
4.165298E+03	1.939712E-02	1.804345E-04
4.167289E+03	1.947658E-02	1.806710E-04
4.169280E+03	1.950889E-02	1.804674E-04
4.171271E+03	1.958644E-02	1.806796E-04
4.173262E+03	1.964207E-02	1.806863E-04
4.175253E+03	1.968419E-02	1.805663E-04
4.177244E+03	1.977145E-02	1.808572E-04
4.179235E+03	1.982343E-02	1.808220E-04
4.181226E+03	1.988535E-02	1.808746E-04
4.183217E+03	1.993881E-02	1.808475E-04
4.185208E+03	1.998717E-02	1.807715E-04
4.187199E+03	2.005880E-02	1.809032E-04
4.189191E+03	2.010863E-02	1.808353E-04
4.191182E+03	2.014670E-02	1.806596E-04
4.193173E+03	2.019803E-02	1.806006E-04
4.195164E+03	2.021930E-02	1.802712E-04
4.197155E+03	2.023885E-02	1.799256E-04
