#wls	flux	fluxerr
1.592848E+03	2.136542E-03	6.431280E-05
1.632669E+03	2.201854E-03	6.583417E-05
1.672491E+03	2.272134E-03	6.746766E-05
1.712312E+03	2.347587E-03	6.921533E-05
1.752133E+03	2.428633E-03	7.108511E-05
1.791954E+03	2.515900E-03	7.309063E-05
1.831775E+03	2.609179E-03	7.522048E-05
1.871597E+03	2.709314E-03	7.749356E-05
1.911418E+03	2.816523E-03	7.990994E-05
1.951239E+03	2.931027E-03	8.246943E-05
1.991060E+03	3.052844E-03	8.516576E-05
2.030881E+03	3.182208E-03	8.799842E-05
2.070703E+03	3.318945E-03	9.095523E-05
2.110524E+03	3.462473E-03	9.401288E-05
2.150345E+03	3.612850E-03	9.716575E-05
2.190166E+03	3.769316E-03	1.003860E-04
2.229987E+03	3.931337E-03	1.036526E-04
2.269809E+03	4.098817E-03	1.069561E-04
2.309630E+03	4.272106E-03	1.102986E-04
2.349451E+03	4.452215E-03	1.136986E-04
2.389272E+03	4.640388E-03	1.171789E-04
2.429093E+03	4.837916E-03	1.207622E-04
2.468915E+03	5.046779E-03	1.244861E-04
2.508736E+03	5.268380E-03	1.283716E-04
2.548557E+03	5.504620E-03	1.324498E-04
2.588378E+03	5.756873E-03	1.367364E-04
2.628199E+03	6.026828E-03	1.412523E-04
2.668021E+03	6.315883E-03	1.460091E-04
2.707842E+03	6.625590E-03	1.510199E-04
2.747663E+03	6.957698E-03	1.562991E-04
2.787484E+03	7.313937E-03	1.618582E-04
2.827305E+03	7.696296E-03	1.677114E-04
2.867127E+03	8.107474E-03	1.738847E-04
2.906948E+03	8.550061E-03	1.803972E-04
2.946769E+03	9.028099E-03	1.872941E-04
2.986590E+03	9.545373E-03	1.946086E-04
2.996546E+03	9.681630E-03	1.965132E-04
3.006501E+03	9.820570E-03	1.984446E-04
3.016456E+03	9.962254E-03	2.004031E-04
3.026411E+03	1.010719E-02	2.023981E-04
3.036367E+03	1.025519E-02	2.044251E-04
3.046322E+03	1.040635E-02	2.064846E-04
3.056277E+03	1.056094E-02	2.085811E-04
3.066233E+03	1.071879E-02	2.107104E-04
3.076188E+03	1.087997E-02	2.128727E-04
3.086143E+03	1.104501E-02	2.150770E-04
3.096099E+03	1.121349E-02	2.173146E-04
3.106054E+03	1.138572E-02	2.195899E-04
3.116009E+03	1.156154E-02	2.218986E-04
3.125964E+03	1.174168E-02	2.242539E-04
3.135920E+03	1.192551E-02	2.266423E-04
3.145875E+03	1.211332E-02	2.290681E-04
3.155830E+03	1.230540E-02	2.315354E-04
3.165786E+03	1.250179E-02	2.340436E-04
3.175741E+03	1.270205E-02	2.365835E-04
3.185696E+03	1.290693E-02	2.391673E-04
3.195652E+03	1.311598E-02	2.417855E-04
3.205607E+03	1.332944E-02	2.444411E-04
3.215562E+03	1.354708E-02	2.471284E-04
3.225517E+03	1.376910E-02	2.498501E-04
3.235473E+03	1.399548E-02	2.526039E-04
3.245428E+03	1.422616E-02	2.553875E-04
3.255383E+03	1.446079E-02	2.581935E-04
3.265339E+03	1.469951E-02	2.610228E-04
3.275294E+03	1.494215E-02	2.638711E-04
3.285249E+03	1.518826E-02	2.667294E-04
3.295205E+03	1.543781E-02	2.695959E-04
3.305160E+03	1.569024E-02	2.724596E-04
3.315115E+03	1.594536E-02	2.753165E-04
3.325070E+03	1.620241E-02	2.781525E-04
3.335026E+03	1.646077E-02	2.809561E-04
3.344981E+03	1.671964E-02	2.837137E-04
3.354936E+03	1.697810E-02	2.864091E-04
3.364892E+03	1.723503E-02	2.890235E-04
3.374847E+03	1.748883E-02	2.915310E-04
3.384802E+03	1.773823E-02	2.939109E-04
3.394758E+03	1.798092E-02	2.961267E-04
3.404713E+03	1.821540E-02	2.981559E-04
3.414668E+03	1.843894E-02	2.999560E-04
3.424623E+03	1.864909E-02	3.014911E-04
3.434579E+03	1.884326E-02	3.027233E-04
3.444534E+03	1.901846E-02	3.036099E-04
3.454489E+03	1.917218E-02	3.041168E-04
3.464445E+03	1.930142E-02	3.042031E-04
3.474400E+03	1.940325E-02	3.038306E-04
3.484355E+03	1.947521E-02	3.029693E-04
3.494311E+03	1.951484E-02	3.015905E-04
3.504266E+03	1.952057E-02	2.996800E-04
3.514221E+03	1.949026E-02	2.972157E-04
3.524176E+03	1.942333E-02	2.942001E-04
3.534132E+03	1.931932E-02	2.906375E-04
3.544087E+03	1.917870E-02	2.865466E-04
3.554042E+03	1.900220E-02	2.819498E-04
3.563998E+03	1.879162E-02	2.768848E-04
3.573953E+03	1.854997E-02	2.714064E-04
3.583908E+03	1.828023E-02	2.655678E-04
3.593864E+03	1.798708E-02	2.594452E-04
3.603819E+03	1.767545E-02	2.531170E-04
3.613774E+03	1.735066E-02	2.466646E-04
3.623729E+03	1.701863E-02	2.401759E-04
3.633685E+03	1.668576E-02	2.337429E-04
3.643640E+03	1.635826E-02	2.274526E-04
3.653595E+03	1.604301E-02	2.213983E-04
3.663551E+03	1.574630E-02	2.156626E-04
3.673506E+03	1.547490E-02	2.103318E-04
3.683461E+03	1.523529E-02	2.054856E-04
3.693417E+03	1.503422E-02	2.012045E-04
3.703372E+03	1.487794E-02	1.975597E-04
3.713327E+03	1.477283E-02	1.946211E-04
3.723282E+03	1.472501E-02	1.924529E-04
3.733238E+03	1.474065E-02	1.911175E-04
3.743193E+03	1.482570E-02	1.906713E-04
3.753148E+03	1.498616E-02	1.911694E-04
3.763104E+03	1.522791E-02	1.926627E-04
3.773059E+03	1.555686E-02	1.952000E-04
3.783014E+03	1.597911E-02	1.988303E-04
3.792970E+03	1.649987E-02	2.035883E-04
3.802925E+03	1.712452E-02	2.095098E-04
3.812880E+03	1.785747E-02	2.166158E-04
3.822835E+03	1.870139E-02	2.249051E-04
3.832791E+03	1.965742E-02	2.343568E-04
3.842746E+03	2.072369E-02	2.449144E-04
3.852701E+03	2.189465E-02	2.564789E-04
3.862657E+03	2.316034E-02	2.689029E-04
3.872612E+03	2.450491E-02	2.819753E-04
3.882567E+03	2.590699E-02	2.954288E-04
3.892523E+03	2.733900E-02	3.089348E-04
3.902478E+03	2.876758E-02	3.221114E-04
3.912433E+03	3.015439E-02	3.345357E-04
3.922388E+03	3.145814E-02	3.457679E-04
3.932344E+03	3.263850E-02	3.553958E-04
3.942299E+03	3.365680E-02	3.630414E-04
3.952254E+03	3.447881E-02	3.683901E-04
3.962210E+03	3.508058E-02	3.712494E-04
3.972165E+03	3.544646E-02	3.715238E-04
3.982120E+03	3.557201E-02	3.692399E-04
3.992076E+03	3.546608E-02	3.645623E-04
4.002031E+03	3.514705E-02	3.577488E-04
4.011986E+03	3.464236E-02	3.491404E-04
4.021941E+03	3.398684E-02	3.391406E-04
4.031897E+03	3.321916E-02	3.281765E-04
4.041852E+03	3.237776E-02	3.166573E-04
4.051807E+03	3.149935E-02	3.049599E-04
4.061763E+03	3.061733E-02	2.934149E-04
4.071718E+03	2.976050E-02	2.822959E-04
4.081673E+03	2.895071E-02	2.718001E-04
4.091629E+03	2.820517E-02	2.620733E-04
4.101584E+03	2.753686E-02	2.532154E-04
4.111539E+03	2.695180E-02	2.452588E-04
4.121494E+03	2.645330E-02	2.382088E-04
4.131450E+03	2.604172E-02	2.320439E-04
4.141405E+03	2.571427E-02	2.267147E-04
4.151360E+03	2.546634E-02	2.221572E-04
4.153351E+03	2.665435E-02	2.320267E-04
4.157334E+03	2.673648E-02	2.317523E-04
4.161316E+03	2.682713E-02	2.315484E-04
4.165298E+03	2.692188E-02	2.313761E-04
4.169280E+03	2.701849E-02	2.312159E-04
4.173262E+03	2.711256E-02	2.310302E-04
4.177244E+03	2.720299E-02	2.308099E-04
4.181226E+03	2.729199E-02	2.305743E-04
4.185208E+03	2.737186E-02	2.302588E-04
4.189191E+03	2.744372E-02	2.298738E-04
4.193173E+03	2.750977E-02	2.294388E-04
4.197155E+03	2.756784E-02	2.289362E-04
4.201137E+03	2.761905E-02	2.283763E-04
4.205119E+03	2.767323E-02	2.278410E-04
4.209101E+03	2.772166E-02	2.272584E-04
4.213083E+03	2.775777E-02	2.265755E-04
4.217065E+03	2.778924E-02	2.258563E-04
4.221047E+03	2.782154E-02	2.251454E-04
4.225030E+03	2.784375E-02	2.243549E-04
4.229012E+03	2.786788E-02	2.235824E-04
4.232994E+03	2.790697E-02	2.229317E-04
4.236976E+03	2.795773E-02	2.223753E-04
4.240958E+03	2.802012E-02	2.219117E-04
4.244940E+03	2.811146E-02	2.216765E-04
4.248922E+03	2.823060E-02	2.216576E-04
4.252904E+03	2.838395E-02	2.219025E-04
4.256887E+03	2.856491E-02	2.223566E-04
4.260869E+03	2.875288E-02	2.228573E-04
4.264851E+03	2.894889E-02	2.234123E-04
4.268833E+03	2.915617E-02	2.240456E-04
4.272815E+03	2.934340E-02	2.245167E-04
4.276797E+03	2.955264E-02	2.251481E-04
4.280779E+03	2.971388E-02	2.254067E-04
4.284761E+03	2.981650E-02	2.252172E-04
4.288744E+03	2.988322E-02	2.247563E-04
4.292726E+03	2.991413E-02	2.240283E-04
4.296708E+03	2.987611E-02	2.227896E-04
4.300690E+03	2.976294E-02	2.210008E-04
4.304672E+03	2.960372E-02	2.188842E-04
4.308654E+03	2.937401E-02	2.162641E-04
4.312636E+03	2.909113E-02	2.132741E-04
4.316618E+03	2.874561E-02	2.098501E-04
4.320601E+03	2.832384E-02	2.058986E-04
4.324583E+03	2.783668E-02	2.015053E-04
4.328565E+03	2.729500E-02	1.967540E-04
4.332547E+03	2.671702E-02	1.917806E-04
4.336529E+03	2.609439E-02	1.865283E-04
4.340511E+03	2.540713E-02	1.808584E-04
4.344493E+03	2.472217E-02	1.752507E-04
4.348475E+03	2.401096E-02	1.695032E-04
4.352457E+03	2.327044E-02	1.635962E-04
4.356440E+03	2.253976E-02	1.578059E-04
4.360422E+03	2.183263E-02	1.522265E-04
4.364404E+03	2.115423E-02	1.468916E-04
4.368386E+03	2.050554E-02	1.418052E-04
4.372368E+03	1.989069E-02	1.369926E-04
4.376350E+03	1.932321E-02	1.325435E-04
4.380332E+03	1.880504E-02	1.284669E-04
4.384314E+03	1.835173E-02	1.248641E-04
4.388297E+03	1.796935E-02	1.217705E-04
4.392279E+03	1.767017E-02	1.192630E-04
4.396261E+03	1.744452E-02	1.172696E-04
4.400243E+03	1.729318E-02	1.157894E-04
4.404225E+03	1.721901E-02	1.148354E-04
4.408207E+03	1.721030E-02	1.143237E-04
4.412189E+03	1.726473E-02	1.142336E-04
4.416171E+03	1.737999E-02	1.145452E-04
4.420154E+03	1.754963E-02	1.152114E-04
4.424136E+03	1.776104E-02	1.161455E-04
4.428118E+03	1.802128E-02	1.173906E-04
4.432100E+03	1.832602E-02	1.189149E-04
4.436082E+03	1.866582E-02	1.206543E-04
4.440064E+03	1.905080E-02	1.226717E-04
4.444046E+03	1.948592E-02	1.249955E-04
4.448028E+03	1.994839E-02	1.274768E-04
4.452010E+03	2.043091E-02	1.300674E-04
4.455993E+03	2.094054E-02	1.328110E-04
4.459975E+03	2.148432E-02	1.357503E-04
4.463957E+03	2.206105E-02	1.388758E-04
4.467939E+03	2.266141E-02	1.421269E-04
4.471921E+03	2.327816E-02	1.454573E-04
4.475903E+03	2.391222E-02	1.488718E-04
4.479885E+03	2.455436E-02	1.523125E-04
4.483867E+03	2.520452E-02	1.557787E-04
4.487850E+03	2.587377E-02	1.593386E-04
4.491832E+03	2.655292E-02	1.629348E-04
4.495814E+03	2.721867E-02	1.664248E-04
4.499796E+03	2.788517E-02	1.698959E-04
4.503778E+03	2.855037E-02	1.733362E-04
4.507760E+03	2.919919E-02	1.766549E-04
4.511742E+03	2.983568E-02	1.798778E-04
4.515724E+03	3.044985E-02	1.829461E-04
4.519707E+03	3.105177E-02	1.859220E-04
4.523689E+03	3.164847E-02	1.888484E-04
4.527671E+03	3.221701E-02	1.915896E-04
4.531653E+03	3.275849E-02	1.941544E-04
4.535635E+03	3.328096E-02	1.965921E-04
4.539617E+03	3.377753E-02	1.988637E-04
4.543599E+03	3.424236E-02	2.009367E-04
4.547581E+03	3.466272E-02	2.027389E-04
4.551563E+03	3.504079E-02	2.042858E-04
4.555546E+03	3.539157E-02	2.056672E-04
4.559528E+03	3.571714E-02	2.068969E-04
4.563510E+03	3.600091E-02	2.078807E-04
4.567492E+03	3.624012E-02	2.086053E-04
4.571474E+03	3.644681E-02	2.091424E-04
4.575456E+03	3.662594E-02	2.095222E-04
4.579438E+03	3.676894E-02	2.096973E-04
4.583420E+03	3.688573E-02	2.097262E-04
4.587403E+03	3.696866E-02	2.095670E-04
4.591385E+03	3.703243E-02	2.093047E-04
4.595367E+03	3.704907E-02	2.087824E-04
4.599349E+03	3.705174E-02	2.081890E-04
4.603331E+03	3.704150E-02	2.075312E-04
4.607313E+03	3.701067E-02	2.067666E-04
4.611295E+03	3.695749E-02	2.058864E-04
4.615277E+03	3.687629E-02	2.048601E-04
4.619260E+03	3.677682E-02	2.037431E-04
4.623242E+03	3.665247E-02	2.024996E-04
4.627224E+03	3.649868E-02	2.011055E-04
4.631206E+03	3.632887E-02	1.996359E-04
4.635188E+03	3.614704E-02	1.981132E-04
4.639170E+03	3.594753E-02	1.965069E-04
4.643152E+03	3.572380E-02	1.947821E-04
4.647134E+03	3.547410E-02	1.929300E-04
4.651116E+03	3.520710E-02	1.909986E-04
4.655099E+03	3.492762E-02	1.890146E-04
4.659081E+03	3.463199E-02	1.869585E-04
4.663063E+03	3.429583E-02	1.846994E-04
4.667045E+03	3.391468E-02	1.822147E-04
4.671027E+03	3.348596E-02	1.794921E-04
4.675009E+03	3.301464E-02	1.765597E-04
4.678991E+03	3.250564E-02	1.734450E-04
4.682973E+03	3.195076E-02	1.701053E-04
4.686956E+03	3.134469E-02	1.665138E-04
4.690938E+03	3.068305E-02	1.626486E-04
4.694920E+03	2.995968E-02	1.584786E-04
4.698902E+03	2.919250E-02	1.541000E-04
4.702884E+03	2.838177E-02	1.495150E-04
4.706866E+03	2.752957E-02	1.447356E-04
4.710848E+03	2.664997E-02	1.398362E-04
4.714830E+03	2.576241E-02	1.349191E-04
4.718813E+03	2.488075E-02	1.300561E-04
4.722795E+03	2.400402E-02	1.252414E-04
4.726777E+03	2.312947E-02	1.204598E-04
4.730759E+03	2.228176E-02	1.158389E-04
4.734741E+03	2.146986E-02	1.114240E-04
4.738723E+03	2.068631E-02	1.071746E-04
4.742705E+03	1.994097E-02	1.031407E-04
4.746687E+03	1.924542E-02	9.938040E-05
4.750669E+03	1.859761E-02	9.588145E-05
4.754652E+03	1.799728E-02	9.264095E-05
4.758634E+03	1.745593E-02	8.971642E-05
4.762616E+03	1.695885E-02	8.703056E-05
4.766598E+03	1.652739E-02	8.469150E-05
4.770580E+03	1.615584E-02	8.266822E-05
4.774562E+03	1.583404E-02	8.090721E-05
4.778544E+03	1.555190E-02	7.935568E-05
4.782526E+03	1.531100E-02	7.802070E-05
4.786509E+03	1.511025E-02	7.689568E-05
4.790491E+03	1.494324E-02	7.594700E-05
4.794473E+03	1.479822E-02	7.511431E-05
4.798455E+03	1.468665E-02	7.445512E-05
4.802437E+03	1.458620E-02	7.385565E-05
4.806419E+03	1.449416E-02	7.330191E-05
4.810401E+03	1.440787E-02	7.278012E-05
4.814383E+03	1.432464E-02	7.227660E-05
4.818366E+03	1.424710E-02	7.180449E-05
4.822348E+03	1.417348E-02	7.135461E-05
4.826330E+03	1.410288E-02	7.092238E-05
4.830312E+03	1.404845E-02	7.057366E-05
4.834294E+03	1.400486E-02	7.028145E-05
4.838276E+03	1.397208E-02	7.004529E-05
4.842258E+03	1.395704E-02	6.989971E-05
4.846240E+03	1.396927E-02	6.989205E-05
4.850223E+03	1.400865E-02	7.002124E-05
4.854205E+03	1.407593E-02	7.029063E-05
4.858187E+03	1.418663E-02	7.077722E-05
4.862169E+03	1.433797E-02	7.146648E-05
4.866151E+03	1.454624E-02	7.243901E-05
4.870133E+03	1.480517E-02	7.366277E-05
4.874115E+03	1.512059E-02	7.516621E-05
4.878097E+03	1.548714E-02	7.692184E-05
4.882079E+03	1.589429E-02	7.887683E-05
4.886062E+03	1.632985E-02	8.097026E-05
4.890044E+03	1.678342E-02	8.315028E-05
4.894026E+03	1.723866E-02	8.533576E-05
4.898008E+03	1.768614E-02	8.748012E-05
4.901990E+03	1.812506E-02	8.957946E-05
4.905972E+03	1.853238E-02	9.152016E-05
4.909954E+03	1.891251E-02	9.332427E-05
4.913936E+03	1.925019E-02	9.491697E-05
4.917919E+03	1.953793E-02	9.626174E-05
4.921901E+03	1.976911E-02	9.732655E-05
4.925883E+03	1.993627E-02	9.807534E-05
4.929865E+03	2.003879E-02	9.850570E-05
4.933847E+03	2.007265E-02	9.859856E-05
4.937829E+03	2.003469E-02	9.833913E-05
4.941811E+03	1.993614E-02	9.778320E-05
4.945793E+03	1.977887E-02	9.694061E-05
4.949776E+03	1.956814E-02	9.583761E-05
4.953758E+03	1.931254E-02	9.451680E-05
4.957740E+03	1.901726E-02	9.300394E-05
4.961722E+03	1.868493E-02	9.131230E-05
4.965704E+03	1.833414E-02	8.953304E-05
4.969686E+03	1.796746E-02	8.767881E-05
4.973668E+03	1.758913E-02	8.577036E-05
4.977650E+03	1.721340E-02	8.387731E-05
4.981632E+03	1.684613E-02	8.202806E-05
4.985615E+03	1.649230E-02	8.024676E-05
4.989597E+03	1.616189E-02	7.858175E-05
4.993579E+03	1.586569E-02	7.708515E-05
4.997561E+03	1.559607E-02	7.571958E-05
5.001543E+03	1.537298E-02	7.458149E-05
5.005525E+03	1.520294E-02	7.370198E-05
5.009507E+03	1.508498E-02	7.307575E-05
5.013489E+03	1.501895E-02	7.270154E-05
5.017472E+03	1.500971E-02	7.260224E-05
5.021454E+03	1.505463E-02	7.276445E-05
5.025436E+03	1.514610E-02	7.315085E-05
5.029418E+03	1.528068E-02	7.374434E-05
5.033400E+03	1.544670E-02	7.448802E-05
5.037382E+03	1.563827E-02	7.535324E-05
5.041364E+03	1.584955E-02	7.631151E-05
5.045346E+03	1.606894E-02	7.730670E-05
5.049329E+03	1.628072E-02	7.826325E-05
5.053311E+03	1.648326E-02	7.917331E-05
5.057293E+03	1.668320E-02	8.006878E-05
5.061275E+03	1.687888E-02	8.094177E-05
5.065257E+03	1.707033E-02	8.179238E-05
5.069239E+03	1.724685E-02	8.256944E-05
5.073221E+03	1.741507E-02	8.330479E-05
5.077203E+03	1.756677E-02	8.395924E-05
5.081185E+03	1.770200E-02	8.453318E-05
5.085168E+03	1.781916E-02	8.501911E-05
5.089150E+03	1.791827E-02	8.541742E-05
5.093132E+03	1.799938E-02	8.572844E-05
5.097114E+03	1.807070E-02	8.599158E-05
5.101096E+03	1.814045E-02	8.624590E-05
5.105078E+03	1.819717E-02	8.643705E-05
5.109060E+03	1.825315E-02	8.662350E-05
5.113042E+03	1.830267E-02	8.677809E-05
5.117025E+03	1.835309E-02	8.693580E-05
5.121007E+03	1.840032E-02	8.707725E-05
5.124989E+03	1.844520E-02	8.720639E-05
5.128971E+03	1.849342E-02	8.735018E-05
5.132953E+03	1.854905E-02	8.752777E-05
5.136935E+03	1.860964E-02	8.772747E-05
5.140917E+03	1.868413E-02	8.799133E-05
5.144899E+03	1.877331E-02	8.832285E-05
5.148882E+03	1.888285E-02	8.874844E-05
5.152864E+03	1.901108E-02	8.926004E-05
5.156846E+03	1.916205E-02	8.987628E-05
5.160828E+03	1.933408E-02	9.058902E-05
5.164810E+03	1.952553E-02	9.139022E-05
5.168792E+03	1.974043E-02	9.229840E-05
5.172774E+03	1.997224E-02	9.328274E-05
5.176756E+03	2.022583E-02	9.436555E-05
5.180738E+03	2.049466E-02	9.551615E-05
5.184721E+03	2.077630E-02	9.672290E-05
5.188703E+03	2.107315E-02	9.799678E-05
5.192685E+03	2.137146E-02	9.927362E-05
5.196667E+03	2.167202E-02	1.005571E-04
5.200649E+03	2.199504E-02	1.019408E-04
5.204631E+03	2.232271E-02	1.033419E-04
5.208613E+03	2.264696E-02	1.047231E-04
5.212595E+03	2.296539E-02	1.060732E-04
5.216578E+03	2.328283E-02	1.074147E-04
5.220560E+03	2.359525E-02	1.087289E-04
5.224542E+03	2.389864E-02	1.099976E-04
5.228524E+03	2.419059E-02	1.112097E-04
5.232506E+03	2.447272E-02	1.123730E-04
5.236488E+03	2.474343E-02	1.134802E-04
5.240470E+03	2.500195E-02	1.145280E-04
5.244452E+03	2.524586E-02	1.155055E-04
5.248435E+03	2.547599E-02	1.164169E-04
5.252417E+03	2.569074E-02	1.172550E-04
5.256399E+03	2.589335E-02	1.180348E-04
5.260381E+03	2.608703E-02	1.187714E-04
5.264363E+03	2.626057E-02	1.194138E-04
5.268345E+03	2.641077E-02	1.199479E-04
5.272327E+03	2.654488E-02	1.204069E-04
5.276309E+03	2.665569E-02	1.207586E-04
5.280291E+03	2.674723E-02	1.210217E-04
5.284274E+03	2.682033E-02	1.212002E-04
5.288256E+03	2.687661E-02	1.213017E-04
5.292238E+03	2.691287E-02	1.213123E-04
5.296220E+03	2.692994E-02	1.212360E-04
5.300202E+03	2.693343E-02	1.210985E-04
5.304184E+03	2.692096E-02	1.208892E-04
5.308166E+03	2.688694E-02	1.205836E-04
5.312148E+03	2.684337E-02	1.202357E-04
5.316131E+03	2.679187E-02	1.198530E-04
5.320113E+03	2.672924E-02	1.194214E-04
5.324095E+03	2.666107E-02	1.189661E-04
5.328077E+03	2.658977E-02	1.184979E-04
5.332059E+03	2.650974E-02	1.179920E-04
5.336041E+03	2.641940E-02	1.174417E-04
5.340023E+03	2.632195E-02	1.168613E-04
5.344005E+03	2.621739E-02	1.162510E-04
5.347988E+03	2.610890E-02	1.156251E-04
5.351970E+03	2.599808E-02	1.149908E-04
5.355952E+03	2.588572E-02	1.143515E-04
5.359934E+03	2.577023E-02	1.137004E-04
5.363916E+03	2.564923E-02	1.130271E-04
5.367898E+03	2.552748E-02	1.123527E-04
5.371880E+03	2.540578E-02	1.116808E-04
5.375862E+03	2.528650E-02	1.110217E-04
5.379844E+03	2.517044E-02	1.103790E-04
5.383827E+03	2.505045E-02	1.097214E-04
5.387809E+03	2.493207E-02	1.090732E-04
5.391791E+03	2.481055E-02	1.084137E-04
5.395773E+03	2.469777E-02	1.077948E-04
5.399755E+03	2.459056E-02	1.072026E-04
5.403737E+03	2.447860E-02	1.065921E-04
5.407719E+03	2.437219E-02	1.060083E-04
5.411701E+03	2.426895E-02	1.054406E-04
5.415684E+03	2.417362E-02	1.049098E-04
5.419666E+03	2.408143E-02	1.043950E-04
5.423648E+03	2.399081E-02	1.038894E-04
5.427630E+03	2.390728E-02	1.034169E-04
5.431612E+03	2.382924E-02	1.029706E-04
5.435594E+03	2.375116E-02	1.025266E-04
5.439576E+03	2.367777E-02	1.021052E-04
5.443558E+03	2.361458E-02	1.017302E-04
5.447541E+03	2.355842E-02	1.013878E-04
5.451523E+03	2.349826E-02	1.010303E-04
5.455505E+03	2.343961E-02	1.006815E-04
5.459487E+03	2.338639E-02	1.003581E-04
5.463469E+03	2.333074E-02	1.000262E-04
5.467451E+03	2.327424E-02	9.969244E-05
5.471433E+03	2.322003E-02	9.937035E-05
5.475415E+03	2.316497E-02	9.904633E-05
5.479398E+03	2.311141E-02	9.873038E-05
5.483380E+03	2.305465E-02	9.840233E-05
5.487362E+03	2.299313E-02	9.805546E-05
5.491344E+03	2.292528E-02	9.768311E-05
5.495326E+03	2.284956E-02	9.727867E-05
5.499308E+03	2.276205E-02	9.682551E-05
5.503290E+03	2.266200E-02	9.632047E-05
5.507272E+03	2.255647E-02	9.579361E-05
5.511254E+03	2.244547E-02	9.524493E-05
5.515237E+03	2.232198E-02	9.464467E-05
5.519219E+03	2.219461E-02	9.402936E-05
5.523201E+03	2.205635E-02	9.336927E-05
5.527183E+03	2.190409E-02	9.265132E-05
5.531165E+03	2.174020E-02	9.188557E-05
5.535147E+03	2.156705E-02	9.108206E-05
5.539129E+03	2.138386E-02	9.023759E-05
5.543111E+03	2.118754E-02	8.933914E-05
5.547094E+03	2.098514E-02	8.841642E-05
5.551076E+03	2.077587E-02	8.746621E-05
5.555058E+03	2.055820E-02	8.648203E-05
5.559040E+03	2.033527E-02	8.547708E-05
5.563022E+03	2.010474E-02	8.444159E-05
5.567004E+03	1.987362E-02	8.340500E-05
5.570986E+03	1.964503E-02	8.238031E-05
5.574968E+03	1.941818E-02	8.136419E-05
5.578951E+03	1.919153E-02	8.035009E-05
