#wls	flux	fluxerr
1.592848E+03	1.980419E-03	8.812592E-05
1.632669E+03	2.033512E-03	8.994390E-05
1.672491E+03	2.090669E-03	9.189914E-05
1.712312E+03	2.152032E-03	9.399327E-05
1.752133E+03	2.217936E-03	9.623588E-05
1.791954E+03	2.288907E-03	9.864419E-05
1.831775E+03	2.364698E-03	1.012016E-04
1.871597E+03	2.446027E-03	1.039326E-04
1.911418E+03	2.533039E-03	1.068362E-04
1.951239E+03	2.625883E-03	1.099112E-04
1.991060E+03	2.724533E-03	1.131489E-04
2.030881E+03	2.829165E-03	1.165483E-04
2.070703E+03	2.939596E-03	1.200936E-04
2.110524E+03	3.055300E-03	1.237547E-04
2.150345E+03	3.176337E-03	1.275257E-04
2.190166E+03	3.302065E-03	1.313723E-04
2.229987E+03	3.432066E-03	1.352700E-04
2.269809E+03	3.566339E-03	1.392104E-04
2.309630E+03	3.705288E-03	1.432012E-04
2.349451E+03	3.849917E-03	1.472715E-04
2.389272E+03	4.001460E-03	1.514579E-04
2.429093E+03	4.161221E-03	1.557966E-04
2.468915E+03	4.331127E-03	1.603450E-04
2.508736E+03	4.512669E-03	1.651404E-04
2.548557E+03	4.707834E-03	1.702351E-04
2.588378E+03	4.918226E-03	1.756636E-04
2.628199E+03	5.145845E-03	1.814706E-04
2.668021E+03	5.392571E-03	1.876925E-04
2.707842E+03	5.660589E-03	1.943716E-04
2.747663E+03	5.952450E-03	2.015577E-04
2.787484E+03	6.270963E-03	2.093029E-04
2.827305E+03	6.619468E-03	2.176704E-04
2.867127E+03	7.002322E-03	2.267481E-04
2.906948E+03	7.424280E-03	2.366266E-04
2.946769E+03	7.891997E-03	2.474444E-04
2.986590E+03	8.412693E-03	2.593419E-04
2.996546E+03	8.552402E-03	2.625123E-04
3.006501E+03	8.696016E-03	2.657606E-04
3.016456E+03	8.843673E-03	2.690890E-04
3.026411E+03	8.995920E-03	2.725124E-04
3.036367E+03	9.152718E-03	2.760274E-04
3.046322E+03	9.314225E-03	2.796369E-04
3.056277E+03	9.480819E-03	2.833499E-04
3.066233E+03	9.652469E-03	2.871632E-04
3.076188E+03	9.829363E-03	2.910800E-04
3.086143E+03	1.001210E-02	2.951158E-04
3.096099E+03	1.020048E-02	2.992615E-04
3.106054E+03	1.039490E-02	3.035268E-04
3.116009E+03	1.059536E-02	3.079087E-04
3.125964E+03	1.080273E-02	3.124294E-04
3.135920E+03	1.101660E-02	3.170737E-04
3.145875E+03	1.123739E-02	3.218515E-04
3.155830E+03	1.146557E-02	3.267720E-04
3.165786E+03	1.170137E-02	3.318388E-04
3.175741E+03	1.194459E-02	3.370428E-04
3.185696E+03	1.219613E-02	3.424056E-04
3.195652E+03	1.245578E-02	3.479173E-04
3.205607E+03	1.272398E-02	3.535868E-04
3.215562E+03	1.300074E-02	3.594099E-04
3.225517E+03	1.328646E-02	3.653940E-04
3.235473E+03	1.358134E-02	3.715400E-04
3.245428E+03	1.388554E-02	3.778478E-04
3.255383E+03	1.419891E-02	3.843095E-04
3.265339E+03	1.452179E-02	3.909294E-04
3.275294E+03	1.485418E-02	3.977031E-04
3.285249E+03	1.519578E-02	4.046183E-04
3.295205E+03	1.554672E-02	4.116735E-04
3.305160E+03	1.590650E-02	4.188513E-04
3.315115E+03	1.627502E-02	4.261448E-04
3.325070E+03	1.665152E-02	4.335302E-04
3.335026E+03	1.703537E-02	4.409864E-04
3.344981E+03	1.742568E-02	4.484878E-04
3.354936E+03	1.782140E-02	4.560035E-04
3.364892E+03	1.822118E-02	4.634966E-04
3.374847E+03	1.862311E-02	4.709167E-04
3.384802E+03	1.902549E-02	4.782198E-04
3.394758E+03	1.942539E-02	4.853317E-04
3.404713E+03	1.982054E-02	4.921972E-04
3.414668E+03	2.020722E-02	4.987262E-04
3.424623E+03	2.058191E-02	5.048359E-04
3.434579E+03	2.094072E-02	5.104366E-04
3.444534E+03	2.127913E-02	5.154261E-04
3.454489E+03	2.159317E-02	5.197178E-04
3.464445E+03	2.187803E-02	5.232076E-04
3.474400E+03	2.212877E-02	5.257916E-04
3.484355E+03	2.234118E-02	5.273864E-04
3.494311E+03	2.251081E-02	5.279049E-04
3.504266E+03	2.263390E-02	5.272796E-04
3.514221E+03	2.270637E-02	5.254380E-04
3.524176E+03	2.272562E-02	5.223435E-04
3.534132E+03	2.268889E-02	5.179589E-04
3.544087E+03	2.259498E-02	5.122827E-04
3.554042E+03	2.244275E-02	5.053169E-04
3.563998E+03	2.223232E-02	4.970916E-04
3.573953E+03	2.196632E-02	4.876928E-04
3.583908E+03	2.164785E-02	4.772159E-04
3.593864E+03	2.128298E-02	4.658186E-04
3.603819E+03	2.087960E-02	4.536949E-04
3.613774E+03	2.044602E-02	4.410425E-04
3.623729E+03	1.999099E-02	4.280640E-04
3.633685E+03	1.952458E-02	4.149837E-04
3.643640E+03	1.905608E-02	4.020034E-04
3.653595E+03	1.859511E-02	3.893260E-04
3.663551E+03	1.815118E-02	3.771460E-04
3.673506E+03	1.773392E-02	3.656540E-04
3.683461E+03	1.735201E-02	3.550155E-04
3.693417E+03	1.701437E-02	3.453946E-04
3.703372E+03	1.672890E-02	3.369299E-04
3.713327E+03	1.650307E-02	3.297460E-04
3.723282E+03	1.634348E-02	3.239450E-04
3.733238E+03	1.625653E-02	3.196217E-04
3.743193E+03	1.624817E-02	3.168570E-04
3.753148E+03	1.632368E-02	3.157157E-04
3.763104E+03	1.648831E-02	3.162586E-04
3.773059E+03	1.674736E-02	3.185435E-04
3.783014E+03	1.710533E-02	3.226104E-04
3.792970E+03	1.756588E-02	3.284799E-04
3.802925E+03	1.813293E-02	3.361760E-04
3.812880E+03	1.880816E-02	3.456783E-04
3.822835E+03	1.959133E-02	3.569307E-04
3.832791E+03	2.048071E-02	3.698505E-04
3.842746E+03	2.147079E-02	3.842881E-04
3.852701E+03	2.255228E-02	4.000310E-04
3.862657E+03	2.371184E-02	4.168015E-04
3.872612E+03	2.493029E-02	4.342285E-04
3.882567E+03	2.618374E-02	4.518724E-04
3.892523E+03	2.744366E-02	4.692292E-04
3.902478E+03	2.867760E-02	4.857477E-04
3.912433E+03	2.985058E-02	5.008543E-04
3.922388E+03	3.092723E-02	5.139917E-04
3.932344E+03	3.187502E-02	5.246716E-04
3.942299E+03	3.266511E-02	5.324869E-04
3.952254E+03	3.327445E-02	5.371421E-04
3.962210E+03	3.368978E-02	5.385124E-04
3.972165E+03	3.390569E-02	5.366056E-04
3.982120E+03	3.392617E-02	5.315798E-04
3.992076E+03	3.376409E-02	5.237281E-04
4.002031E+03	3.343927E-02	5.134416E-04
4.011986E+03	3.297761E-02	5.011912E-04
4.021941E+03	3.240738E-02	4.874668E-04
4.031897E+03	3.175910E-02	4.727738E-04
4.041852E+03	3.106250E-02	4.575866E-04
4.051807E+03	3.034452E-02	4.423202E-04
4.061763E+03	2.962948E-02	4.273352E-04
4.071718E+03	2.893849E-02	4.129313E-04
4.081673E+03	2.828681E-02	3.993125E-04
4.091629E+03	2.768640E-02	3.866275E-04
4.101584E+03	2.714615E-02	3.749757E-04
4.111539E+03	2.666932E-02	3.643740E-04
4.121494E+03	2.625710E-02	3.548101E-04
4.131450E+03	2.590828E-02	3.462385E-04
4.141405E+03	2.561867E-02	3.385761E-04
4.151360E+03	2.538262E-02	3.317228E-04
4.161316E+03	2.519350E-02	3.255699E-04
4.171271E+03	2.504335E-02	3.199957E-04
4.181226E+03	2.492380E-02	3.148783E-04
4.191182E+03	2.482663E-02	3.101027E-04
4.201137E+03	2.474399E-02	3.055629E-04
4.211092E+03	2.466825E-02	3.011610E-04
4.221047E+03	2.459259E-02	2.968126E-04
4.231003E+03	2.451114E-02	2.924485E-04
4.240958E+03	2.441857E-02	2.880094E-04
4.250913E+03	2.431013E-02	2.834457E-04
4.260869E+03	2.418321E-02	2.787341E-04
4.270824E+03	2.403622E-02	2.738652E-04
4.280779E+03	2.386877E-02	2.688431E-04
4.290735E+03	2.368155E-02	2.636840E-04
4.300690E+03	2.347626E-02	2.584150E-04
4.310645E+03	2.325574E-02	2.530740E-04
4.320601E+03	2.302117E-02	2.476798E-04
4.330556E+03	2.277529E-02	2.422659E-04
4.340511E+03	2.251934E-02	2.368480E-04
4.350466E+03	2.224918E-02	2.313852E-04
4.360422E+03	2.196387E-02	2.258716E-04
4.370377E+03	2.166923E-02	2.203698E-04
4.380332E+03	2.137549E-02	2.149845E-04
4.390288E+03	2.110553E-02	2.099413E-04
4.400243E+03	2.088651E-02	2.054981E-04
4.410198E+03	2.073884E-02	2.018359E-04
4.420154E+03	2.068018E-02	1.991012E-04
4.430109E+03	2.072454E-02	1.973994E-04
4.440064E+03	2.087912E-02	1.967668E-04
4.450019E+03	2.114736E-02	1.972035E-04
4.459975E+03	2.152849E-02	1.986704E-04
4.469930E+03	2.201552E-02	2.010731E-04
4.479885E+03	2.259717E-02	2.042829E-04
4.489841E+03	2.325833E-02	2.081418E-04
4.499796E+03	2.397859E-02	2.124515E-04
4.509751E+03	2.473407E-02	2.169915E-04
4.519707E+03	2.549870E-02	2.215310E-04
4.529662E+03	2.624404E-02	2.258283E-04
4.539617E+03	2.694148E-02	2.296492E-04
4.549572E+03	2.756367E-02	2.327795E-04
4.559528E+03	2.808516E-02	2.350284E-04
4.569483E+03	2.848367E-02	2.362384E-04
4.579438E+03	2.874222E-02	2.363006E-04
4.589394E+03	2.884715E-02	2.351363E-04
4.599349E+03	2.879109E-02	2.327199E-04
4.609304E+03	2.857272E-02	2.290740E-04
4.619260E+03	2.819639E-02	2.242645E-04
4.629215E+03	2.767108E-02	2.183904E-04
4.639170E+03	2.701419E-02	2.116125E-04
4.649125E+03	2.624682E-02	2.041144E-04
4.659081E+03	2.539461E-02	1.961080E-04
4.669036E+03	2.448604E-02	1.878200E-04
4.678991E+03	2.354914E-02	1.794669E-04
4.688947E+03	2.261187E-02	1.712584E-04
4.698902E+03	2.169739E-02	1.633624E-04
4.708857E+03	2.081928E-02	1.558699E-04
4.718813E+03	1.998674E-02	1.488363E-04
4.728768E+03	1.920050E-02	1.422533E-04
4.738723E+03	1.844548E-02	1.359970E-04
4.748678E+03	1.770540E-02	1.299379E-04
4.758634E+03	1.696923E-02	1.239873E-04
4.768589E+03	1.623069E-02	1.180934E-04
4.778544E+03	1.551840E-02	1.124582E-04
4.788500E+03	1.487068E-02	1.073508E-04
4.798455E+03	1.431061E-02	1.029274E-04
4.808410E+03	1.385295E-02	9.928312E-05
4.818366E+03	1.350601E-02	9.646627E-05
4.828321E+03	1.326513E-02	9.443292E-05
4.838276E+03	1.312112E-02	9.310816E-05
4.848231E+03	1.306351E-02	9.240953E-05
4.858187E+03	1.307919E-02	9.223731E-05
4.868142E+03	1.315347E-02	9.248205E-05
4.878097E+03	1.327130E-02	9.303325E-05
4.888053E+03	1.341668E-02	9.377513E-05
4.898008E+03	1.357429E-02	9.459814E-05
4.907963E+03	1.373042E-02	9.540504E-05
4.917919E+03	1.387433E-02	9.612037E-05
4.927874E+03	1.399901E-02	9.669533E-05
4.937829E+03	1.410073E-02	9.710438E-05
4.947784E+03	1.417974E-02	9.734955E-05
4.957740E+03	1.423936E-02	9.745398E-05
4.967695E+03	1.428541E-02	9.745784E-05
4.977650E+03	1.432475E-02	9.740771E-05
4.987606E+03	1.436564E-02	9.735926E-05
4.997561E+03	1.441562E-02	9.736260E-05
5.007516E+03	1.448066E-02	9.745671E-05
5.017472E+03	1.456583E-02	9.767374E-05
5.027427E+03	1.467458E-02	9.803479E-05
5.037382E+03	1.480803E-02	9.854497E-05
5.047337E+03	1.496596E-02	9.920020E-05
5.057293E+03	1.514730E-02	9.999114E-05
5.067248E+03	1.534984E-02	1.009007E-04
5.077203E+03	1.557109E-02	1.019104E-04
5.087159E+03	1.580883E-02	1.030036E-04
5.097114E+03	1.606077E-02	1.041638E-04
5.107069E+03	1.632573E-02	1.053815E-04
5.117025E+03	1.660224E-02	1.066461E-04
5.126980E+03	1.689049E-02	1.079573E-04
5.136935E+03	1.719061E-02	1.093147E-04
5.146890E+03	1.750314E-02	1.107208E-04
5.156846E+03	1.782886E-02	1.121792E-04
5.166801E+03	1.816806E-02	1.136906E-04
5.176756E+03	1.852051E-02	1.152526E-04
5.186712E+03	1.888473E-02	1.168553E-04
5.196667E+03	1.925858E-02	1.184848E-04
5.206622E+03	1.963753E-02	1.201133E-04
5.216578E+03	2.001623E-02	1.217088E-04
5.226533E+03	2.038776E-02	1.232308E-04
5.236488E+03	2.074423E-02	1.246341E-04
5.246443E+03	2.107718E-02	1.258715E-04
5.256399E+03	2.137847E-02	1.268993E-04
5.266354E+03	2.163991E-02	1.276746E-04
5.276309E+03	2.185546E-02	1.281687E-04
5.286265E+03	2.201978E-02	1.283579E-04
5.296220E+03	2.212905E-02	1.282279E-04
5.306175E+03	2.218116E-02	1.277749E-04
5.316131E+03	2.217531E-02	1.270030E-04
5.326086E+03	2.211117E-02	1.259186E-04
5.336041E+03	2.199082E-02	1.245417E-04
5.345996E+03	2.181582E-02	1.228886E-04
5.355952E+03	2.158896E-02	1.209823E-04
5.365907E+03	2.131450E-02	1.188527E-04
5.375862E+03	2.099711E-02	1.165314E-04
5.385818E+03	2.064166E-02	1.140499E-04
5.395773E+03	2.025579E-02	1.114539E-04
5.405728E+03	1.984809E-02	1.087929E-04
5.415684E+03	1.942835E-02	1.061220E-04
5.425639E+03	1.901229E-02	1.035272E-04
5.435594E+03	1.861707E-02	1.011010E-04
5.445549E+03	1.826269E-02	9.894958E-05
5.455505E+03	1.797370E-02	9.720003E-05
5.465460E+03	1.776867E-02	9.594626E-05
5.475415E+03	1.765008E-02	9.519575E-05
5.485371E+03	1.759699E-02	9.483071E-05
5.495326E+03	1.757846E-02	9.468062E-05
5.505281E+03	1.756199E-02	9.456744E-05
5.515237E+03	1.752291E-02	9.435552E-05
5.525192E+03	1.744272E-02	9.394236E-05
5.535147E+03	1.730939E-02	9.326013E-05
5.545102E+03	1.711670E-02	9.227188E-05
5.555058E+03	1.686428E-02	9.097218E-05
5.565013E+03	1.655636E-02	8.938022E-05
5.574968E+03	1.620235E-02	8.754332E-05
5.584924E+03	1.581361E-02	8.551964E-05
5.594879E+03	1.540330E-02	8.337755E-05
5.604834E+03	1.498656E-02	8.119657E-05
5.614790E+03	1.457794E-02	7.905367E-05
5.624745E+03	1.419091E-02	7.702055E-05
5.634700E+03	1.383782E-02	7.516330E-05
5.644655E+03	1.352966E-02	7.354090E-05
5.654611E+03	1.327522E-02	7.220084E-05
5.664566E+03	1.308084E-02	7.117715E-05
5.674521E+03	1.295124E-02	7.049530E-05
5.684477E+03	1.288954E-02	7.017177E-05
5.694432E+03	1.289657E-02	7.021039E-05
5.704387E+03	1.297130E-02	7.060451E-05
5.714343E+03	1.311196E-02	7.134330E-05
5.724298E+03	1.331440E-02	7.240241E-05
5.734253E+03	1.357274E-02	7.374786E-05
5.744209E+03	1.387997E-02	7.533930E-05
5.754164E+03	1.422739E-02	7.712701E-05
5.764119E+03	1.460435E-02	7.905050E-05
5.774074E+03	1.499880E-02	8.104206E-05
5.784030E+03	1.539784E-02	8.302964E-05
5.793985E+03	1.578708E-02	8.493368E-05
5.803940E+03	1.615262E-02	8.667814E-05
5.813896E+03	1.648166E-02	8.819393E-05
5.823851E+03	1.676306E-02	8.942183E-05
5.833806E+03	1.698828E-02	9.031775E-05
5.843762E+03	1.715169E-02	9.085415E-05
5.853717E+03	1.725158E-02	9.102537E-05
5.863672E+03	1.728857E-02	9.083867E-05
5.873627E+03	1.726621E-02	9.031719E-05
5.883583E+03	1.719015E-02	8.949535E-05
5.893538E+03	1.706733E-02	8.841423E-05
5.903493E+03	1.690536E-02	8.711810E-05
5.913449E+03	1.671152E-02	8.564905E-05
5.923404E+03	1.649321E-02	8.404937E-05
5.933359E+03	1.625700E-02	8.235644E-05
5.943315E+03	1.600857E-02	8.060265E-05
5.953270E+03	1.575247E-02	7.881405E-05
5.963225E+03	1.549262E-02	7.701304E-05
5.973180E+03	1.523120E-02	7.521309E-05
5.983136E+03	1.497069E-02	7.342883E-05
5.993091E+03	1.471116E-02	7.166277E-05
6.003046E+03	1.445245E-02	6.991639E-05
6.013002E+03	1.419384E-02	6.818836E-05
6.022957E+03	1.393301E-02	6.646996E-05
6.032912E+03	1.366760E-02	6.475234E-05
6.042868E+03	1.339527E-02	6.302720E-05
6.052823E+03	1.311510E-02	6.129294E-05
6.062778E+03	1.282664E-02	5.955016E-05
6.072733E+03	1.253233E-02	5.781265E-05
6.082689E+03	1.223697E-02	5.610465E-05
6.092644E+03	1.194755E-02	5.445948E-05
6.102599E+03	1.167317E-02	5.291923E-05
6.112555E+03	1.142524E-02	5.153545E-05
6.122510E+03	1.121552E-02	5.036022E-05
6.132465E+03	1.105488E-02	4.944097E-05
6.142421E+03	1.095209E-02	4.881553E-05
6.152376E+03	1.091347E-02	4.851108E-05
6.162331E+03	1.094078E-02	4.853477E-05
6.172286E+03	1.102346E-02	4.883855E-05
6.182242E+03	1.114590E-02	4.935315E-05
6.192197E+03	1.128377E-02	4.997155E-05
6.202152E+03	1.139048E-02	5.048835E-05
6.212108E+03	1.142620E-02	5.072712E-05
6.222063E+03	1.138587E-02	5.066394E-05
6.232018E+03	1.129061E-02	5.038997E-05
6.241974E+03	1.117287E-02	5.004712E-05
6.251929E+03	1.106524E-02	4.977948E-05
6.261884E+03	1.098663E-02	4.967169E-05
6.271839E+03	1.094725E-02	4.977095E-05
6.281795E+03	1.095163E-02	5.010024E-05
6.291750E+03	1.099756E-02	5.065266E-05
6.301705E+03	1.107867E-02	5.140246E-05
6.311661E+03	1.118677E-02	5.231508E-05
6.321616E+03	1.131162E-02	5.334571E-05
6.331571E+03	1.144231E-02	5.444491E-05
6.341527E+03	1.156886E-02	5.556602E-05
6.351482E+03	1.168102E-02	5.665927E-05
6.361437E+03	1.177053E-02	5.768234E-05
6.371392E+03	1.183186E-02	5.860309E-05
6.381348E+03	1.186163E-02	5.939817E-05
6.391303E+03	1.185920E-02	6.005695E-05
6.401258E+03	1.182734E-02	6.058573E-05
6.411214E+03	1.176933E-02	6.099383E-05
6.421169E+03	1.169043E-02	6.130156E-05
6.431124E+03	1.159748E-02	6.153891E-05
6.441080E+03	1.149692E-02	6.173536E-05
6.451035E+03	1.139562E-02	6.192446E-05
6.460990E+03	1.129964E-02	6.213721E-05
6.470945E+03	1.121409E-02	6.240106E-05
6.480901E+03	1.114304E-02	6.273903E-05
6.490856E+03	1.108978E-02	6.317113E-05
6.500811E+03	1.105672E-02	6.371297E-05
6.510767E+03	1.104504E-02	6.437399E-05
6.520722E+03	1.105488E-02	6.515784E-05
6.530677E+03	1.108511E-02	6.606058E-05
6.540633E+03	1.113420E-02	6.707564E-05
6.550588E+03	1.119978E-02	6.819086E-05
6.560543E+03	1.127849E-02	6.938755E-05
6.570498E+03	1.136679E-02	7.064483E-05
6.580454E+03	1.146070E-02	7.193828E-05
6.590409E+03	1.155544E-02	7.323723E-05
6.600364E+03	1.164658E-02	7.451221E-05
6.610320E+03	1.172956E-02	7.573198E-05
6.620275E+03	1.180040E-02	7.686794E-05
6.630230E+03	1.185492E-02	7.788942E-05
6.640186E+03	1.189014E-02	7.877281E-05
6.650141E+03	1.190376E-02	7.949878E-05
6.660096E+03	1.189429E-02	8.005303E-05
6.670051E+03	1.186105E-02	8.042667E-05
6.680007E+03	1.180411E-02	8.061612E-05
6.689962E+03	1.172470E-02	8.062614E-05
6.699917E+03	1.162449E-02	8.046485E-05
6.709873E+03	1.150581E-02	8.014569E-05
6.719828E+03	1.137095E-02	7.968251E-05
6.729783E+03	1.122347E-02	7.909864E-05
6.739739E+03	1.106597E-02	7.841133E-05
6.749694E+03	1.090203E-02	7.764554E-05
6.759649E+03	1.073451E-02	7.682165E-05
6.769604E+03	1.056650E-02	7.596213E-05
6.779560E+03	1.040085E-02	7.508823E-05
6.789515E+03	1.024021E-02	7.422017E-05
6.799470E+03	1.008726E-02	7.337858E-05
6.809426E+03	9.944173E-03	7.258080E-05
6.819381E+03	9.813318E-03	7.184550E-05
6.829336E+03	9.695976E-03	7.118364E-05
6.839292E+03	9.593896E-03	7.060952E-05
6.849247E+03	9.508046E-03	7.013169E-05
6.859202E+03	9.439168E-03	6.975688E-05
6.869157E+03	9.387550E-03	6.948834E-05
6.879113E+03	9.353661E-03	6.933047E-05
6.889068E+03	9.336535E-03	6.927684E-05
6.899023E+03	9.335927E-03	6.932618E-05
6.908979E+03	9.350384E-03	6.946799E-05
6.918934E+03	9.378369E-03	6.969101E-05
6.928889E+03	9.418272E-03	6.998324E-05
6.938845E+03	9.467907E-03	7.032826E-05
6.948800E+03	9.524919E-03	7.070837E-05
6.958755E+03	9.586800E-03	7.110464E-05
6.968710E+03	9.650940E-03	7.149742E-05
6.978666E+03	9.714573E-03	7.186600E-05
6.988621E+03	9.774772E-03	7.218861E-05
6.998576E+03	9.829314E-03	7.244888E-05
7.008532E+03	9.875079E-03	7.262404E-05
7.018487E+03	9.910390E-03	7.270224E-05
7.028442E+03	9.932767E-03	7.266603E-05
7.038398E+03	9.940966E-03	7.250732E-05
7.048353E+03	9.933618E-03	7.221740E-05
7.058308E+03	9.910141E-03	7.179360E-05
7.068263E+03	9.870755E-03	7.123927E-05
7.078219E+03	9.815660E-03	7.055778E-05
7.088174E+03	9.746292E-03	6.976150E-05
7.098129E+03	9.664510E-03	6.886582E-05
7.108085E+03	9.572954E-03	6.789154E-05
7.118040E+03	9.474261E-03	6.685919E-05
7.127995E+03	9.371144E-03	6.578958E-05
7.137951E+03	9.266602E-03	6.470513E-05
7.147906E+03	9.162736E-03	6.362161E-05
7.157861E+03	9.061942E-03	6.255652E-05
7.167817E+03	8.965681E-03	6.152052E-05
7.177772E+03	8.874981E-03	6.052107E-05
7.187727E+03	8.790564E-03	5.956335E-05
7.197682E+03	8.712605E-03	5.864869E-05
7.207638E+03	8.640861E-03	5.777560E-05
7.217593E+03	8.574909E-03	5.694137E-05
7.227548E+03	8.514126E-03	5.614208E-05
7.237504E+03	8.457805E-03	5.537334E-05
7.247459E+03	8.405354E-03	5.463165E-05
7.257414E+03	8.355777E-03	5.391100E-05
7.267370E+03	8.308748E-03	5.320990E-05
7.277325E+03	8.263602E-03	5.252476E-05
7.287280E+03	8.219733E-03	5.185252E-05
7.297235E+03	8.176895E-03	5.119248E-05
7.307191E+03	8.134342E-03	5.054091E-05
7.317146E+03	8.091790E-03	4.989709E-05
7.327101E+03	8.048996E-03	4.926059E-05
7.337057E+03	8.005356E-03	4.862888E-05
7.347012E+03	7.960690E-03	4.800205E-05
7.356967E+03	7.914246E-03	4.737682E-05
7.366923E+03	7.865981E-03	4.675424E-05
7.376878E+03	7.815249E-03	4.613178E-05
7.386833E+03	7.762017E-03	4.551057E-05
7.396788E+03	7.705817E-03	4.488919E-05
7.406744E+03	7.646478E-03	4.426792E-05
7.416699E+03	7.584159E-03	4.364891E-05
7.426654E+03	7.518720E-03	4.303249E-05
7.436610E+03	7.450810E-03	4.242341E-05
7.446565E+03	7.380455E-03	4.182261E-05
7.456520E+03	7.308535E-03	4.123481E-05
7.466476E+03	7.235555E-03	4.066200E-05
7.476431E+03	7.162771E-03	4.011026E-05
7.486386E+03	7.091064E-03	3.958350E-05
7.496341E+03	7.021542E-03	3.908683E-05
7.506297E+03	6.955400E-03	3.862584E-05
7.516252E+03	6.893559E-03	3.820457E-05
7.526207E+03	6.837090E-03	3.782792E-05
7.536163E+03	6.786112E-03	3.749557E-05
7.546118E+03	6.740541E-03	3.720619E-05
7.556073E+03	6.699930E-03	3.695649E-05
7.566029E+03	6.663291E-03	3.674034E-05
7.575984E+03	6.629613E-03	3.655154E-05
7.585939E+03	6.597742E-03	3.638315E-05
7.595894E+03	6.567549E-03	3.623399E-05
7.605850E+03	6.538464E-03	3.610045E-05
7.615805E+03	6.510543E-03	3.598243E-05
7.625760E+03	6.483294E-03	3.587687E-05
7.635716E+03	6.456870E-03	3.578428E-05
7.645671E+03	6.430914E-03	3.570243E-05
7.655626E+03	6.405781E-03	3.563304E-05
7.665582E+03	6.381560E-03	3.557645E-05
7.675537E+03	6.358578E-03	3.553436E-05
7.685492E+03	6.337223E-03	3.550889E-05
7.695447E+03	6.317970E-03	3.550269E-05
7.705403E+03	6.301248E-03	3.551827E-05
7.715358E+03	6.287232E-03	3.555679E-05
7.725313E+03	6.276448E-03	3.562144E-05
