#wls	flux	fluxerr
1.592848E+03	2.053168E-03	6.641850E-05
1.632669E+03	2.112586E-03	6.787038E-05
1.672491E+03	2.176537E-03	6.942923E-05
1.712312E+03	2.245200E-03	7.109635E-05
1.752133E+03	2.318954E-03	7.287915E-05
1.791954E+03	2.398380E-03	7.479070E-05
1.831775E+03	2.483258E-03	7.681849E-05
1.871597E+03	2.574372E-03	7.898093E-05
1.911418E+03	2.671910E-03	8.127717E-05
1.951239E+03	2.776067E-03	8.370613E-05
1.991060E+03	2.886846E-03	8.626062E-05
2.030881E+03	3.004463E-03	8.893939E-05
2.070703E+03	3.128751E-03	9.172947E-05
2.110524E+03	3.259168E-03	9.460694E-05
2.150345E+03	3.395790E-03	9.756595E-05
2.190166E+03	3.537930E-03	1.005786E-04
2.229987E+03	3.685131E-03	1.036241E-04
2.269809E+03	3.837366E-03	1.066939E-04
2.309630E+03	3.995035E-03	1.097910E-04
2.349451E+03	4.159179E-03	1.129351E-04
2.389272E+03	4.331068E-03	1.161502E-04
2.429093E+03	4.512053E-03	1.194606E-04
2.468915E+03	4.704135E-03	1.229053E-04
2.508736E+03	4.908832E-03	1.265076E-04
2.548557E+03	5.128171E-03	1.303012E-04
2.588378E+03	5.363731E-03	1.343048E-04
2.628199E+03	5.617478E-03	1.385439E-04
2.668021E+03	5.891190E-03	1.430354E-04
2.707842E+03	6.186908E-03	1.477992E-04
2.747663E+03	6.506983E-03	1.528584E-04
2.787484E+03	6.853928E-03	1.582350E-04
2.827305E+03	7.230721E-03	1.639565E-04
2.867127E+03	7.641250E-03	1.700645E-04
2.906948E+03	8.089648E-03	1.765983E-04
2.946769E+03	8.581839E-03	1.836268E-04
2.986590E+03	9.124027E-03	1.912131E-04
2.996546E+03	9.268520E-03	1.932115E-04
3.006501E+03	9.416624E-03	1.952486E-04
3.016456E+03	9.568442E-03	1.973251E-04
3.026411E+03	9.724533E-03	1.994510E-04
3.036367E+03	9.884810E-03	2.016229E-04
3.046322E+03	1.004939E-02	2.038417E-04
3.056277E+03	1.021865E-02	2.061130E-04
3.066233E+03	1.039250E-02	2.084335E-04
3.076188E+03	1.057109E-02	2.108044E-04
3.086143E+03	1.075501E-02	2.132354E-04
3.096099E+03	1.094397E-02	2.157190E-04
3.106054E+03	1.113837E-02	2.182607E-04
3.116009E+03	1.133814E-02	2.208573E-04
3.125964E+03	1.154412E-02	2.235230E-04
3.135920E+03	1.175583E-02	2.262457E-04
3.145875E+03	1.197365E-02	2.290308E-04
3.155830E+03	1.219799E-02	2.318838E-04
3.165786E+03	1.242904E-02	2.348055E-04
3.175741E+03	1.266651E-02	2.377877E-04
3.185696E+03	1.291127E-02	2.408445E-04
3.195652E+03	1.316303E-02	2.439672E-04
3.205607E+03	1.342218E-02	2.471606E-04
3.215562E+03	1.368865E-02	2.504200E-04
3.225517E+03	1.396279E-02	2.537494E-04
3.235473E+03	1.424475E-02	2.571479E-04
3.245428E+03	1.453459E-02	2.606140E-04
3.255383E+03	1.483215E-02	2.641412E-04
3.265339E+03	1.513768E-02	2.677310E-04
3.275294E+03	1.545115E-02	2.713797E-04
3.285249E+03	1.577222E-02	2.750780E-04
3.295205E+03	1.610096E-02	2.788242E-04
3.305160E+03	1.643683E-02	2.826058E-04
3.315115E+03	1.677974E-02	2.864180E-04
3.325070E+03	1.712888E-02	2.902446E-04
3.335026E+03	1.748358E-02	2.940714E-04
3.344981E+03	1.784296E-02	2.978814E-04
3.354936E+03	1.820593E-02	3.016545E-04
3.364892E+03	1.857113E-02	3.053667E-04
3.374847E+03	1.893664E-02	3.089855E-04
3.384802E+03	1.930079E-02	3.124834E-04
3.394758E+03	1.966070E-02	3.158144E-04
3.404713E+03	2.001427E-02	3.189466E-04
3.414668E+03	2.035794E-02	3.218257E-04
3.424623E+03	2.068837E-02	3.244030E-04
3.434579E+03	2.100195E-02	3.266272E-04
3.444534E+03	2.129455E-02	3.284408E-04
3.454489E+03	2.156244E-02	3.297950E-04
3.464445E+03	2.180127E-02	3.306330E-04
3.474400E+03	2.200670E-02	3.309009E-04
3.484355E+03	2.217484E-02	3.305536E-04
3.494311E+03	2.230176E-02	3.295474E-04
3.504266E+03	2.238447E-02	3.278549E-04
3.514221E+03	2.241937E-02	3.254410E-04
3.524176E+03	2.240459E-02	3.222979E-04
3.534132E+03	2.233846E-02	3.184213E-04
3.544087E+03	2.222047E-02	3.138245E-04
3.554042E+03	2.205059E-02	3.085275E-04
3.563998E+03	2.183017E-02	3.025701E-04
3.573953E+03	2.156234E-02	2.960155E-04
3.583908E+03	2.125051E-02	2.889290E-04
3.593864E+03	2.090041E-02	2.814057E-04
3.603819E+03	2.051842E-02	2.735463E-04
3.613774E+03	2.011154E-02	2.654562E-04
3.623729E+03	1.968764E-02	2.572485E-04
3.633685E+03	1.925516E-02	2.490397E-04
3.643640E+03	1.882242E-02	2.409399E-04
3.653595E+03	1.839856E-02	2.330656E-04
3.663551E+03	1.799208E-02	2.255199E-04
3.673506E+03	1.761204E-02	2.184088E-04
3.683461E+03	1.726708E-02	2.118281E-04
3.693417E+03	1.696574E-02	2.058675E-04
3.703372E+03	1.671580E-02	2.006032E-04
3.713327E+03	1.652491E-02	1.961059E-04
3.723282E+03	1.640015E-02	1.924351E-04
3.733238E+03	1.634836E-02	1.896440E-04
3.743193E+03	1.637596E-02	1.877772E-04
3.753148E+03	1.648931E-02	1.868754E-04
3.763104E+03	1.669449E-02	1.869725E-04
3.773059E+03	1.699743E-02	1.880978E-04
3.783014E+03	1.740437E-02	1.902807E-04
3.792970E+03	1.792033E-02	1.935344E-04
3.802925E+03	1.855034E-02	1.978695E-04
3.812880E+03	1.929830E-02	2.032822E-04
3.822835E+03	2.016589E-02	2.097437E-04
3.832791E+03	2.115276E-02	2.172037E-04
3.842746E+03	2.225543E-02	2.255808E-04
3.852701E+03	2.346611E-02	2.347522E-04
3.862657E+03	2.477194E-02	2.445499E-04
3.872612E+03	2.615397E-02	2.547533E-04
3.882567E+03	2.758747E-02	2.650969E-04
3.892523E+03	2.904147E-02	2.752692E-04
3.902478E+03	3.047981E-02	2.849267E-04
3.912433E+03	3.186242E-02	2.937090E-04
3.922388E+03	3.314761E-02	3.012618E-04
3.932344E+03	3.429507E-02	3.072648E-04
3.942299E+03	3.526801E-02	3.114496E-04
3.952254E+03	3.603588E-02	3.136207E-04
3.962210E+03	3.657824E-02	3.136843E-04
3.972165E+03	3.688432E-02	3.116381E-04
3.982120E+03	3.695528E-02	3.075840E-04
3.992076E+03	3.680313E-02	3.017110E-04
4.002031E+03	3.644934E-02	2.942778E-04
4.011986E+03	3.592407E-02	2.856004E-04
4.021941E+03	3.526159E-02	2.760113E-04
4.031897E+03	3.449935E-02	2.658495E-04
4.041852E+03	3.367428E-02	2.554314E-04
4.051807E+03	3.282096E-02	2.450374E-04
4.061763E+03	3.197019E-02	2.349032E-04
4.071718E+03	3.114824E-02	2.252169E-04
4.081673E+03	3.037541E-02	2.161122E-04
4.091629E+03	2.966708E-02	2.076786E-04
4.101584E+03	2.903408E-02	1.999680E-04
4.111539E+03	2.848153E-02	1.929892E-04
4.121494E+03	2.801147E-02	1.867285E-04
4.131450E+03	2.762250E-02	1.811500E-04
4.141405E+03	2.731066E-02	1.762021E-04
4.151360E+03	2.706999E-02	1.718232E-04
4.161316E+03	2.689310E-02	1.679463E-04
4.171271E+03	2.677161E-02	1.645019E-04
4.181226E+03	2.669652E-02	1.614210E-04
4.191182E+03	2.665866E-02	1.586376E-04
4.201137E+03	2.664891E-02	1.560902E-04
4.211092E+03	2.665813E-02	1.537213E-04
4.221047E+03	2.667767E-02	1.514796E-04
4.231003E+03	2.669945E-02	1.493206E-04
4.240958E+03	2.671559E-02	1.472034E-04
4.250913E+03	2.671834E-02	1.450909E-04
4.260869E+03	2.670140E-02	1.429555E-04
4.270824E+03	2.665916E-02	1.407753E-04
4.280779E+03	2.658705E-02	1.385346E-04
4.290735E+03	2.648155E-02	1.362238E-04
4.300690E+03	2.633990E-02	1.338375E-04
4.310645E+03	2.616065E-02	1.313764E-04
4.320601E+03	2.594148E-02	1.288364E-04
4.330556E+03	2.568034E-02	1.262135E-04
4.340511E+03	2.537288E-02	1.234891E-04
4.350466E+03	2.501272E-02	1.206335E-04
4.360422E+03	2.459268E-02	1.176131E-04
4.370377E+03	2.411063E-02	1.144181E-04
4.380332E+03	2.359404E-02	1.111772E-04
4.390288E+03	2.309542E-02	1.081319E-04
4.400243E+03	2.266298E-02	1.054973E-04
4.410198E+03	2.233534E-02	1.034402E-04
4.420154E+03	2.214144E-02	1.020808E-04
4.430109E+03	2.210062E-02	1.014950E-04
4.440064E+03	2.222426E-02	1.017234E-04
4.450019E+03	2.251711E-02	1.027783E-04
4.459975E+03	2.297736E-02	1.046443E-04
4.469930E+03	2.359801E-02	1.072848E-04
4.479885E+03	2.436600E-02	1.106379E-04
4.489841E+03	2.526180E-02	1.146144E-04
4.499796E+03	2.625941E-02	1.190974E-04
4.509751E+03	2.732661E-02	1.239425E-04
4.519707E+03	2.842626E-02	1.289840E-04
4.529662E+03	2.951802E-02	1.340409E-04
4.539617E+03	3.056007E-02	1.389251E-04
4.549572E+03	3.151172E-02	1.434518E-04
4.559528E+03	3.233675E-02	1.474548E-04
4.569483E+03	3.300348E-02	1.507864E-04
4.579438E+03	3.348777E-02	1.533311E-04
4.589394E+03	3.377427E-02	1.550118E-04
4.599349E+03	3.385553E-02	1.557858E-04
4.609304E+03	3.373059E-02	1.556390E-04
4.619260E+03	3.340694E-02	1.545954E-04
4.629215E+03	3.289603E-02	1.526973E-04
4.639170E+03	3.221727E-02	1.500241E-04
4.649125E+03	3.139437E-02	1.466758E-04
4.659081E+03	3.045525E-02	1.427737E-04
4.669036E+03	2.943066E-02	1.384539E-04
4.678991E+03	2.835219E-02	1.338587E-04
4.688947E+03	2.725025E-02	1.291268E-04
4.698902E+03	2.614990E-02	1.243740E-04
4.708857E+03	2.506956E-02	1.196860E-04
4.718813E+03	2.401902E-02	1.151079E-04
4.728768E+03	2.299700E-02	1.106323E-04
4.738723E+03	2.199364E-02	1.062106E-04
4.748678E+03	2.099233E-02	1.017615E-04
4.758634E+03	1.998061E-02	9.722263E-05
4.768589E+03	1.896657E-02	9.263196E-05
4.778544E+03	1.799113E-02	8.818911E-05
4.788500E+03	1.709904E-02	8.411575E-05
4.798455E+03	1.632358E-02	8.058036E-05
4.808410E+03	1.568406E-02	7.768446E-05
4.818366E+03	1.518861E-02	7.547529E-05
4.828321E+03	1.483610E-02	7.395399E-05
4.838276E+03	1.461868E-02	7.308787E-05
4.848231E+03	1.452401E-02	7.282075E-05
4.858187E+03	1.453611E-02	7.307704E-05
4.868142E+03	1.463551E-02	7.376224E-05
4.878097E+03	1.480031E-02	7.476815E-05
4.888053E+03	1.500621E-02	7.597317E-05
4.898008E+03	1.522901E-02	7.725476E-05
4.907963E+03	1.544647E-02	7.849930E-05
4.917919E+03	1.564061E-02	7.961416E-05
4.927874E+03	1.579938E-02	8.053630E-05
4.937829E+03	1.591624E-02	8.123083E-05
4.947784E+03	1.599079E-02	8.169416E-05
4.957740E+03	1.602733E-02	8.194719E-05
4.967695E+03	1.603419E-02	8.203168E-05
4.977650E+03	1.602208E-02	8.200201E-05
4.987606E+03	1.600343E-02	8.192162E-05
4.997561E+03	1.598980E-02	8.184955E-05
5.007516E+03	1.599155E-02	8.183883E-05
5.017472E+03	1.601714E-02	8.193276E-05
5.027427E+03	1.607231E-02	8.216031E-05
5.037382E+03	1.616022E-02	8.253740E-05
5.047337E+03	1.628177E-02	8.306786E-05
5.057293E+03	1.643611E-02	8.374665E-05
5.067248E+03	1.662107E-02	8.456175E-05
5.077203E+03	1.683406E-02	8.549902E-05
5.087159E+03	1.707276E-02	8.654558E-05
5.097114E+03	1.733493E-02	8.768902E-05
5.107069E+03	1.761990E-02	8.892472E-05
5.117025E+03	1.792700E-02	9.024822E-05
5.126980E+03	1.825738E-02	9.166399E-05
5.136935E+03	1.861222E-02	9.317672E-05
5.146890E+03	1.899311E-02	9.479291E-05
5.156846E+03	1.940136E-02	9.651759E-05
5.166801E+03	1.983735E-02	9.835110E-05
5.176756E+03	2.030044E-02	1.002886E-04
5.186712E+03	2.078810E-02	1.023161E-04
5.196667E+03	2.129647E-02	1.044132E-04
5.206622E+03	2.181856E-02	1.065447E-04
5.216578E+03	2.234612E-02	1.086696E-04
5.226533E+03	2.286886E-02	1.107384E-04
5.236488E+03	2.337525E-02	1.126961E-04
5.246443E+03	2.385251E-02	1.144832E-04
5.256399E+03	2.428871E-02	1.160453E-04
5.266354E+03	2.467225E-02	1.173311E-04
5.276309E+03	2.499340E-02	1.182994E-04
5.286265E+03	2.524424E-02	1.189184E-04
5.296220E+03	2.541976E-02	1.191711E-04
5.306175E+03	2.551661E-02	1.190486E-04
5.316131E+03	2.553425E-02	1.185558E-04
5.326086E+03	2.547376E-02	1.177046E-04
5.336041E+03	2.533804E-02	1.165157E-04
5.345996E+03	2.513009E-02	1.150096E-04
5.355952E+03	2.485474E-02	1.132147E-04
5.365907E+03	2.451688E-02	1.111592E-04
5.375862E+03	2.412210E-02	1.088736E-04
5.385818E+03	2.367660E-02	1.063907E-04
5.395773E+03	2.318862E-02	1.037512E-04
5.405728E+03	2.266884E-02	1.010061E-04
5.415684E+03	2.213067E-02	9.821695E-05
5.425639E+03	2.159290E-02	9.546828E-05
5.435594E+03	2.107901E-02	9.286347E-05
5.445549E+03	2.061863E-02	9.053120E-05
5.455505E+03	2.024628E-02	8.861806E-05
5.465460E+03	1.999268E-02	8.725173E-05
5.475415E+03	1.986699E-02	8.646514E-05
5.485371E+03	1.983713E-02	8.611252E-05
5.495326E+03	1.985835E-02	8.599503E-05
5.505281E+03	1.988681E-02	8.591999E-05
5.515237E+03	1.988671E-02	8.573123E-05
5.525192E+03	1.983107E-02	8.531169E-05
5.535147E+03	1.970291E-02	8.458829E-05
5.545102E+03	1.949360E-02	8.352414E-05
5.555058E+03	1.920306E-02	8.211920E-05
5.565013E+03	1.883768E-02	8.040115E-05
5.574968E+03	1.840939E-02	7.842106E-05
5.584924E+03	1.793312E-02	7.624261E-05
5.594879E+03	1.742634E-02	7.393982E-05
5.604834E+03	1.690729E-02	7.158981E-05
5.614790E+03	1.639378E-02	6.926730E-05
5.624745E+03	1.590258E-02	6.704222E-05
5.634700E+03	1.544837E-02	6.497526E-05
5.644655E+03	1.504406E-02	6.311917E-05
5.654611E+03	1.470030E-02	6.151666E-05
5.664566E+03	1.442532E-02	6.019991E-05
5.674521E+03	1.422529E-02	5.919197E-05
5.684477E+03	1.410447E-02	5.850753E-05
5.694432E+03	1.406564E-02	5.815462E-05
5.704387E+03	1.410929E-02	5.813149E-05
5.714343E+03	1.423482E-02	5.843146E-05
5.724298E+03	1.443946E-02	5.903862E-05
5.734253E+03	1.471826E-02	5.992813E-05
5.744209E+03	1.506442E-02	6.106751E-05
5.754164E+03	1.546874E-02	6.241474E-05
5.764119E+03	1.591914E-02	6.391672E-05
5.774074E+03	1.640125E-02	6.551178E-05
5.784030E+03	1.689883E-02	6.713200E-05
5.793985E+03	1.739339E-02	6.870191E-05
5.803940E+03	1.786653E-02	7.014805E-05
5.813896E+03	1.830048E-02	7.140152E-05
5.823851E+03	1.867952E-02	7.240320E-05
5.833806E+03	1.899128E-02	7.310909E-05
5.843762E+03	1.922689E-02	7.349023E-05
5.853717E+03	1.938271E-02	7.353909E-05
5.863672E+03	1.945867E-02	7.326244E-05
5.873627E+03	1.945862E-02	7.268234E-05
5.883583E+03	1.938936E-02	7.183172E-05
5.893538E+03	1.925962E-02	7.075032E-05
5.903493E+03	1.907941E-02	6.948174E-05
5.913449E+03	1.885836E-02	6.806725E-05
5.923404E+03	1.860616E-02	6.654728E-05
5.933359E+03	1.833179E-02	6.495874E-05
5.943315E+03	1.804291E-02	6.333274E-05
5.953270E+03	1.774553E-02	6.169375E-05
5.963225E+03	1.744519E-02	6.006382E-05
5.973180E+03	1.714511E-02	5.845644E-05
5.983136E+03	1.684851E-02	5.688460E-05
5.993091E+03	1.655616E-02	5.535275E-05
6.003046E+03	1.626827E-02	5.386334E-05
6.013002E+03	1.598409E-02	5.241561E-05
6.022957E+03	1.570145E-02	5.100433E-05
6.032912E+03	1.541776E-02	4.962308E-05
6.042868E+03	1.512997E-02	4.826429E-05
6.052823E+03	1.483633E-02	4.692467E-05
6.062778E+03	1.453543E-02	4.560197E-05
6.072733E+03	1.422883E-02	4.430325E-05
6.082689E+03	1.392046E-02	4.304236E-05
6.092644E+03	1.361728E-02	4.184190E-05
6.102599E+03	1.332960E-02	4.073402E-05
6.112555E+03	1.307082E-02	3.975942E-05
6.122510E+03	1.285577E-02	3.896251E-05
6.132465E+03	1.269952E-02	3.838820E-05
6.142421E+03	1.261572E-02	3.807738E-05
6.152376E+03	1.261315E-02	3.805714E-05
6.162331E+03	1.269345E-02	3.833404E-05
6.172286E+03	1.284668E-02	3.887910E-05
6.182242E+03	1.304709E-02	3.961584E-05
6.192197E+03	1.324883E-02	4.040645E-05
6.202152E+03	1.338782E-02	4.105474E-05
6.212108E+03	1.339852E-02	4.135478E-05
6.222063E+03	1.326532E-02	4.124849E-05
6.232018E+03	1.304314E-02	4.089489E-05
6.241974E+03	1.279725E-02	4.048970E-05
6.251929E+03	1.257876E-02	4.019016E-05
6.261884E+03	1.241909E-02	4.009668E-05
6.271839E+03	1.233305E-02	4.026035E-05
6.281795E+03	1.232344E-02	4.069592E-05
6.291750E+03	1.238457E-02	4.139110E-05
6.301705E+03	1.250487E-02	4.231371E-05
6.311661E+03	1.266991E-02	4.342055E-05
6.321616E+03	1.286369E-02	4.466100E-05
6.331571E+03	1.306943E-02	4.597903E-05
6.341527E+03	1.327143E-02	4.731959E-05
6.351482E+03	1.345520E-02	4.862891E-05
6.361437E+03	1.360845E-02	4.985849E-05
6.371392E+03	1.372182E-02	5.096762E-05
6.381348E+03	1.378977E-02	5.192753E-05
6.391303E+03	1.380967E-02	5.271931E-05
6.401258E+03	1.378288E-02	5.333889E-05
6.411214E+03	1.371346E-02	5.379295E-05
6.421169E+03	1.360799E-02	5.409908E-05
6.431124E+03	1.347506E-02	5.428445E-05
6.441080E+03	1.332412E-02	5.438170E-05
6.451035E+03	1.316514E-02	5.442776E-05
6.460990E+03	1.300706E-02	5.445750E-05
6.470945E+03	1.285859E-02	5.450685E-05
6.480901E+03	1.272678E-02	5.460648E-05
6.490856E+03	1.261704E-02	5.478154E-05
6.500811E+03	1.253370E-02	5.505358E-05
6.510767E+03	1.247954E-02	5.543808E-05
6.520722E+03	1.245599E-02	5.594505E-05
6.530677E+03	1.246303E-02	5.657807E-05
6.540633E+03	1.249940E-02	5.733489E-05
6.550588E+03	1.256210E-02	5.820491E-05
6.560543E+03	1.264714E-02	5.917219E-05
6.570498E+03	1.274973E-02	6.021614E-05
6.580454E+03	1.286407E-02	6.131045E-05
6.590409E+03	1.298361E-02	6.242402E-05
6.600364E+03	1.310192E-02	6.352536E-05
6.610320E+03	1.321223E-02	6.458021E-05
6.620275E+03	1.330887E-02	6.555867E-05
6.630230E+03	1.338596E-02	6.642905E-05
6.640186E+03	1.343897E-02	6.716582E-05
6.650141E+03	1.346478E-02	6.774995E-05
6.660096E+03	1.346120E-02	6.816715E-05
6.670051E+03	1.342705E-02	6.840808E-05
6.680007E+03	1.336256E-02	6.847087E-05
6.689962E+03	1.326925E-02	6.836069E-05
6.699917E+03	1.314911E-02	6.808549E-05
6.709873E+03	1.300533E-02	6.766004E-05
6.719828E+03	1.284094E-02	6.709890E-05
6.729783E+03	1.266024E-02	6.642375E-05
6.739739E+03	1.246677E-02	6.565291E-05
6.749694E+03	1.226500E-02	6.480988E-05
6.759649E+03	1.205832E-02	6.391321E-05
6.769604E+03	1.185069E-02	6.298447E-05
6.779560E+03	1.164561E-02	6.204323E-05
6.789515E+03	1.144622E-02	6.110732E-05
6.799470E+03	1.125593E-02	6.019613E-05
6.809426E+03	1.107754E-02	5.932579E-05
6.819381E+03	1.091392E-02	5.851279E-05
6.829336E+03	1.076694E-02	5.776829E-05
6.839292E+03	1.063890E-02	5.710558E-05
6.849247E+03	1.053113E-02	5.653258E-05
6.859202E+03	1.044478E-02	5.605607E-05
6.869157E+03	1.038039E-02	5.567933E-05
6.879113E+03	1.033859E-02	5.540590E-05
6.889068E+03	1.031846E-02	5.523088E-05
6.899023E+03	1.031977E-02	5.515271E-05
6.908979E+03	1.034081E-02	5.516182E-05
6.918934E+03	1.037981E-02	5.524818E-05
6.928889E+03	1.043477E-02	5.540047E-05
6.938845E+03	1.050286E-02	5.560297E-05
6.948800E+03	1.058111E-02	5.583909E-05
6.958755E+03	1.066616E-02	5.609054E-05
6.968710E+03	1.075442E-02	5.633784E-05
6.978666E+03	1.084213E-02	5.656099E-05
6.988621E+03	1.092528E-02	5.673895E-05
6.998576E+03	1.100056E-02	5.685488E-05
7.008532E+03	1.106388E-02	5.688816E-05
7.018487E+03	1.111278E-02	5.682729E-05
7.028442E+03	1.114404E-02	5.665719E-05
7.038398E+03	1.115618E-02	5.637217E-05
7.048353E+03	1.114779E-02	5.596729E-05
7.058308E+03	1.111851E-02	5.544319E-05
7.068263E+03	1.106907E-02	5.480618E-05
7.078219E+03	1.100036E-02	5.406352E-05
7.088174E+03	1.091476E-02	5.322968E-05
7.098129E+03	1.081490E-02	5.232018E-05
7.108085E+03	1.070433E-02	5.135463E-05
7.118040E+03	1.058655E-02	5.035205E-05
7.127995E+03	1.046482E-02	4.932964E-05
7.137951E+03	1.034256E-02	4.830503E-05
7.147906E+03	1.022219E-02	4.729047E-05
7.157861E+03	1.010642E-02	4.629930E-05
7.167817E+03	9.996816E-03	4.533902E-05
7.177772E+03	9.894391E-03	4.441446E-05
7.187727E+03	9.800053E-03	4.352973E-05
7.197682E+03	9.714067E-03	4.268596E-05
7.207638E+03	9.636117E-03	4.188170E-05
7.217593E+03	9.565809E-03	4.111524E-05
7.227548E+03	9.502523E-03	4.038399E-05
7.237504E+03	9.445478E-03	3.968485E-05
7.247459E+03	9.393797E-03	3.901450E-05
7.257414E+03	9.346146E-03	3.836797E-05
7.267370E+03	9.301963E-03	3.774372E-05
7.277325E+03	9.260111E-03	3.713806E-05
7.287280E+03	9.219507E-03	3.654782E-05
7.297235E+03	9.179549E-03	3.597193E-05
7.307191E+03	9.139186E-03	3.540776E-05
7.317146E+03	9.097871E-03	3.485485E-05
7.327101E+03	9.055170E-03	3.431328E-05
7.337057E+03	9.010583E-03	3.378299E-05
7.347012E+03	8.964052E-03	3.326563E-05
7.356967E+03	8.914785E-03	3.276018E-05
7.366923E+03	8.862970E-03	3.226926E-05
7.376878E+03	8.808018E-03	3.179258E-05
7.386833E+03	8.749889E-03	3.133187E-05
7.396788E+03	8.688194E-03	3.088746E-05
7.406744E+03	8.622784E-03	3.046049E-05
7.416699E+03	8.553816E-03	3.005299E-05
7.426654E+03	8.481266E-03	2.966616E-05
7.436610E+03	8.406026E-03	2.930419E-05
7.446565E+03	8.328187E-03	2.896817E-05
7.456520E+03	8.248685E-03	2.866113E-05
7.466476E+03	8.168038E-03	2.838332E-05
7.476431E+03	8.087573E-03	2.813761E-05
7.486386E+03	8.008012E-03	2.792470E-05
7.496341E+03	7.930323E-03	2.774613E-05
7.506297E+03	7.855695E-03	2.760426E-05
7.516252E+03	7.785137E-03	2.750093E-05
7.526207E+03	7.719881E-03	2.743891E-05
7.536163E+03	7.660229E-03	2.741786E-05
7.546118E+03	7.606675E-03	2.743827E-05
7.556073E+03	7.559312E-03	2.749938E-05
7.566029E+03	7.517530E-03	2.759799E-05
7.575984E+03	7.480736E-03	2.773102E-05
7.585939E+03	7.447971E-03	2.789406E-05
7.595894E+03	7.419129E-03	2.808591E-05
7.605850E+03	7.393555E-03	2.830334E-05
7.615805E+03	7.371217E-03	2.854553E-05
7.625760E+03	7.351358E-03	2.880892E-05
7.635716E+03	7.333902E-03	2.909260E-05
7.645671E+03	7.318184E-03	2.939337E-05
7.655626E+03	7.304335E-03	2.971120E-05
7.665582E+03	7.292149E-03	3.004478E-05
7.675537E+03	7.281736E-03	3.039417E-05
7.685492E+03	7.273333E-03	3.076004E-05
7.695447E+03	7.267261E-03	3.114355E-05
7.705403E+03	7.263873E-03	3.154614E-05
7.715358E+03	7.263302E-03	3.196842E-05
7.725313E+03	7.266051E-03	3.241278E-05
