#wls	flux	fluxerr
1.592848E+03	6.950086E-04	5.448026E-05
1.632669E+03	7.129009E-04	5.555732E-05
1.672491E+03	7.320025E-04	5.670373E-05
1.712312E+03	7.522331E-04	5.791086E-05
1.752133E+03	7.737683E-04	5.918970E-05
1.791954E+03	7.966968E-04	6.054421E-05
1.831775E+03	8.211054E-04	6.197790E-05
1.871597E+03	8.470775E-04	6.349375E-05
1.911418E+03	8.746042E-04	6.508756E-05
1.951239E+03	9.038473E-04	6.676763E-05
1.991060E+03	9.349635E-04	6.854141E-05
2.030881E+03	9.680132E-04	7.040881E-05
2.070703E+03	1.003046E-03	7.236871E-05
2.110524E+03	1.040370E-03	7.443811E-05
2.150345E+03	1.080280E-03	7.663226E-05
2.190166E+03	1.123056E-03	7.896436E-05
2.229987E+03	1.169411E-03	8.147685E-05
2.269809E+03	1.219852E-03	8.419588E-05
2.309630E+03	1.274669E-03	8.713104E-05
2.349451E+03	1.333923E-03	9.027539E-05
2.389272E+03	1.397253E-03	9.359319E-05
2.429093E+03	1.464782E-03	9.708122E-05
2.468915E+03	1.536097E-03	1.007006E-04
2.508736E+03	1.611153E-03	1.044371E-04
2.548557E+03	1.689525E-03	1.082521E-04
2.588378E+03	1.771035E-03	1.121232E-04
2.628199E+03	1.855094E-03	1.160031E-04
2.668021E+03	1.941055E-03	1.198421E-04
2.707842E+03	2.028014E-03	1.235771E-04
2.747663E+03	2.114984E-03	1.271424E-04
2.787484E+03	2.200457E-03	1.304452E-04
2.827305E+03	2.283173E-03	1.334118E-04
2.867127E+03	2.361541E-03	1.359544E-04
2.906948E+03	2.434447E-03	1.380181E-04
2.946769E+03	2.500901E-03	1.395591E-04
2.986590E+03	2.560248E-03	1.405562E-04
2.996546E+03	2.573932E-03	1.407202E-04
3.006501E+03	2.587045E-03	1.408447E-04
3.016456E+03	2.599623E-03	1.409320E-04
3.026411E+03	2.611693E-03	1.409839E-04
3.036367E+03	2.623214E-03	1.409986E-04
3.046322E+03	2.634150E-03	1.409743E-04
3.056277E+03	2.644593E-03	1.409166E-04
3.066233E+03	2.654435E-03	1.408199E-04
3.076188E+03	2.663640E-03	1.406827E-04
3.086143E+03	2.672296E-03	1.405102E-04
3.096099E+03	2.680366E-03	1.403008E-04
3.106054E+03	2.687875E-03	1.400561E-04
3.116009E+03	2.694657E-03	1.397680E-04
3.125964E+03	2.700932E-03	1.394483E-04
3.135920E+03	2.706535E-03	1.390889E-04
3.145875E+03	2.711496E-03	1.386919E-04
3.155830E+03	2.715845E-03	1.382592E-04
3.165786E+03	2.719553E-03	1.377897E-04
3.175741E+03	2.722647E-03	1.372855E-04
3.185696E+03	2.725103E-03	1.367456E-04
3.195652E+03	2.726959E-03	1.361724E-04
3.205607E+03	2.728188E-03	1.355651E-04
3.215562E+03	2.728831E-03	1.349262E-04
3.225517E+03	2.728875E-03	1.342555E-04
3.235473E+03	2.728308E-03	1.335528E-04
3.245428E+03	2.727179E-03	1.328210E-04
3.255383E+03	2.725482E-03	1.320603E-04
3.265339E+03	2.723268E-03	1.312736E-04
3.275294E+03	2.720543E-03	1.304615E-04
3.285249E+03	2.717317E-03	1.296249E-04
3.295205E+03	2.713600E-03	1.287648E-04
3.305160E+03	2.709457E-03	1.278845E-04
3.315115E+03	2.704908E-03	1.269855E-04
3.325070E+03	2.699979E-03	1.260692E-04
3.335026E+03	2.694698E-03	1.251372E-04
3.344981E+03	2.689057E-03	1.241895E-04
3.354936E+03	2.683135E-03	1.232301E-04
3.364892E+03	2.676934E-03	1.222592E-04
3.374847E+03	2.670541E-03	1.212811E-04
3.384802E+03	2.663970E-03	1.202966E-04
3.394758E+03	2.657196E-03	1.193048E-04
3.404713E+03	2.650365E-03	1.183123E-04
3.414668E+03	2.643433E-03	1.173172E-04
3.424623E+03	2.636478E-03	1.163232E-04
3.434579E+03	2.629551E-03	1.153326E-04
3.444534E+03	2.622711E-03	1.143479E-04
3.454489E+03	2.615999E-03	1.133708E-04
3.464445E+03	2.609493E-03	1.124047E-04
3.474400E+03	2.603229E-03	1.114510E-04
3.484355E+03	2.597348E-03	1.105156E-04
3.494311E+03	2.591912E-03	1.096008E-04
3.504266E+03	2.586997E-03	1.087095E-04
3.514221E+03	2.582736E-03	1.078468E-04
3.524176E+03	2.579179E-03	1.070143E-04
3.534132E+03	2.576467E-03	1.062175E-04
3.544087E+03	2.574753E-03	1.054618E-04
3.554042E+03	2.574184E-03	1.047525E-04
3.563998E+03	2.574918E-03	1.040952E-04
3.573953E+03	2.577107E-03	1.034948E-04
3.583908E+03	2.581009E-03	1.029606E-04
3.593864E+03	2.586748E-03	1.024962E-04
3.603819E+03	2.594517E-03	1.021076E-04
3.613774E+03	2.604516E-03	1.018011E-04
3.623729E+03	2.616950E-03	1.015830E-04
3.633685E+03	2.632039E-03	1.014596E-04
3.643640E+03	2.650038E-03	1.014388E-04
3.653595E+03	2.671235E-03	1.015289E-04
3.663551E+03	2.695899E-03	1.017377E-04
3.673506E+03	2.724282E-03	1.020717E-04
3.683461E+03	2.756744E-03	1.025413E-04
3.693417E+03	2.793538E-03	1.031526E-04
3.703372E+03	2.835001E-03	1.039144E-04
3.713327E+03	2.881432E-03	1.048337E-04
3.723282E+03	2.933154E-03	1.059182E-04
3.733238E+03	2.990424E-03	1.071728E-04
3.743193E+03	3.053525E-03	1.086030E-04
3.753148E+03	3.122748E-03	1.102143E-04
3.763104E+03	3.198270E-03	1.120079E-04
3.773059E+03	3.280268E-03	1.139848E-04
3.783014E+03	3.368875E-03	1.161443E-04
3.792970E+03	3.464146E-03	1.184829E-04
3.802925E+03	3.566033E-03	1.209935E-04
3.812880E+03	3.674409E-03	1.236664E-04
3.822835E+03	3.789072E-03	1.264896E-04
3.832791E+03	3.909591E-03	1.294436E-04
3.842746E+03	4.035479E-03	1.325078E-04
3.852701E+03	4.166068E-03	1.356560E-04
3.862657E+03	4.300475E-03	1.388559E-04
3.872612E+03	4.437682E-03	1.420718E-04
3.882567E+03	4.576503E-03	1.452639E-04
3.892523E+03	4.715551E-03	1.483872E-04
3.902478E+03	4.853385E-03	1.513969E-04
3.912433E+03	4.988342E-03	1.542425E-04
3.922388E+03	5.118819E-03	1.568774E-04
3.932344E+03	5.243161E-03	1.592551E-04
3.942299E+03	5.359689E-03	1.613305E-04
3.952254E+03	5.466909E-03	1.630653E-04
3.962210E+03	5.563507E-03	1.644286E-04
3.972165E+03	5.648402E-03	1.653977E-04
3.982120E+03	5.720711E-03	1.659566E-04
3.992076E+03	5.779947E-03	1.661020E-04
4.002031E+03	5.825974E-03	1.658407E-04
4.011986E+03	5.858960E-03	1.651885E-04
4.021941E+03	5.879410E-03	1.641703E-04
4.031897E+03	5.888180E-03	1.628202E-04
4.041852E+03	5.886356E-03	1.611776E-04
4.051807E+03	5.875202E-03	1.592855E-04
4.061763E+03	5.856271E-03	1.571934E-04
4.071718E+03	5.831089E-03	1.549483E-04
4.081673E+03	5.801321E-03	1.525991E-04
4.091629E+03	5.768579E-03	1.501918E-04
4.101584E+03	5.734383E-03	1.477680E-04
4.111539E+03	5.700302E-03	1.453690E-04
4.121494E+03	5.667671E-03	1.430287E-04
4.131450E+03	5.637738E-03	1.407771E-04
4.141405E+03	5.611658E-03	1.386408E-04
4.151360E+03	5.590412E-03	1.366410E-04
4.161316E+03	5.574821E-03	1.347937E-04
4.171271E+03	5.565618E-03	1.331125E-04
4.181226E+03	5.563283E-03	1.316037E-04
4.191182E+03	5.568291E-03	1.302734E-04
4.201137E+03	5.580820E-03	1.291202E-04
4.211092E+03	5.601024E-03	1.281422E-04
4.221047E+03	5.628772E-03	1.273308E-04
4.231003E+03	5.663942E-03	1.266778E-04
4.240958E+03	5.706118E-03	1.261689E-04
4.250913E+03	5.754776E-03	1.257877E-04
4.260869E+03	5.809238E-03	1.255150E-04
4.270824E+03	5.868785E-03	1.253319E-04
4.280779E+03	5.932536E-03	1.252165E-04
4.290735E+03	5.999474E-03	1.251450E-04
4.300690E+03	6.068620E-03	1.250957E-04
4.310645E+03	6.138939E-03	1.250465E-04
4.320601E+03	6.209501E-03	1.249787E-04
4.330556E+03	6.279496E-03	1.248768E-04
4.340511E+03	6.348230E-03	1.247284E-04
4.350466E+03	6.415264E-03	1.245267E-04
4.360422E+03	6.480379E-03	1.242695E-04
4.370377E+03	6.544087E-03	1.239689E-04
4.380332E+03	6.607405E-03	1.236458E-04
4.390288E+03	6.672253E-03	1.233368E-04
4.400243E+03	6.740871E-03	1.230828E-04
4.410198E+03	6.815947E-03	1.229307E-04
4.420154E+03	6.900364E-03	1.229287E-04
4.430109E+03	6.997048E-03	1.231233E-04
4.440064E+03	7.108846E-03	1.235573E-04
4.450019E+03	7.238448E-03	1.242685E-04
4.459975E+03	7.388306E-03	1.252890E-04
4.469930E+03	7.560180E-03	1.266371E-04
4.479885E+03	7.755626E-03	1.283264E-04
4.489841E+03	7.975451E-03	1.303573E-04
4.499796E+03	8.219681E-03	1.327172E-04
4.509751E+03	8.487661E-03	1.353831E-04
4.519707E+03	8.777744E-03	1.383172E-04
4.529662E+03	9.087356E-03	1.414691E-04
4.539617E+03	9.412707E-03	1.447718E-04
4.549572E+03	9.749134E-03	1.481483E-04
4.559528E+03	1.009068E-02	1.515058E-04
4.569483E+03	1.043068E-02	1.547452E-04
4.579438E+03	1.076135E-02	1.577563E-04
4.589394E+03	1.107489E-02	1.604335E-04
4.599349E+03	1.136292E-02	1.626684E-04
4.609304E+03	1.161764E-02	1.643660E-04
4.619260E+03	1.183198E-02	1.654464E-04
4.629215E+03	1.199991E-02	1.658481E-04
4.639170E+03	1.211681E-02	1.655319E-04
4.649125E+03	1.218011E-02	1.644886E-04
4.659081E+03	1.218877E-02	1.627301E-04
4.669036E+03	1.214426E-02	1.603013E-04
4.678991E+03	1.204930E-02	1.572615E-04
4.688947E+03	1.190885E-02	1.536968E-04
4.698902E+03	1.172911E-02	1.497047E-04
4.708857E+03	1.151730E-02	1.453922E-04
4.718813E+03	1.128139E-02	1.408706E-04
4.728768E+03	1.102973E-02	1.362510E-04
4.738723E+03	1.077062E-02	1.316395E-04
4.748678E+03	1.051220E-02	1.271353E-04
4.758634E+03	1.026245E-02	1.228315E-04
4.768589E+03	1.002828E-02	1.188051E-04
4.778544E+03	9.814816E-03	1.151083E-04
4.788500E+03	9.626312E-03	1.117817E-04
4.798455E+03	9.466354E-03	1.088563E-04
4.808410E+03	9.337719E-03	1.063528E-04
4.818366E+03	9.242088E-03	1.042790E-04
4.828321E+03	9.180427E-03	1.026345E-04
4.838276E+03	9.152777E-03	1.014087E-04
4.848231E+03	9.158662E-03	1.005851E-04
4.858187E+03	9.196924E-03	1.001395E-04
4.868142E+03	9.265691E-03	1.000410E-04
4.878097E+03	9.362587E-03	1.002543E-04
4.888053E+03	9.484266E-03	1.007352E-04
4.898008E+03	9.626721E-03	1.014338E-04
4.907963E+03	9.784508E-03	1.022869E-04
4.917919E+03	9.951265E-03	1.032236E-04
4.927874E+03	1.011941E-02	1.041623E-04
4.937829E+03	1.028041E-02	1.050145E-04
4.947784E+03	1.042526E-02	1.056891E-04
4.957740E+03	1.054504E-02	1.060987E-04
4.967695E+03	1.063225E-02	1.061724E-04
4.977650E+03	1.068088E-02	1.058566E-04
4.987606E+03	1.068786E-02	1.051279E-04
4.997561E+03	1.065294E-02	1.039918E-04
5.007516E+03	1.057879E-02	1.024815E-04
5.017472E+03	1.047051E-02	1.006537E-04
5.027427E+03	1.033487E-02	9.857903E-05
5.037382E+03	1.017976E-02	9.633703E-05
5.047337E+03	1.001319E-02	9.400652E-05
5.057293E+03	9.842717E-03	9.165939E-05
5.067248E+03	9.675211E-03	8.935947E-05
5.077203E+03	9.516214E-03	8.715634E-05
5.087159E+03	9.370136E-03	8.508772E-05
5.097114E+03	9.239966E-03	8.317727E-05
5.107069E+03	9.127836E-03	8.144011E-05
5.117025E+03	9.034944E-03	7.988246E-05
5.126980E+03	8.962491E-03	7.851023E-05
5.136935E+03	8.911282E-03	7.732546E-05
5.146890E+03	8.882603E-03	7.633408E-05
5.156846E+03	8.877627E-03	7.554062E-05
5.166801E+03	8.897933E-03	7.495260E-05
5.176756E+03	8.944956E-03	7.457582E-05
5.186712E+03	9.020092E-03	7.441522E-05
5.196667E+03	9.124215E-03	7.447104E-05
5.206622E+03	9.257338E-03	7.473627E-05
5.216578E+03	9.418939E-03	7.519974E-05
5.226533E+03	9.607196E-03	7.584027E-05
5.236488E+03	9.819169E-03	7.662883E-05
5.246443E+03	1.005095E-02	7.753022E-05
5.256399E+03	1.029742E-02	7.850177E-05
5.266354E+03	1.055242E-02	7.949503E-05
5.276309E+03	1.080869E-02	8.045621E-05
5.286265E+03	1.105872E-02	8.133259E-05
5.296220E+03	1.129434E-02	8.206985E-05
5.306175E+03	1.150749E-02	8.261770E-05
5.316131E+03	1.169040E-02	8.293117E-05
5.326086E+03	1.183638E-02	8.297568E-05
5.336041E+03	1.193980E-02	8.272624E-05
5.345996E+03	1.199698E-02	8.217312E-05
5.355952E+03	1.200602E-02	8.131943E-05
5.365907E+03	1.196787E-02	8.018720E-05
5.375862E+03	1.188599E-02	7.881441E-05
5.385818E+03	1.176647E-02	7.725414E-05
5.395773E+03	1.161808E-02	7.557441E-05
5.405728E+03	1.145191E-02	7.385501E-05
5.415684E+03	1.128025E-02	7.218013E-05
5.425639E+03	1.111688E-02	7.064028E-05
5.435594E+03	1.097575E-02	6.932440E-05
5.445549E+03	1.087066E-02	6.831842E-05
5.455505E+03	1.081489E-02	6.770448E-05
5.465460E+03	1.082028E-02	6.755553E-05
5.475415E+03	1.088827E-02	6.788146E-05
5.485371E+03	1.100065E-02	6.857011E-05
5.495326E+03	1.113248E-02	6.946487E-05
5.505281E+03	1.125816E-02	7.040388E-05
5.515237E+03	1.135402E-02	7.123571E-05
5.525192E+03	1.139963E-02	7.182612E-05
5.535147E+03	1.137969E-02	7.206903E-05
5.545102E+03	1.128512E-02	7.189392E-05
5.555058E+03	1.111376E-02	7.127134E-05
5.565013E+03	1.086996E-02	7.021134E-05
5.574968E+03	1.056354E-02	6.875935E-05
5.584924E+03	1.020795E-02	6.698573E-05
5.594879E+03	9.819408E-03	6.498179E-05
5.604834E+03	9.414523E-03	6.284537E-05
5.614790E+03	9.009655E-03	6.067712E-05
5.624745E+03	8.619941E-03	5.857409E-05
5.634700E+03	8.258168E-03	5.662182E-05
5.644655E+03	7.935143E-03	5.489622E-05
5.654611E+03	7.659241E-03	5.345963E-05
5.664566E+03	7.436802E-03	5.236277E-05
5.674521E+03	7.272357E-03	5.164546E-05
5.684477E+03	7.168755E-03	5.133673E-05
5.694432E+03	7.127519E-03	5.145667E-05
5.704387E+03	7.149359E-03	5.201957E-05
5.714343E+03	7.234508E-03	5.303590E-05
5.724298E+03	7.382655E-03	5.451159E-05
5.734253E+03	7.593266E-03	5.645005E-05
5.744209E+03	7.865164E-03	5.884894E-05
5.754164E+03	8.196233E-03	6.169759E-05
5.764119E+03	8.583280E-03	6.497579E-05
5.774074E+03	9.021409E-03	6.864871E-05
5.784030E+03	9.503763E-03	7.266473E-05
5.793985E+03	1.002141E-02	7.695427E-05
5.803940E+03	1.056344E-02	8.143042E-05
5.813896E+03	1.111724E-02	8.599132E-05
5.823851E+03	1.166924E-02	9.052561E-05
5.833806E+03	1.220511E-02	9.491506E-05
5.843762E+03	1.271112E-02	9.904506E-05
5.853717E+03	1.317445E-02	1.028078E-04
5.863672E+03	1.358399E-02	1.061092E-04
5.873627E+03	1.393098E-02	1.088743E-04
5.883583E+03	1.420869E-02	1.110456E-04
5.893538E+03	1.441385E-02	1.125942E-04
5.903493E+03	1.454517E-02	1.135081E-04
5.913449E+03	1.460371E-02	1.137962E-04
5.923404E+03	1.459344E-02	1.134912E-04
5.933359E+03	1.451922E-02	1.126346E-04
5.943315E+03	1.438791E-02	1.112845E-04
5.953270E+03	1.420743E-02	1.095081E-04
5.963225E+03	1.398626E-02	1.073772E-04
5.973180E+03	1.373319E-02	1.049663E-04
5.983136E+03	1.345710E-02	1.023497E-04
5.993091E+03	1.316688E-02	9.960143E-05
6.003046E+03	1.287036E-02	9.678658E-05
6.013002E+03	1.257493E-02	9.396539E-05
6.022957E+03	1.228694E-02	9.118942E-05
6.032912E+03	1.201152E-02	8.849961E-05
6.042868E+03	1.175281E-02	8.592838E-05
6.052823E+03	1.151382E-02	8.349884E-05
6.062778E+03	1.129622E-02	8.122347E-05
6.072733E+03	1.110138E-02	7.911174E-05
6.082689E+03	1.092928E-02	7.716276E-05
6.092644E+03	1.077977E-02	7.537453E-05
6.102599E+03	1.065166E-02	7.373760E-05
6.112555E+03	1.054333E-02	7.223977E-05
6.122510E+03	1.045258E-02	7.086524E-05
6.132465E+03	1.037689E-02	6.959663E-05
6.142421E+03	1.031256E-02	6.840965E-05
6.152376E+03	1.025548E-02	6.727825E-05
6.162331E+03	1.020058E-02	6.617172E-05
6.172286E+03	1.014299E-02	6.506196E-05
6.182242E+03	1.007789E-02	6.392303E-05
6.192197E+03	1.000103E-02	6.273367E-05
6.202152E+03	9.909267E-03	6.148066E-05
6.212108E+03	9.801966E-03	6.016513E-05
6.222063E+03	9.679831E-03	5.879607E-05
6.232018E+03	9.545472E-03	5.739360E-05
6.241974E+03	9.403318E-03	5.598789E-05
6.251929E+03	9.258369E-03	5.461131E-05
6.261884E+03	9.116358E-03	5.329940E-05
6.271839E+03	8.982145E-03	5.208146E-05
6.281795E+03	8.860273E-03	5.098414E-05
6.291750E+03	8.754143E-03	5.002707E-05
6.301705E+03	8.666331E-03	4.922500E-05
6.311661E+03	8.598460E-03	4.858744E-05
6.321616E+03	8.551283E-03	4.811941E-05
6.331571E+03	8.524746E-03	4.782196E-05
6.341527E+03	8.517955E-03	4.769223E-05
6.351482E+03	8.529549E-03	4.772546E-05
6.361437E+03	8.557548E-03	4.791420E-05
6.371392E+03	8.599880E-03	4.825107E-05
6.381348E+03	8.654135E-03	4.872731E-05
6.391303E+03	8.717807E-03	4.933382E-05
6.401258E+03	8.788291E-03	5.006099E-05
6.411214E+03	8.863384E-03	5.090125E-05
6.421169E+03	8.941109E-03	5.184728E-05
6.431124E+03	9.019362E-03	5.288657E-05
6.441080E+03	9.096865E-03	5.400914E-05
6.451035E+03	9.172181E-03	5.520325E-05
6.460990E+03	9.244086E-03	5.645753E-05
6.470945E+03	9.311875E-03	5.776306E-05
6.480901E+03	9.375066E-03	5.911167E-05
6.490856E+03	9.433595E-03	6.049743E-05
6.500811E+03	9.489079E-03	6.192514E-05
6.510767E+03	9.543863E-03	6.340511E-05
6.520722E+03	9.600675E-03	6.495130E-05
6.530677E+03	9.662699E-03	6.658230E-05
6.540633E+03	9.733644E-03	6.832216E-05
6.550588E+03	9.815830E-03	7.018715E-05
6.560543E+03	9.910854E-03	7.218975E-05
6.570498E+03	1.001856E-02	7.433059E-05
6.580454E+03	1.013750E-02	7.660056E-05
6.590409E+03	1.026493E-02	7.898008E-05
6.600364E+03	1.039655E-02	8.143599E-05
6.610320E+03	1.052709E-02	8.392501E-05
6.620275E+03	1.065124E-02	8.640057E-05
6.630230E+03	1.076279E-02	8.880607E-05
6.640186E+03	1.085619E-02	9.108666E-05
6.650141E+03	1.092686E-02	9.319325E-05
6.660096E+03	1.097053E-02	9.507652E-05
6.670051E+03	1.098455E-02	9.669990E-05
6.680007E+03	1.096724E-02	9.803372E-05
6.689962E+03	1.091849E-02	9.906255E-05
6.699917E+03	1.083903E-02	9.977882E-05
6.709873E+03	1.073103E-02	1.001891E-04
6.719828E+03	1.059713E-02	1.003062E-04
6.729783E+03	1.044105E-02	1.001552E-04
6.739739E+03	1.026661E-02	9.976419E-05
6.749694E+03	1.007829E-02	9.917040E-05
6.759649E+03	9.880516E-03	9.841300E-05
6.769604E+03	9.677546E-03	9.753181E-05
6.779560E+03	9.473861E-03	9.657125E-05
6.789515E+03	9.273401E-03	9.557240E-05
6.799470E+03	9.080165E-03	9.457886E-05
6.809426E+03	8.897675E-03	9.363093E-05
6.819381E+03	8.728934E-03	9.276490E-05
6.829336E+03	8.576868E-03	9.201733E-05
6.839292E+03	8.443845E-03	9.141976E-05
6.849247E+03	8.331812E-03	9.099978E-05
6.859202E+03	8.242149E-03	9.077920E-05
6.869157E+03	8.176258E-03	9.078018E-05
6.879113E+03	8.134498E-03	9.101336E-05
6.889068E+03	8.117223E-03	9.148902E-05
6.899023E+03	8.124139E-03	9.220975E-05
6.908979E+03	8.154419E-03	9.317151E-05
6.918934E+03	8.206654E-03	9.436287E-05
6.928889E+03	8.278797E-03	9.576421E-05
6.938845E+03	8.368153E-03	9.734738E-05
6.948800E+03	8.471536E-03	9.907746E-05
6.958755E+03	8.584691E-03	1.009059E-04
6.968710E+03	8.703527E-03	1.027847E-04
6.978666E+03	8.823159E-03	1.046558E-04
6.988621E+03	8.938774E-03	1.064606E-04
6.998576E+03	9.045715E-03	1.081415E-04
7.008532E+03	9.139912E-03	1.096476E-04
7.018487E+03	9.217591E-03	1.109310E-04
7.028442E+03	9.276173E-03	1.119577E-04
7.038398E+03	9.313692E-03	1.127016E-04
7.048353E+03	9.329554E-03	1.131532E-04
7.058308E+03	9.323822E-03	1.133114E-04
7.068263E+03	9.297857E-03	1.131915E-04
7.078219E+03	9.253635E-03	1.128168E-04
7.088174E+03	9.193760E-03	1.122187E-04
7.098129E+03	9.121271E-03	1.114346E-04
7.108085E+03	9.039275E-03	1.105031E-04
7.118040E+03	8.951460E-03	1.094700E-04
7.127995E+03	8.860837E-03	1.083734E-04
7.137951E+03	8.770312E-03	1.072501E-04
7.147906E+03	8.682381E-03	1.061316E-04
7.157861E+03	8.599213E-03	1.050458E-04
7.167817E+03	8.522224E-03	1.040110E-04
7.177772E+03	8.452072E-03	1.030361E-04
7.187727E+03	8.389182E-03	1.021272E-04
7.197682E+03	8.333087E-03	1.012792E-04
7.207638E+03	8.283382E-03	1.004878E-04
7.217593E+03	8.238591E-03	9.973572E-05
7.227548E+03	8.197706E-03	9.901128E-05
7.237504E+03	8.158910E-03	9.829320E-05
7.247459E+03	8.121147E-03	9.756953E-05
7.257414E+03	8.083017E-03	9.682432E-05
7.267370E+03	8.043601E-03	9.604759E-05
7.277325E+03	8.002366E-03	9.523411E-05
7.287280E+03	7.959209E-03	9.438387E-05
7.297235E+03	7.914436E-03	9.350176E-05
7.307191E+03	7.868528E-03	9.259469E-05
7.317146E+03	7.822406E-03	9.167470E-05
7.327101E+03	7.777116E-03	9.075509E-05
7.337057E+03	7.733718E-03	8.984912E-05
7.347012E+03	7.692615E-03	8.896222E-05
7.356967E+03	7.654851E-03	8.810715E-05
7.366923E+03	7.620266E-03	8.728258E-05
7.376878E+03	7.588827E-03	8.648865E-05
7.386833E+03	7.559913E-03	8.571885E-05
7.396788E+03	7.532650E-03	8.496395E-05
7.406744E+03	7.505625E-03	8.420886E-05
7.416699E+03	7.477992E-03	8.344517E-05
7.426654E+03	7.447829E-03	8.265273E-05
7.436610E+03	7.413509E-03	8.181514E-05
7.446565E+03	7.373641E-03	8.091898E-05
7.456520E+03	7.326711E-03	7.994984E-05
7.466476E+03	7.271743E-03	7.889899E-05
7.476431E+03	7.208082E-03	7.776076E-05
7.486386E+03	7.135652E-03	7.653581E-05
7.496341E+03	7.055343E-03	7.523519E-05
7.506297E+03	6.967953E-03	7.386876E-05
7.516252E+03	6.875489E-03	7.245892E-05
7.526207E+03	6.779815E-03	7.102618E-05
7.536163E+03	6.683036E-03	6.959307E-05
7.546118E+03	6.587823E-03	6.818749E-05
7.556073E+03	6.496282E-03	6.683091E-05
7.566029E+03	6.410556E-03	6.554469E-05
7.575984E+03	6.332439E-03	6.434611E-05
7.585939E+03	6.263875E-03	6.325353E-05
7.595894E+03	6.205498E-03	6.227177E-05
7.605850E+03	6.157886E-03	6.140490E-05
7.615805E+03	6.121540E-03	6.065615E-05
7.625760E+03	6.096561E-03	6.002477E-05
7.635716E+03	6.082612E-03	5.950570E-05
7.645671E+03	6.079417E-03	5.909466E-05
7.655626E+03	6.086123E-03	5.878192E-05
7.665582E+03	6.101776E-03	5.855710E-05
7.675537E+03	6.125357E-03	5.840950E-05
7.685492E+03	6.155299E-03	5.832363E-05
7.695447E+03	6.190201E-03	5.828597E-05
7.705403E+03	6.228224E-03	5.827944E-05
7.715358E+03	6.267874E-03	5.829063E-05
7.725313E+03	6.307596E-03	5.830608E-05
