#wls	flux	fluxerr
1.592848E+03	1.616364E-03	5.208224E-05
1.632669E+03	1.666235E-03	5.339675E-05
1.672491E+03	1.719473E-03	5.479382E-05
1.712312E+03	1.776469E-03	5.628321E-05
1.752133E+03	1.837245E-03	5.786273E-05
1.791954E+03	1.902562E-03	5.955307E-05
1.831775E+03	1.972252E-03	6.134536E-05
1.871597E+03	2.046884E-03	6.325352E-05
1.911418E+03	2.126649E-03	6.527923E-05
1.951239E+03	2.211917E-03	6.742928E-05
1.991060E+03	2.302855E-03	6.970389E-05
2.030881E+03	2.399804E-03	7.210815E-05
2.070703E+03	2.502897E-03	7.464038E-05
2.110524E+03	2.612430E-03	7.730347E-05
2.150345E+03	2.728283E-03	8.008761E-05
2.190166E+03	2.850682E-03	8.299292E-05
2.229987E+03	2.979618E-03	8.601224E-05
2.269809E+03	3.115605E-03	8.915328E-05
2.309630E+03	3.259298E-03	9.242688E-05
2.349451E+03	3.411083E-03	9.583534E-05
2.389272E+03	3.571835E-03	9.939400E-05
2.429093E+03	3.742124E-03	1.031084E-04
2.468915E+03	3.922396E-03	1.069799E-04
2.508736E+03	4.112917E-03	1.110040E-04
2.548557E+03	4.313569E-03	1.151652E-04
2.588378E+03	4.524397E-03	1.194523E-04
2.628199E+03	4.744777E-03	1.238360E-04
2.668021E+03	4.973585E-03	1.282747E-04
2.707842E+03	5.209543E-03	1.327238E-04
2.747663E+03	5.450406E-03	1.371156E-04
2.787484E+03	5.693320E-03	1.413702E-04
2.827305E+03	5.934641E-03	1.453918E-04
2.867127E+03	6.170104E-03	1.490745E-04
2.906948E+03	6.396609E-03	1.523463E-04
2.946769E+03	6.611904E-03	1.551593E-04
2.986590E+03	6.814421E-03	1.574853E-04
2.996546E+03	6.862778E-03	1.579855E-04
3.006501E+03	6.910332E-03	1.584560E-04
3.016456E+03	6.956654E-03	1.588873E-04
3.026411E+03	7.002118E-03	1.592880E-04
3.036367E+03	7.046455E-03	1.596522E-04
3.046322E+03	7.089544E-03	1.599776E-04
3.056277E+03	7.131437E-03	1.602655E-04
3.066233E+03	7.172165E-03	1.605169E-04
3.076188E+03	7.211457E-03	1.607262E-04
3.086143E+03	7.249497E-03	1.608977E-04
3.096099E+03	7.286013E-03	1.610257E-04
3.106054E+03	7.321036E-03	1.611113E-04
3.116009E+03	7.354586E-03	1.611554E-04
3.125964E+03	7.386544E-03	1.611557E-04
3.135920E+03	7.416637E-03	1.611068E-04
3.145875E+03	7.445185E-03	1.610160E-04
3.155830E+03	7.471776E-03	1.608749E-04
3.165786E+03	7.496584E-03	1.606878E-04
3.175741E+03	7.519491E-03	1.604526E-04
3.185696E+03	7.540386E-03	1.601675E-04
3.195652E+03	7.559167E-03	1.598311E-04
3.205607E+03	7.576010E-03	1.594474E-04
3.215562E+03	7.590685E-03	1.590124E-04
3.225517E+03	7.603110E-03	1.585249E-04
3.235473E+03	7.613343E-03	1.579867E-04
3.245428E+03	7.621448E-03	1.574000E-04
3.255383E+03	7.627242E-03	1.567615E-04
3.265339E+03	7.630809E-03	1.560736E-04
3.275294E+03	7.632124E-03	1.553366E-04
3.285249E+03	7.631281E-03	1.545529E-04
3.295205E+03	7.628162E-03	1.537210E-04
3.305160E+03	7.622778E-03	1.528417E-04
3.315115E+03	7.615374E-03	1.519206E-04
3.325070E+03	7.605750E-03	1.509545E-04
3.335026E+03	7.594057E-03	1.499468E-04
3.344981E+03	7.580440E-03	1.489013E-04
3.354936E+03	7.564733E-03	1.478153E-04
3.364892E+03	7.547183E-03	1.466942E-04
3.374847E+03	7.527627E-03	1.455355E-04
3.384802E+03	7.506114E-03	1.443409E-04
3.394758E+03	7.482775E-03	1.431134E-04
3.404713E+03	7.457551E-03	1.418525E-04
3.414668E+03	7.430477E-03	1.405596E-04
3.424623E+03	7.401412E-03	1.392327E-04
3.434579E+03	7.370505E-03	1.378751E-04
3.444534E+03	7.337736E-03	1.364872E-04
3.454489E+03	7.303032E-03	1.350683E-04
3.464445E+03	7.266527E-03	1.336215E-04
3.474400E+03	7.228226E-03	1.321474E-04
3.484355E+03	7.188274E-03	1.306495E-04
3.494311E+03	7.146863E-03	1.291317E-04
3.504266E+03	7.104103E-03	1.275965E-04
3.514221E+03	7.060166E-03	1.260475E-04
3.524176E+03	7.015238E-03	1.244886E-04
3.534132E+03	6.969513E-03	1.229234E-04
3.544087E+03	6.923272E-03	1.213572E-04
3.554042E+03	6.876880E-03	1.197966E-04
3.563998E+03	6.830705E-03	1.182481E-04
3.573953E+03	6.785202E-03	1.167196E-04
3.583908E+03	6.741002E-03	1.152217E-04
3.593864E+03	6.698577E-03	1.137619E-04
3.603819E+03	6.658624E-03	1.123516E-04
3.613774E+03	6.622141E-03	1.110068E-04
3.623729E+03	6.590027E-03	1.097413E-04
3.633685E+03	6.563344E-03	1.085713E-04
3.643640E+03	6.543188E-03	1.075130E-04
3.653595E+03	6.530744E-03	1.065838E-04
3.663551E+03	6.527171E-03	1.057997E-04
3.673506E+03	6.533599E-03	1.051763E-04
3.683461E+03	6.551417E-03	1.047322E-04
3.693417E+03	6.581749E-03	1.044816E-04
3.703372E+03	6.625969E-03	1.044420E-04
3.713327E+03	6.685350E-03	1.046287E-04
3.723282E+03	6.761223E-03	1.050572E-04
3.733238E+03	6.854860E-03	1.057417E-04
3.743193E+03	6.967512E-03	1.066953E-04
3.753148E+03	7.100499E-03	1.079317E-04
3.763104E+03	7.254970E-03	1.094613E-04
3.773059E+03	7.432029E-03	1.112934E-04
3.783014E+03	7.632532E-03	1.134331E-04
3.792970E+03	7.857386E-03	1.158858E-04
3.802925E+03	8.107024E-03	1.186496E-04
3.812880E+03	8.381757E-03	1.217205E-04
3.822835E+03	8.681322E-03	1.250863E-04
3.832791E+03	9.005221E-03	1.287314E-04
3.842746E+03	9.351834E-03	1.326246E-04
3.852701E+03	9.719190E-03	1.367305E-04
3.862657E+03	1.010431E-02	1.410004E-04
3.872612E+03	1.050308E-02	1.453716E-04
3.882567E+03	1.091057E-02	1.497716E-04
3.892523E+03	1.132095E-02	1.541184E-04
3.902478E+03	1.172725E-02	1.583169E-04
3.912433E+03	1.212168E-02	1.622644E-04
3.922388E+03	1.249612E-02	1.658575E-04
3.932344E+03	1.284248E-02	1.689965E-04
3.942299E+03	1.315287E-02	1.715885E-04
3.952254E+03	1.341985E-02	1.735496E-04
3.962210E+03	1.363763E-02	1.748207E-04
3.972165E+03	1.380157E-02	1.753598E-04
3.982120E+03	1.390885E-02	1.751499E-04
3.992076E+03	1.395859E-02	1.741995E-04
4.002031E+03	1.395200E-02	1.725433E-04
4.011986E+03	1.389225E-02	1.702396E-04
4.021941E+03	1.378422E-02	1.673655E-04
4.031897E+03	1.363429E-02	1.640145E-04
4.041852E+03	1.344968E-02	1.602866E-04
4.051807E+03	1.323839E-02	1.562883E-04
4.061763E+03	1.300853E-02	1.521234E-04
4.071718E+03	1.276804E-02	1.478901E-04
4.081673E+03	1.252410E-02	1.436743E-04
4.091629E+03	1.228323E-02	1.395515E-04
4.101584E+03	1.205122E-02	1.355856E-04
4.111539E+03	1.183252E-02	1.318234E-04
4.121494E+03	1.163057E-02	1.282985E-04
4.131450E+03	1.144844E-02	1.250387E-04
4.141405E+03	1.128818E-02	1.220600E-04
4.151360E+03	1.115152E-02	1.193738E-04
4.161316E+03	1.103975E-02	1.169860E-04
4.171271E+03	1.095356E-02	1.148960E-04
4.181226E+03	1.089335E-02	1.130999E-04
4.191182E+03	1.085932E-02	1.115916E-04
4.201137E+03	1.085091E-02	1.103572E-04
4.211092E+03	1.086742E-02	1.093819E-04
4.221047E+03	1.090788E-02	1.086485E-04
4.231003E+03	1.097028E-02	1.081300E-04
4.240958E+03	1.105226E-02	1.077970E-04
4.250913E+03	1.115146E-02	1.076212E-04
4.260869E+03	1.126417E-02	1.075624E-04
4.270824E+03	1.138647E-02	1.075800E-04
4.280779E+03	1.151407E-02	1.076317E-04
4.290735E+03	1.164247E-02	1.076750E-04
4.300690E+03	1.176687E-02	1.076665E-04
4.310645E+03	1.188241E-02	1.075639E-04
4.320601E+03	1.198368E-02	1.073223E-04
4.330556E+03	1.206545E-02	1.069000E-04
4.340511E+03	1.212338E-02	1.062654E-04
4.350466E+03	1.215350E-02	1.053913E-04
4.360422E+03	1.215372E-02	1.042682E-04
4.370377E+03	1.212480E-02	1.029113E-04
4.380332E+03	1.207253E-02	1.013777E-04
4.390288E+03	1.200806E-02	9.976638E-05
4.400243E+03	1.194421E-02	9.818630E-05
4.410198E+03	1.189346E-02	9.673911E-05
4.420154E+03	1.186806E-02	9.552000E-05
4.430109E+03	1.187910E-02	9.461065E-05
4.440064E+03	1.193643E-02	9.407965E-05
4.450019E+03	1.204886E-02	9.398438E-05
4.459975E+03	1.222401E-02	9.437063E-05
4.469930E+03	1.246574E-02	9.525349E-05
4.479885E+03	1.277608E-02	9.663344E-05
4.489841E+03	1.315631E-02	9.850531E-05
4.499796E+03	1.360589E-02	1.008507E-04
4.509751E+03	1.412275E-02	1.036403E-04
4.519707E+03	1.470286E-02	1.068322E-04
4.529662E+03	1.533937E-02	1.103654E-04
4.539617E+03	1.602244E-02	1.141605E-04
4.549572E+03	1.673915E-02	1.181190E-04
4.559528E+03	1.747241E-02	1.221175E-04
4.569483E+03	1.820144E-02	1.260118E-04
4.579438E+03	1.890286E-02	1.296452E-04
4.589394E+03	1.955454E-02	1.328755E-04
4.599349E+03	2.013391E-02	1.355629E-04
4.609304E+03	2.061902E-02	1.375768E-04
4.619260E+03	2.099256E-02	1.388220E-04
4.629215E+03	2.124060E-02	1.392288E-04
4.639170E+03	2.135346E-02	1.387571E-04
4.649125E+03	2.132878E-02	1.374155E-04
4.659081E+03	2.116898E-02	1.352423E-04
4.669036E+03	2.088183E-02	1.323083E-04
4.678991E+03	2.048055E-02	1.287156E-04
4.688947E+03	1.998211E-02	1.245861E-04
4.698902E+03	1.940564E-02	1.200509E-04
4.708857E+03	1.877298E-02	1.152532E-04
4.718813E+03	1.810561E-02	1.103293E-04
4.728768E+03	1.742476E-02	1.054097E-04
4.738723E+03	1.675004E-02	1.006113E-04
4.748678E+03	1.609922E-02	9.603657E-05
4.758634E+03	1.548726E-02	9.176849E-05
4.768589E+03	1.492507E-02	8.786411E-05
4.778544E+03	1.442271E-02	8.437429E-05
4.788500E+03	1.398804E-02	8.133586E-05
4.798455E+03	1.362579E-02	7.876725E-05
4.808410E+03	1.333818E-02	7.667183E-05
4.818366E+03	1.312559E-02	7.504248E-05
4.828321E+03	1.298687E-02	7.386378E-05
4.838276E+03	1.291986E-02	7.311551E-05
4.848231E+03	1.292135E-02	7.277240E-05
4.858187E+03	1.298768E-02	7.280740E-05
4.868142E+03	1.311449E-02	7.319049E-05
4.878097E+03	1.329627E-02	7.388599E-05
4.888053E+03	1.352655E-02	7.485385E-05
4.898008E+03	1.379731E-02	7.604618E-05
4.907963E+03	1.409824E-02	7.740353E-05
4.917919E+03	1.441511E-02	7.884595E-05
4.927874E+03	1.473069E-02	8.027836E-05
4.937829E+03	1.502617E-02	8.159845E-05
4.947784E+03	1.528243E-02	8.270352E-05
4.957740E+03	1.548087E-02	8.349504E-05
4.967695E+03	1.560569E-02	8.389070E-05
4.977650E+03	1.564817E-02	8.384708E-05
4.987606E+03	1.560536E-02	8.335191E-05
4.997561E+03	1.548046E-02	8.242589E-05
5.007516E+03	1.528484E-02	8.113265E-05
5.017472E+03	1.503428E-02	7.955837E-05
5.027427E+03	1.474618E-02	7.779671E-05
5.037382E+03	1.443792E-02	7.594035E-05
5.047337E+03	1.412578E-02	7.407485E-05
5.057293E+03	1.382393E-02	7.227397E-05
5.067248E+03	1.354331E-02	7.059381E-05
5.077203E+03	1.329268E-02	6.907844E-05
5.087159E+03	1.307788E-02	6.775642E-05
5.097114E+03	1.290199E-02	6.664165E-05
5.107069E+03	1.276659E-02	6.574024E-05
5.117025E+03	1.267242E-02	6.505386E-05
5.126980E+03	1.261978E-02	6.458194E-05
5.136935E+03	1.260895E-02	6.432379E-05
5.146890E+03	1.264126E-02	6.428400E-05
5.156846E+03	1.271911E-02	6.447265E-05
5.166801E+03	1.284522E-02	6.490111E-05
5.176756E+03	1.302265E-02	6.558248E-05
5.186712E+03	1.325388E-02	6.652655E-05
5.196667E+03	1.354065E-02	6.773938E-05
5.206622E+03	1.388308E-02	6.921888E-05
5.216578E+03	1.427954E-02	7.095408E-05
5.226533E+03	1.472591E-02	7.292204E-05
5.236488E+03	1.521580E-02	7.508878E-05
5.246443E+03	1.573978E-02	7.740597E-05
5.256399E+03	1.628538E-02	7.981108E-05
5.266354E+03	1.683790E-02	8.223152E-05
5.276309E+03	1.738096E-02	8.458778E-05
5.286265E+03	1.789680E-02	8.679478E-05
5.296220E+03	1.836724E-02	8.876673E-05
5.306175E+03	1.877541E-02	9.042547E-05
5.316131E+03	1.910615E-02	9.170218E-05
5.326086E+03	1.934650E-02	9.253965E-05
5.336041E+03	1.948713E-02	9.289877E-05
5.345996E+03	1.952280E-02	9.276033E-05
5.355952E+03	1.945308E-02	9.212820E-05
5.365907E+03	1.928343E-02	9.103382E-05
5.375862E+03	1.902455E-02	8.953274E-05
5.385818E+03	1.869294E-02	8.770689E-05
5.395773E+03	1.831180E-02	8.566833E-05
5.405728E+03	1.790769E-02	8.354323E-05
5.415684E+03	1.750955E-02	8.146740E-05
5.425639E+03	1.714793E-02	7.958245E-05
5.435594E+03	1.685299E-02	7.802685E-05
5.445549E+03	1.665235E-02	7.692613E-05
5.455505E+03	1.657192E-02	7.639727E-05
5.465460E+03	1.663146E-02	7.652826E-05
5.475415E+03	1.683263E-02	7.732398E-05
5.485371E+03	1.714015E-02	7.861920E-05
5.495326E+03	1.750337E-02	8.017935E-05
5.505281E+03	1.786688E-02	8.174961E-05
5.515237E+03	1.817901E-02	8.309340E-05
5.525192E+03	1.839271E-02	8.399593E-05
5.535147E+03	1.847031E-02	8.428570E-05
5.545102E+03	1.839243E-02	8.387457E-05
5.555058E+03	1.815470E-02	8.274278E-05
5.565013E+03	1.776599E-02	8.093051E-05
5.574968E+03	1.724622E-02	7.852801E-05
5.584924E+03	1.662319E-02	7.566112E-05
5.594879E+03	1.592892E-02	7.247470E-05
5.604834E+03	1.519684E-02	6.911994E-05
5.614790E+03	1.445915E-02	6.574238E-05
5.624745E+03	1.374455E-02	6.247162E-05
5.634700E+03	1.307764E-02	5.941871E-05
5.644655E+03	1.247872E-02	5.667511E-05
5.654611E+03	1.196304E-02	5.430931E-05
5.664566E+03	1.154104E-02	5.236793E-05
5.674521E+03	1.121984E-02	5.088244E-05
5.684477E+03	1.100340E-02	4.986983E-05
5.694432E+03	1.089281E-02	4.933385E-05
5.704387E+03	1.088769E-02	4.927157E-05
5.714343E+03	1.098706E-02	4.967697E-05
5.724298E+03	1.118917E-02	5.054043E-05
5.734253E+03	1.149225E-02	5.185197E-05
5.744209E+03	1.189325E-02	5.359546E-05
5.754164E+03	1.238766E-02	5.574817E-05
5.764119E+03	1.296861E-02	5.827640E-05
5.774074E+03	1.362631E-02	6.113325E-05
5.784030E+03	1.434663E-02	6.425244E-05
5.793985E+03	1.511176E-02	6.755134E-05
5.803940E+03	1.590034E-02	7.093206E-05
5.813896E+03	1.668873E-02	7.428709E-05
5.823851E+03	1.745257E-02	7.750677E-05
5.833806E+03	1.816732E-02	8.048180E-05
5.843762E+03	1.881143E-02	8.311720E-05
5.853717E+03	1.936633E-02	8.533262E-05
5.863672E+03	1.981820E-02	8.706976E-05
5.873627E+03	2.015837E-02	8.829416E-05
5.883583E+03	2.038332E-02	8.899465E-05
5.893538E+03	2.049438E-02	8.918193E-05
5.903493E+03	2.049596E-02	8.888043E-05
5.913449E+03	2.039680E-02	8.813344E-05
5.923404E+03	2.020767E-02	8.699280E-05
5.933359E+03	1.994029E-02	8.551412E-05
5.943315E+03	1.960729E-02	8.375634E-05
5.953270E+03	1.922250E-02	8.178281E-05
5.963225E+03	1.879953E-02	7.965516E-05
5.973180E+03	1.835120E-02	7.743083E-05
5.983136E+03	1.789077E-02	7.516818E-05
5.993091E+03	1.742977E-02	7.291737E-05
6.003046E+03	1.697919E-02	7.072549E-05
6.013002E+03	1.654814E-02	6.863098E-05
6.022957E+03	1.614451E-02	6.666644E-05
6.032912E+03	1.577438E-02	6.485651E-05
6.042868E+03	1.544214E-02	6.321842E-05
6.052823E+03	1.514997E-02	6.176008E-05
6.062778E+03	1.489910E-02	6.048539E-05
6.072733E+03	1.468951E-02	5.939319E-05
6.082689E+03	1.452012E-02	5.847816E-05
6.092644E+03	1.438890E-02	5.773127E-05
6.102599E+03	1.429348E-02	5.714247E-05
6.112555E+03	1.422976E-02	5.669506E-05
6.122510E+03	1.419246E-02	5.636808E-05
6.132465E+03	1.417573E-02	5.613868E-05
6.142421E+03	1.417192E-02	5.597744E-05
6.152376E+03	1.417190E-02	5.584944E-05
6.162331E+03	1.416522E-02	5.571490E-05
6.172286E+03	1.413778E-02	5.552012E-05
6.182242E+03	1.407537E-02	5.521057E-05
6.192197E+03	1.396467E-02	5.473430E-05
6.202152E+03	1.379348E-02	5.404349E-05
6.212108E+03	1.355680E-02	5.311798E-05
6.222063E+03	1.326201E-02	5.198556E-05
6.232018E+03	1.292811E-02	5.071902E-05
6.241974E+03	1.257976E-02	4.941326E-05
6.251929E+03	1.224036E-02	4.815840E-05
6.261884E+03	1.192502E-02	4.701256E-05
6.271839E+03	1.164483E-02	4.601862E-05
6.281795E+03	1.140830E-02	4.520990E-05
6.291750E+03	1.121916E-02	4.460158E-05
6.301705E+03	1.107973E-02	4.420373E-05
6.311661E+03	1.098965E-02	4.401624E-05
6.321616E+03	1.094655E-02	4.403150E-05
6.331571E+03	1.094726E-02	4.423877E-05
6.341527E+03	1.098714E-02	4.462159E-05
6.351482E+03	1.106005E-02	4.515736E-05
6.361437E+03	1.115929E-02	4.582092E-05
6.371392E+03	1.127822E-02	4.658706E-05
6.381348E+03	1.140975E-02	4.742813E-05
6.391303E+03	1.154694E-02	4.831651E-05
6.401258E+03	1.168368E-02	4.922695E-05
6.411214E+03	1.181490E-02	5.013727E-05
6.421169E+03	1.193654E-02	5.102886E-05
6.431124E+03	1.204547E-02	5.188661E-05
6.441080E+03	1.214034E-02	5.270254E-05
6.451035E+03	1.222059E-02	5.347186E-05
6.460990E+03	1.228618E-02	5.419185E-05
6.470945E+03	1.233710E-02	5.485993E-05
6.480901E+03	1.237285E-02	5.547115E-05
6.490856E+03	1.239241E-02	5.601828E-05
6.500811E+03	1.239420E-02	5.649110E-05
6.510767E+03	1.238410E-02	5.691367E-05
6.520722E+03	1.237573E-02	5.734666E-05
6.530677E+03	1.238221E-02	5.785049E-05
6.540633E+03	1.241387E-02	5.847463E-05
6.550588E+03	1.247810E-02	5.925612E-05
6.560543E+03	1.257694E-02	6.020750E-05
6.570498E+03	1.270968E-02	6.132842E-05
6.580454E+03	1.287256E-02	6.260364E-05
6.590409E+03	1.305944E-02	6.400547E-05
6.600364E+03	1.326152E-02	6.549220E-05
6.610320E+03	1.346894E-02	6.701554E-05
6.620275E+03	1.367129E-02	6.852288E-05
6.630230E+03	1.385736E-02	6.995600E-05
6.640186E+03	1.401753E-02	7.126329E-05
6.650141E+03	1.414335E-02	7.239769E-05
6.660096E+03	1.422837E-02	7.332156E-05
6.670051E+03	1.426841E-02	7.400813E-05
6.680007E+03	1.426122E-02	7.444051E-05
6.689962E+03	1.420691E-02	7.461396E-05
6.699917E+03	1.410736E-02	7.453355E-05
6.709873E+03	1.396635E-02	7.421480E-05
6.719828E+03	1.378840E-02	7.367796E-05
6.729783E+03	1.357913E-02	7.295001E-05
6.739739E+03	1.334480E-02	7.206217E-05
6.749694E+03	1.309147E-02	7.104552E-05
6.759649E+03	1.282546E-02	6.993343E-05
6.769604E+03	1.255303E-02	6.875967E-05
6.779560E+03	1.227952E-02	6.755373E-05
6.789515E+03	1.201086E-02	6.634886E-05
6.799470E+03	1.175204E-02	6.517367E-05
6.809426E+03	1.150722E-02	6.405263E-05
6.819381E+03	1.128097E-02	6.301270E-05
6.829336E+03	1.107666E-02	6.207450E-05
6.839292E+03	1.089739E-02	6.125721E-05
6.849247E+03	1.074581E-02	6.057750E-05
6.859202E+03	1.062399E-02	6.004890E-05
6.869157E+03	1.053375E-02	5.968332E-05
6.879113E+03	1.047579E-02	5.948628E-05
6.889068E+03	1.045099E-02	5.946418E-05
6.899023E+03	1.045885E-02	5.961535E-05
6.908979E+03	1.049897E-02	5.993850E-05
6.918934E+03	1.056931E-02	6.042257E-05
6.928889E+03	1.066775E-02	6.105591E-05
6.938845E+03	1.079041E-02	6.181662E-05
6.948800E+03	1.093279E-02	6.267880E-05
6.958755E+03	1.108925E-02	6.360996E-05
6.968710E+03	1.125323E-02	6.457203E-05
6.978666E+03	1.141801E-02	6.552608E-05
6.988621E+03	1.157582E-02	6.642705E-05
6.998576E+03	1.171962E-02	6.723411E-05
7.008532E+03	1.184320E-02	6.791131E-05
7.018487E+03	1.194116E-02	6.842772E-05
7.028442E+03	1.200926E-02	6.875920E-05
7.038398E+03	1.204510E-02	6.889236E-05
7.048353E+03	1.204818E-02	6.882508E-05
7.058308E+03	1.201915E-02	6.856199E-05
7.068263E+03	1.196039E-02	6.811779E-05
7.078219E+03	1.187556E-02	6.751451E-05
7.088174E+03	1.176949E-02	6.678095E-05
7.098129E+03	1.164683E-02	6.594471E-05
7.108085E+03	1.151352E-02	6.504064E-05
7.118040E+03	1.137452E-02	6.409786E-05
7.127995E+03	1.123503E-02	6.314650E-05
7.137951E+03	1.109952E-02	6.221237E-05
7.147906E+03	1.097176E-02	6.131717E-05
7.157861E+03	1.085418E-02	6.047468E-05
7.167817E+03	1.074878E-02	5.969627E-05
7.177772E+03	1.065650E-02	5.898707E-05
7.187727E+03	1.057694E-02	5.834478E-05
7.197682E+03	1.050913E-02	5.776411E-05
7.207638E+03	1.045175E-02	5.723759E-05
7.217593E+03	1.040233E-02	5.675185E-05
7.227548E+03	1.035836E-02	5.629331E-05
7.237504E+03	1.031749E-02	5.584953E-05
7.247459E+03	1.027711E-02	5.540689E-05
7.257414E+03	1.023521E-02	5.495522E-05
7.267370E+03	1.019082E-02	5.449003E-05
7.277325E+03	1.014261E-02	5.400506E-05
7.287280E+03	1.009133E-02	5.350532E-05
7.297235E+03	1.003735E-02	5.299358E-05
7.307191E+03	9.982477E-03	5.248028E-05
7.317146E+03	9.928361E-03	5.197477E-05
7.327101E+03	9.877234E-03	5.148937E-05
7.337057E+03	9.830831E-03	5.103359E-05
7.347012E+03	9.790260E-03	5.061358E-05
7.356967E+03	9.757168E-03	5.023818E-05
7.366923E+03	9.731332E-03	4.990652E-05
7.376878E+03	9.712209E-03	4.961614E-05
7.386833E+03	9.699683E-03	4.936684E-05
7.396788E+03	9.691270E-03	4.914644E-05
7.406744E+03	9.685474E-03	4.894797E-05
7.416699E+03	9.679778E-03	4.875945E-05
7.426654E+03	9.670441E-03	4.856289E-05
7.436610E+03	9.654003E-03	4.834197E-05
7.446565E+03	9.627555E-03	4.808324E-05
7.456520E+03	9.587969E-03	4.777214E-05
7.466476E+03	9.533147E-03	4.739867E-05
7.476431E+03	9.461895E-03	4.695705E-05
7.486386E+03	9.374157E-03	4.644706E-05
7.496341E+03	9.271380E-03	4.587579E-05
7.506297E+03	9.156203E-03	4.525607E-05
7.516252E+03	9.031924E-03	4.460382E-05
7.526207E+03	8.902974E-03	4.394045E-05
7.536163E+03	8.773266E-03	4.328472E-05
7.546118E+03	8.646734E-03	4.265546E-05
7.556073E+03	8.526255E-03	4.206629E-05
7.566029E+03	8.414386E-03	4.152934E-05
7.575984E+03	8.313814E-03	4.105744E-05
7.585939E+03	8.226807E-03	4.066146E-05
7.595894E+03	8.154889E-03	4.034877E-05
7.605850E+03	8.099180E-03	4.012485E-05
7.615805E+03	8.060410E-03	3.999340E-05
7.625760E+03	8.039172E-03	3.995759E-05
7.635716E+03	8.034661E-03	4.001380E-05
7.645671E+03	8.046002E-03	4.015813E-05
7.655626E+03	8.071784E-03	4.038409E-05
7.665582E+03	8.109992E-03	4.068225E-05
7.675537E+03	8.158764E-03	4.104388E-05
7.685492E+03	8.215751E-03	4.145782E-05
7.695447E+03	8.278371E-03	4.191168E-05
7.705403E+03	8.343924E-03	4.239231E-05
7.715358E+03	8.409765E-03	4.288675E-05
7.725313E+03	8.473532E-03	4.338326E-05
