#wls	flux	fluxerr
1.592848E+03	7.913050E-04	1.223635E-04
1.632669E+03	8.121292E-04	1.249321E-04
1.672491E+03	8.340704E-04	1.276228E-04
1.712312E+03	8.570186E-04	1.304148E-04
1.752133E+03	8.811843E-04	1.333358E-04
1.791954E+03	9.064469E-04	1.363627E-04
1.831775E+03	9.331223E-04	1.395381E-04
1.871597E+03	9.611909E-04	1.428535E-04
1.911418E+03	9.907365E-04	1.463153E-04
1.951239E+03	1.021835E-03	1.499284E-04
1.991060E+03	1.054666E-03	1.537123E-04
2.030881E+03	1.089520E-03	1.577013E-04
2.070703E+03	1.126321E-03	1.618760E-04
2.110524E+03	1.165564E-03	1.662981E-04
2.150345E+03	1.207492E-03	1.709915E-04
2.190166E+03	1.252440E-03	1.759912E-04
2.229987E+03	1.300831E-03	1.813432E-04
2.269809E+03	1.352928E-03	1.870682E-04
2.309630E+03	1.408936E-03	1.931778E-04
2.349451E+03	1.469116E-03	1.996892E-04
2.389272E+03	1.532914E-03	2.065084E-04
2.429093E+03	1.600292E-03	2.136119E-04
2.468915E+03	1.670497E-03	2.208814E-04
2.508736E+03	1.743265E-03	2.282660E-04
2.548557E+03	1.817722E-03	2.356364E-04
2.588378E+03	1.893217E-03	2.428963E-04
2.628199E+03	1.968834E-03	2.499188E-04
2.668021E+03	2.043738E-03	2.565921E-04
2.707842E+03	2.116370E-03	2.627194E-04
2.747663E+03	2.185720E-03	2.681800E-04
2.787484E+03	2.250309E-03	2.728027E-04
2.827305E+03	2.308667E-03	2.764267E-04
2.867127E+03	2.359363E-03	2.789058E-04
2.906948E+03	2.401425E-03	2.801567E-04
2.946769E+03	2.434025E-03	2.801206E-04
2.986590E+03	2.456593E-03	2.787746E-04
2.996546E+03	2.460703E-03	2.782428E-04
3.006501E+03	2.464144E-03	2.776280E-04
3.016456E+03	2.466889E-03	2.769279E-04
3.026411E+03	2.469082E-03	2.761595E-04
3.036367E+03	2.470609E-03	2.753108E-04
3.046322E+03	2.471529E-03	2.743891E-04
3.056277E+03	2.471734E-03	2.733833E-04
3.066233E+03	2.471443E-03	2.723182E-04
3.076188E+03	2.470470E-03	2.711742E-04
3.086143E+03	2.468872E-03	2.699584E-04
3.096099E+03	2.466706E-03	2.686777E-04
3.106054E+03	2.463949E-03	2.673303E-04
3.116009E+03	2.460655E-03	2.659230E-04
3.125964E+03	2.456733E-03	2.644466E-04
3.135920E+03	2.452311E-03	2.629157E-04
3.145875E+03	2.447372E-03	2.613290E-04
3.155830E+03	2.441969E-03	2.596930E-04
3.165786E+03	2.436022E-03	2.579998E-04
3.175741E+03	2.429589E-03	2.562562E-04
3.185696E+03	2.422726E-03	2.544689E-04
3.195652E+03	2.415425E-03	2.526376E-04
3.205607E+03	2.407745E-03	2.507689E-04
3.215562E+03	2.399682E-03	2.488632E-04
3.225517E+03	2.391295E-03	2.469270E-04
3.235473E+03	2.382584E-03	2.449608E-04
3.245428E+03	2.373555E-03	2.429657E-04
3.255383E+03	2.364270E-03	2.409485E-04
3.265339E+03	2.354739E-03	2.389107E-04
3.275294E+03	2.344974E-03	2.368539E-04
3.285249E+03	2.335097E-03	2.347905E-04
3.295205E+03	2.325070E-03	2.327171E-04
3.305160E+03	2.314916E-03	2.306363E-04
3.315115E+03	2.304659E-03	2.285507E-04
3.325070E+03	2.294424E-03	2.264727E-04
3.335026E+03	2.284146E-03	2.243960E-04
3.344981E+03	2.273906E-03	2.223288E-04
3.354936E+03	2.263744E-03	2.202748E-04
3.364892E+03	2.253658E-03	2.182339E-04
3.374847E+03	2.243698E-03	2.162107E-04
3.384802E+03	2.233957E-03	2.142143E-04
3.394758E+03	2.224371E-03	2.122380E-04
3.404713E+03	2.215084E-03	2.102954E-04
3.414668E+03	2.206045E-03	2.083816E-04
3.424623E+03	2.197371E-03	2.065069E-04
3.434579E+03	2.189032E-03	2.046682E-04
3.444534E+03	2.181151E-03	2.028766E-04
3.454489E+03	2.173719E-03	2.011306E-04
3.464445E+03	2.166837E-03	1.994388E-04
3.474400E+03	2.160514E-03	1.978013E-04
3.484355E+03	2.154866E-03	1.962280E-04
3.494311E+03	2.149920E-03	1.947202E-04
3.504266E+03	2.145775E-03	1.932860E-04
3.514221E+03	2.142505E-03	1.919309E-04
3.524176E+03	2.140193E-03	1.906609E-04
3.534132E+03	2.138958E-03	1.894852E-04
3.544087E+03	2.138833E-03	1.884051E-04
3.554042E+03	2.139948E-03	1.874303E-04
3.563998E+03	2.142434E-03	1.865705E-04
3.573953E+03	2.146393E-03	1.858325E-04
3.583908E+03	2.151930E-03	1.852228E-04
3.593864E+03	2.159147E-03	1.847481E-04
3.603819E+03	2.168176E-03	1.844169E-04
3.613774E+03	2.179145E-03	1.842371E-04
3.623729E+03	2.192101E-03	1.842099E-04
3.633685E+03	2.207198E-03	1.843449E-04
3.643640E+03	2.224509E-03	1.846450E-04
3.653595E+03	2.244213E-03	1.851212E-04
3.663551E+03	2.266403E-03	1.857777E-04
3.673506E+03	2.291198E-03	1.866201E-04
3.683461E+03	2.318739E-03	1.876556E-04
3.693417E+03	2.349133E-03	1.888885E-04
3.703372E+03	2.382530E-03	1.903263E-04
3.713327E+03	2.418994E-03	1.919691E-04
3.723282E+03	2.458653E-03	1.938222E-04
3.733238E+03	2.501593E-03	1.958871E-04
3.743193E+03	2.547908E-03	1.981658E-04
3.753148E+03	2.597616E-03	2.006541E-04
3.763104E+03	2.650761E-03	2.033501E-04
3.773059E+03	2.707331E-03	2.062469E-04
3.783014E+03	2.767304E-03	2.093374E-04
3.792970E+03	2.830562E-03	2.126071E-04
3.802925E+03	2.897056E-03	2.160468E-04
3.812880E+03	2.966544E-03	2.196333E-04
3.822835E+03	3.038845E-03	2.233483E-04
3.832791E+03	3.113632E-03	2.271630E-04
3.842746E+03	3.190639E-03	2.310543E-04
3.852701E+03	3.269387E-03	2.349835E-04
3.862657E+03	3.349423E-03	2.389157E-04
3.872612E+03	3.430274E-03	2.428149E-04
3.882567E+03	3.511313E-03	2.466357E-04
3.892523E+03	3.591931E-03	2.503351E-04
3.902478E+03	3.671483E-03	2.538691E-04
3.912433E+03	3.749228E-03	2.571885E-04
3.922388E+03	3.824520E-03	2.602521E-04
3.932344E+03	3.896648E-03	2.630161E-04
3.942299E+03	3.964884E-03	2.654367E-04
3.952254E+03	4.028660E-03	2.674827E-04
3.962210E+03	4.087383E-03	2.691223E-04
3.972165E+03	4.140584E-03	2.703333E-04
3.982120E+03	4.187810E-03	2.710957E-04
3.992076E+03	4.228792E-03	2.714021E-04
4.002031E+03	4.263335E-03	2.712505E-04
4.011986E+03	4.291376E-03	2.706480E-04
4.021941E+03	4.313049E-03	2.696137E-04
4.031897E+03	4.328456E-03	2.681649E-04
4.041852E+03	4.337981E-03	2.663356E-04
4.051807E+03	4.341985E-03	2.641580E-04
4.061763E+03	4.341019E-03	2.616745E-04
4.071718E+03	4.335647E-03	2.589276E-04
4.081673E+03	4.326480E-03	2.559609E-04
4.091629E+03	4.314273E-03	2.528252E-04
4.101584E+03	4.299692E-03	2.495645E-04
4.111539E+03	4.283436E-03	2.462234E-04
4.121494E+03	4.266213E-03	2.428450E-04
4.131450E+03	4.248719E-03	2.394705E-04
4.141405E+03	4.231554E-03	2.361341E-04
4.151360E+03	4.215333E-03	2.328694E-04
4.161316E+03	4.200541E-03	2.297018E-04
4.171271E+03	4.187605E-03	2.266521E-04
4.181226E+03	4.176992E-03	2.237425E-04
4.191182E+03	4.168998E-03	2.209851E-04
4.201137E+03	4.163841E-03	2.183872E-04
4.211092E+03	4.161757E-03	2.159567E-04
4.221047E+03	4.162794E-03	2.136911E-04
4.231003E+03	4.167070E-03	2.115916E-04
4.240958E+03	4.174557E-03	2.096517E-04
4.250913E+03	4.185191E-03	2.078633E-04
4.260869E+03	4.198900E-03	2.062180E-04
4.270824E+03	4.215500E-03	2.047021E-04
4.280779E+03	4.234868E-03	2.033055E-04
4.290735E+03	4.256750E-03	2.020119E-04
4.300690E+03	4.280996E-03	2.008107E-04
4.310645E+03	4.307407E-03	1.996893E-04
4.320601E+03	4.335827E-03	1.986376E-04
4.330556E+03	4.366077E-03	1.976448E-04
4.340511E+03	4.398129E-03	1.967074E-04
4.350466E+03	4.432037E-03	1.958255E-04
4.360422E+03	4.468077E-03	1.950088E-04
4.370377E+03	4.506565E-03	1.942684E-04
4.380332E+03	4.547996E-03	1.936222E-04
4.390288E+03	4.593133E-03	1.930985E-04
4.400243E+03	4.642677E-03	1.927215E-04
4.410198E+03	4.697479E-03	1.925202E-04
4.420154E+03	4.758400E-03	1.925222E-04
4.430109E+03	4.826191E-03	1.927492E-04
4.440064E+03	4.901614E-03	1.932220E-04
4.450019E+03	4.985331E-03	1.939560E-04
4.459975E+03	5.077738E-03	1.949551E-04
4.469930E+03	5.179224E-03	1.962227E-04
4.479885E+03	5.289795E-03	1.977470E-04
4.489841E+03	5.409338E-03	1.995125E-04
4.499796E+03	5.537439E-03	2.014929E-04
4.509751E+03	5.673260E-03	2.036482E-04
4.519707E+03	5.815795E-03	2.059343E-04
4.529662E+03	5.963603E-03	2.082941E-04
4.539617E+03	6.114950E-03	2.106638E-04
4.549572E+03	6.267732E-03	2.129703E-04
4.559528E+03	6.419601E-03	2.151368E-04
4.569483E+03	6.567937E-03	2.170819E-04
4.579438E+03	6.710006E-03	2.187257E-04
4.589394E+03	6.843010E-03	2.199908E-04
4.599349E+03	6.964135E-03	2.208046E-04
4.609304E+03	7.070781E-03	2.211057E-04
4.619260E+03	7.160643E-03	2.208461E-04
4.629215E+03	7.231857E-03	2.199946E-04
4.639170E+03	7.282883E-03	2.185324E-04
4.649125E+03	7.312928E-03	2.164642E-04
4.659081E+03	7.321774E-03	2.138124E-04
4.669036E+03	7.309910E-03	2.106188E-04
4.678991E+03	7.278180E-03	2.069337E-04
4.688947E+03	7.228209E-03	2.028269E-04
4.698902E+03	7.161863E-03	1.983715E-04
4.708857E+03	7.081541E-03	1.936514E-04
4.718813E+03	6.989884E-03	1.887527E-04
4.728768E+03	6.889850E-03	1.837656E-04
4.738723E+03	6.784372E-03	1.787748E-04
4.748678E+03	6.676502E-03	1.738639E-04
4.758634E+03	6.569265E-03	1.691117E-04
4.768589E+03	6.465531E-03	1.645890E-04
4.778544E+03	6.367970E-03	1.603585E-04
4.788500E+03	6.278878E-03	1.564708E-04
4.798455E+03	6.200261E-03	1.529673E-04
4.808410E+03	6.133907E-03	1.498826E-04
4.818366E+03	6.081138E-03	1.472391E-04
4.828321E+03	6.042810E-03	1.450476E-04
4.838276E+03	6.019527E-03	1.433120E-04
4.848231E+03	6.011271E-03	1.420198E-04
4.858187E+03	6.017840E-03	1.411554E-04
4.868142E+03	6.038539E-03	1.406926E-04
4.878097E+03	6.072282E-03	1.405977E-04
4.888053E+03	6.117586E-03	1.408293E-04
4.898008E+03	6.172663E-03	1.413403E-04
4.907963E+03	6.235254E-03	1.420745E-04
4.917919E+03	6.302896E-03	1.429723E-04
4.927874E+03	6.372827E-03	1.439685E-04
4.937829E+03	6.442198E-03	1.449973E-04
4.947784E+03	6.508060E-03	1.459910E-04
4.957740E+03	6.567521E-03	1.468842E-04
4.967695E+03	6.618142E-03	1.476217E-04
4.977650E+03	6.657723E-03	1.481541E-04
4.987606E+03	6.684667E-03	1.484451E-04
4.997561E+03	6.698043E-03	1.484731E-04
5.007516E+03	6.697675E-03	1.482328E-04
5.017472E+03	6.684025E-03	1.477328E-04
5.027427E+03	6.658114E-03	1.469937E-04
5.037382E+03	6.621651E-03	1.460507E-04
5.047337E+03	6.576671E-03	1.449461E-04
5.057293E+03	6.525431E-03	1.437269E-04
5.067248E+03	6.470440E-03	1.424455E-04
5.077203E+03	6.414147E-03	1.411532E-04
5.087159E+03	6.358919E-03	1.398992E-04
5.097114E+03	6.306900E-03	1.387283E-04
5.107069E+03	6.260209E-03	1.376847E-04
5.117025E+03	6.220428E-03	1.368011E-04
5.126980E+03	6.189221E-03	1.361121E-04
5.136935E+03	6.167896E-03	1.356448E-04
5.146890E+03	6.157471E-03	1.354199E-04
5.156846E+03	6.158825E-03	1.354556E-04
5.166801E+03	6.172670E-03	1.357660E-04
5.176756E+03	6.199326E-03	1.363573E-04
5.186712E+03	6.239055E-03	1.372340E-04
5.196667E+03	6.291794E-03	1.383938E-04
5.206622E+03	6.357212E-03	1.398284E-04
5.216578E+03	6.434606E-03	1.415215E-04
5.226533E+03	6.523066E-03	1.434521E-04
5.236488E+03	6.621160E-03	1.455878E-04
5.246443E+03	6.727348E-03	1.478941E-04
5.256399E+03	6.839508E-03	1.503233E-04
5.266354E+03	6.955413E-03	1.528259E-04
5.276309E+03	7.072510E-03	1.553451E-04
5.286265E+03	7.187935E-03	1.578175E-04
5.296220E+03	7.299027E-03	1.601844E-04
5.306175E+03	7.402890E-03	1.623821E-04
5.316131E+03	7.496934E-03	1.643540E-04
5.326086E+03	7.578971E-03	1.660523E-04
5.336041E+03	7.647128E-03	1.674368E-04
5.345996E+03	7.700174E-03	1.684814E-04
5.355952E+03	7.737480E-03	1.691734E-04
5.365907E+03	7.759306E-03	1.695198E-04
5.375862E+03	7.766487E-03	1.695403E-04
5.385818E+03	7.760638E-03	1.692717E-04
5.395773E+03	7.743955E-03	1.687634E-04
5.405728E+03	7.719053E-03	1.680739E-04
5.415684E+03	7.688685E-03	1.672645E-04
5.425639E+03	7.655541E-03	1.663951E-04
5.435594E+03	7.622133E-03	1.655214E-04
5.445549E+03	7.590198E-03	1.646822E-04
5.455505E+03	7.560765E-03	1.639007E-04
5.465460E+03	7.533585E-03	1.631725E-04
5.475415E+03	7.507460E-03	1.624727E-04
5.485371E+03	7.479693E-03	1.617439E-04
5.495326E+03	7.446693E-03	1.609091E-04
5.505281E+03	7.404589E-03	1.598837E-04
5.515237E+03	7.349367E-03	1.585793E-04
5.525192E+03	7.277491E-03	1.569184E-04
5.535147E+03	7.186554E-03	1.548481E-04
5.545102E+03	7.075168E-03	1.523376E-04
5.555058E+03	6.943448E-03	1.493887E-04
5.565013E+03	6.792969E-03	1.460348E-04
5.574968E+03	6.626658E-03	1.423385E-04
5.584924E+03	6.448542E-03	1.383861E-04
5.594879E+03	6.263435E-03	1.342809E-04
5.604834E+03	6.076595E-03	1.301353E-04
5.614790E+03	5.893373E-03	1.260637E-04
5.624745E+03	5.718936E-03	1.221761E-04
5.634700E+03	5.558062E-03	1.185736E-04
5.644655E+03	5.415037E-03	1.153466E-04
5.654611E+03	5.293437E-03	1.125694E-04
5.664566E+03	5.196239E-03	1.103031E-04
5.674521E+03	5.126084E-03	1.086007E-04
5.684477E+03	5.084782E-03	1.074971E-04
5.694432E+03	5.074055E-03	1.070242E-04
5.704387E+03	5.094948E-03	1.071990E-04
5.714343E+03	5.148515E-03	1.080377E-04
5.724298E+03	5.235192E-03	1.095426E-04
5.734253E+03	5.355426E-03	1.117155E-04
5.744209E+03	5.509102E-03	1.145454E-04
5.754164E+03	5.695633E-03	1.180109E-04
5.764119E+03	5.914018E-03	1.220812E-04
5.774074E+03	6.162595E-03	1.267115E-04
5.784030E+03	6.438789E-03	1.318380E-04
5.793985E+03	6.739206E-03	1.373804E-04
5.803940E+03	7.059600E-03	1.432414E-04
5.813896E+03	7.394628E-03	1.493030E-04
5.823851E+03	7.738222E-03	1.554341E-04
5.833806E+03	8.083514E-03	1.614899E-04
5.843762E+03	8.423218E-03	1.673206E-04
5.853717E+03	8.749540E-03	1.727695E-04
5.863672E+03	9.055186E-03	1.776942E-04
5.873627E+03	9.333156E-03	1.819620E-04
5.883583E+03	9.577267E-03	1.854606E-04
5.893538E+03	9.782477E-03	1.881040E-04
5.903493E+03	9.945123E-03	1.898365E-04
5.913449E+03	1.006318E-02	1.906366E-04
5.923404E+03	1.013608E-02	1.905129E-04
5.933359E+03	1.016479E-02	1.895040E-04
5.943315E+03	1.015176E-02	1.876771E-04
5.953270E+03	1.010064E-02	1.851202E-04
5.963225E+03	1.001557E-02	1.819298E-04
5.973180E+03	9.901851E-03	1.782207E-04
5.983136E+03	9.764947E-03	1.741082E-04
5.993091E+03	9.610177E-03	1.697018E-04
6.003046E+03	9.442928E-03	1.651087E-04
6.013002E+03	9.268363E-03	1.604290E-04
6.022957E+03	9.090686E-03	1.557426E-04
6.032912E+03	8.914118E-03	1.511271E-04
6.042868E+03	8.741792E-03	1.466384E-04
6.052823E+03	8.576435E-03	1.423237E-04
6.062778E+03	8.420056E-03	1.382162E-04
6.072733E+03	8.274271E-03	1.343413E-04
6.082689E+03	8.139955E-03	1.307114E-04
6.092644E+03	8.017497E-03	1.273304E-04
6.102599E+03	7.906843E-03	1.241953E-04
6.112555E+03	7.807558E-03	1.212971E-04
6.122510E+03	7.718769E-03	1.186206E-04
6.132465E+03	7.639432E-03	1.161490E-04
6.142421E+03	7.568155E-03	1.138609E-04
6.152376E+03	7.503769E-03	1.117394E-04
6.162331E+03	7.444588E-03	1.097610E-04
6.172286E+03	7.389165E-03	1.079068E-04
6.182242E+03	7.335921E-03	1.061570E-04
6.192197E+03	7.283422E-03	1.044947E-04
6.202152E+03	7.230467E-03	1.029069E-04
6.212108E+03	7.176392E-03	1.013886E-04
6.222063E+03	7.121039E-03	9.994108E-05
6.232018E+03	7.064549E-03	9.856628E-05
6.241974E+03	7.007718E-03	9.727427E-05
6.251929E+03	6.951660E-03	9.607909E-05
6.261884E+03	6.897547E-03	9.499527E-05
6.271839E+03	6.846597E-03	9.403775E-05
6.281795E+03	6.800077E-03	9.322202E-05
6.291750E+03	6.759129E-03	9.256198E-05
6.301705E+03	6.724654E-03	9.206842E-05
6.311661E+03	6.697467E-03	9.175130E-05
6.321616E+03	6.678089E-03	9.161705E-05
6.331571E+03	6.667043E-03	9.167258E-05
6.341527E+03	6.664457E-03	9.191998E-05
6.351482E+03	6.670373E-03	9.236071E-05
6.361437E+03	6.684665E-03	9.299441E-05
6.371392E+03	6.707153E-03	9.382047E-05
6.381348E+03	6.737335E-03	9.483426E-05
6.391303E+03	6.774677E-03	9.603094E-05
6.401258E+03	6.818551E-03	9.740460E-05
6.411214E+03	6.868327E-03	9.894944E-05
6.421169E+03	6.922893E-03	1.006527E-04
6.431124E+03	6.981621E-03	1.025083E-04
6.441080E+03	7.043282E-03	1.045013E-04
6.451035E+03	7.106761E-03	1.066159E-04
6.460990E+03	7.171051E-03	1.088347E-04
6.470945E+03	7.234547E-03	1.111298E-04
6.480901E+03	7.296314E-03	1.134827E-04
6.490856E+03	7.355096E-03	1.158686E-04
6.500811E+03	7.410344E-03	1.182730E-04
6.510767E+03	7.462399E-03	1.206953E-04
6.520722E+03	7.512129E-03	1.231434E-04
6.530677E+03	7.560980E-03	1.256356E-04
6.540633E+03	7.610447E-03	1.281925E-04
6.550588E+03	7.661773E-03	1.308317E-04
6.560543E+03	7.715598E-03	1.335616E-04
6.570498E+03	7.772343E-03	1.363876E-04
6.580454E+03	7.831361E-03	1.392964E-04
6.590409E+03	7.891757E-03	1.422699E-04
6.600364E+03	7.951898E-03	1.452757E-04
6.610320E+03	8.009970E-03	1.482766E-04
6.620275E+03	8.063607E-03	1.512233E-04
6.630230E+03	8.110429E-03	1.540640E-04
6.640186E+03	8.148156E-03	1.567468E-04
6.650141E+03	8.174399E-03	1.592154E-04
6.660096E+03	8.187177E-03	1.614195E-04
6.670051E+03	8.184899E-03	1.633151E-04
6.680007E+03	8.166590E-03	1.648692E-04
6.689962E+03	8.131574E-03	1.660544E-04
6.699917E+03	8.079889E-03	1.668579E-04
6.709873E+03	8.012138E-03	1.672790E-04
6.719828E+03	7.929482E-03	1.673301E-04
6.729783E+03	7.833555E-03	1.670348E-04
6.739739E+03	7.726518E-03	1.664301E-04
6.749694E+03	7.610589E-03	1.655568E-04
6.759649E+03	7.488451E-03	1.644678E-04
6.769604E+03	7.362520E-03	1.632130E-04
6.779560E+03	7.235749E-03	1.618564E-04
6.789515E+03	7.110763E-03	1.604573E-04
6.799470E+03	6.989955E-03	1.590718E-04
6.809426E+03	6.875664E-03	1.577566E-04
6.819381E+03	6.770106E-03	1.565675E-04
6.829336E+03	6.675025E-03	1.555505E-04
6.839292E+03	6.592108E-03	1.547515E-04
6.849247E+03	6.522521E-03	1.542050E-04
6.859202E+03	6.467365E-03	1.539442E-04
6.869157E+03	6.427316E-03	1.539927E-04
6.879113E+03	6.402618E-03	1.543635E-04
6.889068E+03	6.393547E-03	1.550700E-04
6.899023E+03	6.399590E-03	1.561064E-04
6.908979E+03	6.420136E-03	1.574633E-04
6.918934E+03	6.454464E-03	1.591281E-04
6.928889E+03	6.501056E-03	1.610675E-04
6.938845E+03	6.558534E-03	1.632504E-04
6.948800E+03	6.624750E-03	1.656258E-04
6.958755E+03	6.697626E-03	1.681429E-04
6.968710E+03	6.774748E-03	1.707414E-04
6.978666E+03	6.853695E-03	1.733596E-04
6.988621E+03	6.931592E-03	1.759238E-04
6.998576E+03	7.006116E-03	1.783727E-04
7.008532E+03	7.074718E-03	1.806392E-04
7.018487E+03	7.135090E-03	1.826616E-04
7.028442E+03	7.185814E-03	1.844006E-04
7.038398E+03	7.225102E-03	1.858077E-04
7.048353E+03	7.252326E-03	1.868641E-04
7.058308E+03	7.266965E-03	1.875542E-04
7.068263E+03	7.269272E-03	1.878827E-04
7.078219E+03	7.259687E-03	1.878599E-04
7.088174E+03	7.239332E-03	1.875140E-04
7.098129E+03	7.209363E-03	1.868748E-04
7.108085E+03	7.171437E-03	1.859855E-04
7.118040E+03	7.127188E-03	1.848892E-04
7.127995E+03	7.078144E-03	1.836266E-04
7.137951E+03	7.026176E-03	1.822472E-04
7.147906E+03	6.972476E-03	1.807835E-04
7.157861E+03	6.918316E-03	1.792696E-04
7.167817E+03	6.865020E-03	1.777414E-04
7.177772E+03	6.813238E-03	1.762169E-04
7.187727E+03	6.763516E-03	1.747115E-04
7.197682E+03	6.716152E-03	1.732340E-04
7.207638E+03	6.671354E-03	1.717909E-04
7.217593E+03	6.628741E-03	1.703733E-04
7.227548E+03	6.588323E-03	1.689825E-04
7.237504E+03	6.549593E-03	1.676064E-04
7.247459E+03	6.512249E-03	1.662383E-04
7.257414E+03	6.475703E-03	1.648643E-04
7.267370E+03	6.439651E-03	1.634777E-04
7.277325E+03	6.403558E-03	1.620662E-04
7.287280E+03	6.367229E-03	1.606262E-04
7.297235E+03	6.330416E-03	1.591527E-04
7.307191E+03	6.293084E-03	1.576465E-04
7.317146E+03	6.255002E-03	1.561032E-04
7.327101E+03	6.216127E-03	1.545234E-04
7.337057E+03	6.176742E-03	1.529157E-04
7.347012E+03	6.136725E-03	1.512787E-04
7.356967E+03	6.096232E-03	1.496179E-04
7.366923E+03	6.055246E-03	1.479344E-04
7.376878E+03	6.013995E-03	1.462354E-04
7.386833E+03	5.972378E-03	1.445201E-04
7.396788E+03	5.930118E-03	1.427834E-04
7.406744E+03	5.887168E-03	1.410258E-04
7.416699E+03	5.843179E-03	1.392407E-04
7.426654E+03	5.797677E-03	1.374189E-04
7.436610E+03	5.750587E-03	1.355606E-04
7.446565E+03	5.701632E-03	1.336614E-04
7.456520E+03	5.650600E-03	1.317185E-04
7.466476E+03	5.597495E-03	1.297341E-04
7.476431E+03	5.542441E-03	1.277122E-04
7.486386E+03	5.485677E-03	1.256590E-04
7.496341E+03	5.427422E-03	1.235806E-04
7.506297E+03	5.368254E-03	1.214909E-04
7.516252E+03	5.308583E-03	1.193996E-04
7.526207E+03	5.248986E-03	1.173203E-04
7.536163E+03	5.190314E-03	1.152722E-04
7.546118E+03	5.132789E-03	1.132601E-04
7.556073E+03	5.077212E-03	1.113016E-04
7.566029E+03	5.023987E-03	1.094051E-04
7.575984E+03	4.973730E-03	1.075833E-04
7.585939E+03	4.926865E-03	1.058446E-04
7.595894E+03	4.884154E-03	1.042044E-04
7.605850E+03	4.846108E-03	1.026723E-04
7.615805E+03	4.813393E-03	1.012608E-04
7.625760E+03	4.786271E-03	9.997373E-05
7.635716E+03	4.765061E-03	9.881596E-05
7.645671E+03	4.749778E-03	9.778600E-05
7.655626E+03	4.740159E-03	9.687664E-05
7.665582E+03	4.735881E-03	9.607977E-05
7.675537E+03	4.736728E-03	9.538966E-05
7.685492E+03	4.741896E-03	9.478914E-05
7.695447E+03	4.750730E-03	9.426452E-05
7.705403E+03	4.762741E-03	9.380594E-05
7.715358E+03	4.776927E-03	9.339391E-05
7.725313E+03	4.792643E-03	9.301658E-05
