#wls	flux	fluxerr
1.592848E+03	7.288472E-04	5.965954E-05
1.632669E+03	7.401728E-04	6.033456E-05
1.672491E+03	7.517844E-04	6.101850E-05
1.712312E+03	7.636510E-04	6.170811E-05
1.752133E+03	7.757358E-04	6.239967E-05
1.791954E+03	7.882433E-04	6.310886E-05
1.831775E+03	8.010059E-04	6.382135E-05
1.871597E+03	8.143462E-04	6.456189E-05
1.911418E+03	8.280850E-04	6.531513E-05
1.951239E+03	8.422825E-04	6.608474E-05
1.991060E+03	8.572477E-04	6.689367E-05
2.030881E+03	8.730278E-04	6.774397E-05
2.070703E+03	8.895273E-04	6.862653E-05
2.110524E+03	9.068937E-04	6.955102E-05
2.150345E+03	9.253849E-04	7.053516E-05
2.190166E+03	9.449806E-04	7.157502E-05
2.229987E+03	9.653761E-04	7.264525E-05
2.269809E+03	9.867537E-04	7.375742E-05
2.309630E+03	1.008750E-03	7.488211E-05
2.349451E+03	1.031099E-03	7.599778E-05
2.389272E+03	1.053755E-03	7.709960E-05
2.429093E+03	1.076133E-03	7.814353E-05
2.468915E+03	1.097999E-03	7.911210E-05
2.508736E+03	1.118965E-03	7.997744E-05
2.548557E+03	1.138620E-03	8.071103E-05
2.588378E+03	1.156540E-03	8.128432E-05
2.628199E+03	1.172406E-03	8.167744E-05
2.668021E+03	1.185894E-03	8.187092E-05
2.707842E+03	1.196461E-03	8.183141E-05
2.747663E+03	1.203923E-03	8.155150E-05
2.787484E+03	1.208011E-03	8.101868E-05
2.827305E+03	1.208397E-03	8.021773E-05
2.867127E+03	1.204738E-03	7.913342E-05
2.906948E+03	1.196705E-03	7.775304E-05
2.946769E+03	1.184465E-03	7.609668E-05
2.986590E+03	1.168023E-03	7.417444E-05
2.996546E+03	1.163339E-03	7.365870E-05
3.006501E+03	1.158464E-03	7.313165E-05
3.016456E+03	1.153323E-03	7.258865E-05
3.026411E+03	1.148000E-03	7.203515E-05
3.036367E+03	1.142501E-03	7.147156E-05
3.046322E+03	1.136754E-03	7.089359E-05
3.056277E+03	1.130915E-03	7.031114E-05
3.066233E+03	1.124843E-03	6.971540E-05
3.076188E+03	1.118689E-03	6.911594E-05
3.086143E+03	1.112317E-03	6.850442E-05
3.096099E+03	1.105874E-03	6.789008E-05
3.106054E+03	1.099367E-03	6.727329E-05
3.116009E+03	1.092732E-03	6.665032E-05
3.125964E+03	1.085979E-03	6.602175E-05
3.135920E+03	1.079181E-03	6.539220E-05
3.145875E+03	1.072345E-03	6.476207E-05
3.155830E+03	1.065477E-03	6.413184E-05
3.165786E+03	1.058585E-03	6.350194E-05
3.175741E+03	1.051678E-03	6.287293E-05
3.185696E+03	1.044761E-03	6.224525E-05
3.195652E+03	1.037904E-03	6.162297E-05
3.205607E+03	1.031054E-03	6.100299E-05
3.215562E+03	1.024333E-03	6.039255E-05
3.225517E+03	1.017635E-03	5.978529E-05
3.235473E+03	1.011079E-03	5.918821E-05
3.245428E+03	1.004562E-03	5.859524E-05
3.255383E+03	9.982541E-04	5.801625E-05
3.265339E+03	9.920538E-04	5.744525E-05
3.275294E+03	9.860214E-04	5.688566E-05
3.285249E+03	9.801640E-04	5.633782E-05
3.295205E+03	9.745382E-04	5.580485E-05
3.305160E+03	9.691007E-04	5.528416E-05
3.315115E+03	9.639075E-04	5.477883E-05
3.325070E+03	9.590124E-04	5.429176E-05
3.335026E+03	9.543738E-04	5.382042E-05
3.344981E+03	9.500459E-04	5.336770E-05
3.354936E+03	9.460342E-04	5.293373E-05
3.364892E+03	9.423900E-04	5.252115E-05
3.374847E+03	9.391203E-04	5.213013E-05
3.384802E+03	9.362319E-04	5.176081E-05
3.394758E+03	9.337745E-04	5.141568E-05
3.404713E+03	9.317564E-04	5.109490E-05
3.414668E+03	9.302264E-04	5.080086E-05
3.424623E+03	9.291934E-04	5.053372E-05
3.434579E+03	9.287065E-04	5.029580E-05
3.444534E+03	9.288148E-04	5.008939E-05
3.454489E+03	9.295277E-04	4.991457E-05
3.464445E+03	9.308963E-04	4.977368E-05
3.474400E+03	9.329325E-04	4.966688E-05
3.484355E+03	9.357248E-04	4.959842E-05
3.494311E+03	9.392882E-04	4.956853E-05
3.504266E+03	9.436758E-04	4.957948E-05
3.514221E+03	9.489069E-04	4.963169E-05
3.524176E+03	9.550382E-04	4.972750E-05
3.534132E+03	9.620596E-04	4.986575E-05
3.544087E+03	9.700331E-04	5.004898E-05
3.554042E+03	9.789214E-04	5.027461E-05
3.563998E+03	9.887610E-04	5.054380E-05
3.573953E+03	9.995558E-04	5.085608E-05
3.583908E+03	1.011382E-03	5.121456E-05
3.593864E+03	1.024185E-03	5.161576E-05
3.603819E+03	1.038079E-03	5.206468E-05
3.613774E+03	1.053018E-03	5.255819E-05
3.623729E+03	1.069089E-03	5.309979E-05
3.633685E+03	1.086283E-03	5.368823E-05
3.643640E+03	1.104660E-03	5.432554E-05
3.653595E+03	1.124246E-03	5.501215E-05
3.663551E+03	1.145135E-03	5.575172E-05
3.673506E+03	1.167294E-03	5.654154E-05
3.683461E+03	1.190815E-03	5.738517E-05
3.693417E+03	1.215728E-03	5.828296E-05
3.703372E+03	1.242062E-03	5.923516E-05
3.713327E+03	1.269873E-03	6.024338E-05
3.723282E+03	1.299218E-03	6.130911E-05
3.733238E+03	1.330114E-03	6.243200E-05
3.743193E+03	1.362576E-03	6.361145E-05
3.753148E+03	1.396644E-03	6.484806E-05
3.763104E+03	1.432383E-03	6.614364E-05
3.773059E+03	1.469716E-03	6.749331E-05
3.783014E+03	1.508691E-03	6.889792E-05
3.792970E+03	1.549308E-03	7.035624E-05
3.802925E+03	1.591522E-03	7.186485E-05
3.812880E+03	1.635305E-03	7.342123E-05
3.822835E+03	1.680579E-03	7.502058E-05
3.832791E+03	1.727280E-03	7.665895E-05
3.842746E+03	1.775291E-03	7.832990E-05
3.852701E+03	1.824545E-03	8.002948E-05
3.862657E+03	1.874843E-03	8.174797E-05
3.872612E+03	1.926075E-03	8.347974E-05
3.882567E+03	1.978032E-03	8.521502E-05
3.892523E+03	2.030522E-03	8.694491E-05
3.902478E+03	2.083289E-03	8.865808E-05
3.912433E+03	2.136095E-03	9.034423E-05
3.922388E+03	2.188644E-03	9.199078E-05
3.932344E+03	2.240701E-03	9.358815E-05
3.942299E+03	2.291896E-03	9.512135E-05
3.952254E+03	2.342014E-03	9.658211E-05
3.962210E+03	2.390624E-03	9.795368E-05
3.972165E+03	2.437463E-03	9.922647E-05
3.982120E+03	2.482184E-03	1.003879E-04
3.992076E+03	2.524498E-03	1.014280E-04
4.002031E+03	2.564132E-03	1.023379E-04
4.011986E+03	2.600841E-03	1.031100E-04
4.021941E+03	2.634326E-03	1.037348E-04
4.031897E+03	2.664463E-03	1.042102E-04
4.041852E+03	2.691090E-03	1.045326E-04
4.051807E+03	2.714145E-03	1.047024E-04
4.061763E+03	2.733580E-03	1.047208E-04
4.071718E+03	2.749493E-03	1.045944E-04
4.081673E+03	2.761914E-03	1.043271E-04
4.091629E+03	2.771051E-03	1.039299E-04
4.101584E+03	2.777074E-03	1.034116E-04
4.111539E+03	2.780196E-03	1.027827E-04
4.121494E+03	2.780742E-03	1.020576E-04
4.131450E+03	2.779018E-03	1.012496E-04
4.141405E+03	2.775265E-03	1.003693E-04
4.151360E+03	2.769813E-03	9.943018E-05
4.161316E+03	2.763032E-03	9.844702E-05
4.171271E+03	2.755210E-03	9.743106E-05
4.181226E+03	2.746661E-03	9.639434E-05
4.191182E+03	2.737692E-03	9.534814E-05
4.201137E+03	2.728552E-03	9.430153E-05
4.211092E+03	2.719550E-03	9.326536E-05
4.221047E+03	2.710939E-03	9.224818E-05
4.231003E+03	2.702915E-03	9.125642E-05
4.240958E+03	2.695692E-03	9.029691E-05
4.250913E+03	2.689506E-03	8.937689E-05
4.260869E+03	2.684574E-03	8.850282E-05
4.270824E+03	2.681025E-03	8.767808E-05
4.280779E+03	2.679016E-03	8.690669E-05
4.290735E+03	2.678793E-03	8.619557E-05
4.300690E+03	2.680418E-03	8.554534E-05
4.310645E+03	2.684115E-03	8.496182E-05
4.320601E+03	2.689996E-03	8.444699E-05
4.330556E+03	2.698228E-03	8.400455E-05
4.340511E+03	2.708902E-03	8.363562E-05
4.350466E+03	2.722204E-03	8.334414E-05
4.360422E+03	2.738210E-03	8.313061E-05
4.370377E+03	2.757114E-03	8.299897E-05
4.380332E+03	2.779164E-03	8.295462E-05
4.390288E+03	2.804658E-03	8.300424E-05
4.400243E+03	2.833904E-03	8.315444E-05
4.410198E+03	2.867227E-03	8.341215E-05
4.420154E+03	2.904780E-03	8.377907E-05
4.430109E+03	2.946756E-03	8.425779E-05
4.440064E+03	2.993295E-03	8.484944E-05
4.450019E+03	3.044486E-03	8.555353E-05
4.459975E+03	3.100280E-03	8.636565E-05
4.469930E+03	3.160627E-03	8.728150E-05
4.479885E+03	3.225357E-03	8.829362E-05
4.489841E+03	3.294211E-03	8.939228E-05
4.499796E+03	3.366908E-03	9.056754E-05
4.509751E+03	3.442862E-03	9.180167E-05
4.519707E+03	3.521618E-03	9.308095E-05
4.529662E+03	3.602405E-03	9.438392E-05
4.539617E+03	3.684510E-03	9.569136E-05
4.549572E+03	3.766995E-03	9.697896E-05
4.559528E+03	3.848875E-03	9.822209E-05
4.569483E+03	3.929096E-03	9.939533E-05
4.579438E+03	4.006605E-03	1.004741E-04
4.589394E+03	4.080282E-03	1.014333E-04
4.599349E+03	4.148967E-03	1.022477E-04
4.609304E+03	4.211679E-03	1.028972E-04
4.619260E+03	4.267360E-03	1.033608E-04
4.629215E+03	4.315095E-03	1.036219E-04
4.639170E+03	4.354142E-03	1.036684E-04
4.649125E+03	4.383859E-03	1.034910E-04
4.659081E+03	4.403876E-03	1.030875E-04
4.669036E+03	4.413868E-03	1.024565E-04
4.678991E+03	4.413860E-03	1.016051E-04
4.688947E+03	4.404055E-03	1.005439E-04
4.698902E+03	4.384862E-03	9.928816E-05
4.708857E+03	4.356987E-03	9.785906E-05
4.718813E+03	4.321198E-03	9.627857E-05
4.728768E+03	4.278647E-03	9.457642E-05
4.738723E+03	4.230398E-03	9.277944E-05
4.748678E+03	4.177801E-03	9.091981E-05
4.758634E+03	4.122125E-03	8.902687E-05
4.768589E+03	4.064937E-03	8.713544E-05
4.778544E+03	4.007763E-03	8.527842E-05
4.788500E+03	3.952215E-03	8.348950E-05
4.798455E+03	3.899716E-03	8.179741E-05
4.808410E+03	3.851624E-03	8.022873E-05
4.818366E+03	3.809028E-03	7.880378E-05
4.828321E+03	3.772906E-03	7.754005E-05
4.838276E+03	3.743943E-03	7.644850E-05
4.848231E+03	3.722656E-03	7.553610E-05
4.858187E+03	3.709393E-03	7.480628E-05
4.868142E+03	3.704174E-03	7.425589E-05
4.878097E+03	3.706968E-03	7.388095E-05
4.888053E+03	3.717374E-03	7.367034E-05
4.898008E+03	3.734933E-03	7.361218E-05
4.907963E+03	3.758891E-03	7.368911E-05
4.917919E+03	3.788202E-03	7.387858E-05
4.927874E+03	3.821735E-03	7.415684E-05
4.937829E+03	3.858179E-03	7.449727E-05
4.947784E+03	3.896047E-03	7.487037E-05
4.957740E+03	3.933697E-03	7.524422E-05
4.967695E+03	3.969686E-03	7.559136E-05
4.977650E+03	4.002466E-03	7.588265E-05
4.987606E+03	4.030749E-03	7.609446E-05
4.997561E+03	4.053604E-03	7.621013E-05
5.007516E+03	4.070264E-03	7.621628E-05
5.017472E+03	4.080454E-03	7.610889E-05
5.027427E+03	4.084267E-03	7.589073E-05
5.037382E+03	4.082008E-03	7.556839E-05
5.047337E+03	4.074393E-03	7.515590E-05
5.057293E+03	4.062362E-03	7.467115E-05
5.067248E+03	4.046905E-03	7.413267E-05
5.077203E+03	4.029135E-03	7.356096E-05
5.087159E+03	4.010219E-03	7.297718E-05
5.097114E+03	3.991202E-03	7.240005E-05
5.107069E+03	3.973101E-03	7.184755E-05
5.117025E+03	3.956881E-03	7.133651E-05
5.126980E+03	3.943326E-03	7.088027E-05
5.136935E+03	3.933188E-03	7.049159E-05
5.146890E+03	3.927044E-03	7.017985E-05
5.156846E+03	3.925446E-03	6.995398E-05
5.166801E+03	3.928772E-03	6.981975E-05
5.176756E+03	3.937385E-03	6.978261E-05
5.186712E+03	3.951471E-03	6.984488E-05
5.196667E+03	3.971197E-03	7.000850E-05
5.206622E+03	3.996544E-03	7.027219E-05
5.216578E+03	4.027426E-03	7.063353E-05
5.226533E+03	4.063635E-03	7.108800E-05
5.236488E+03	4.104892E-03	7.162992E-05
5.246443E+03	4.150720E-03	7.225021E-05
5.256399E+03	4.200573E-03	7.293877E-05
5.266354E+03	4.253793E-03	7.368359E-05
5.276309E+03	4.309633E-03	7.447129E-05
5.286265E+03	4.367261E-03	7.528721E-05
5.296220E+03	4.425793E-03	7.611587E-05
5.306175E+03	4.484266E-03	7.694064E-05
5.316131E+03	4.541791E-03	7.774632E-05
5.326086E+03	4.597424E-03	7.851690E-05
5.336041E+03	4.650332E-03	7.923846E-05
5.345996E+03	4.699666E-03	7.989690E-05
5.355952E+03	4.744631E-03	8.047919E-05
5.365907E+03	4.784662E-03	8.097633E-05
5.375862E+03	4.819134E-03	8.137843E-05
5.385818E+03	4.847499E-03	8.167688E-05
5.395773E+03	4.869386E-03	8.186626E-05
5.405728E+03	4.884418E-03	8.194100E-05
5.415684E+03	4.892383E-03	8.189844E-05
5.425639E+03	4.892997E-03	8.173463E-05
5.435594E+03	4.886245E-03	8.145022E-05
5.445549E+03	4.872067E-03	8.104506E-05
5.455505E+03	4.850352E-03	8.051819E-05
5.465460E+03	4.821132E-03	7.987099E-05
5.475415E+03	4.784035E-03	7.909813E-05
5.485371E+03	4.738313E-03	7.818809E-05
5.495326E+03	4.683007E-03	7.712577E-05
5.505281E+03	4.617446E-03	7.590052E-05
5.515237E+03	4.541305E-03	7.450745E-05
5.525192E+03	4.454736E-03	7.294953E-05
5.535147E+03	4.358256E-03	7.123566E-05
5.545102E+03	4.252933E-03	6.938378E-05
5.555058E+03	4.140173E-03	6.741718E-05
5.565013E+03	4.021856E-03	6.536674E-05
5.574968E+03	3.900103E-03	6.326709E-05
5.584924E+03	3.777271E-03	6.115645E-05
5.594879E+03	3.655692E-03	5.907241E-05
5.604834E+03	3.537840E-03	5.705460E-05
5.614790E+03	3.426018E-03	5.513962E-05
5.624745E+03	3.322369E-03	5.336125E-05
5.634700E+03	3.228804E-03	5.174924E-05
5.644655E+03	3.147078E-03	5.033060E-05
5.654611E+03	3.078722E-03	4.912854E-05
5.664566E+03	3.024969E-03	4.816123E-05
5.674521E+03	2.986994E-03	4.744574E-05
5.684477E+03	2.965758E-03	4.699546E-05
5.694432E+03	2.962065E-03	4.682111E-05
5.704387E+03	2.976668E-03	4.693238E-05
5.714343E+03	3.010158E-03	4.733619E-05
5.724298E+03	3.063081E-03	4.803854E-05
5.734253E+03	3.135861E-03	4.904329E-05
5.744209E+03	3.228672E-03	5.035023E-05
5.754164E+03	3.341578E-03	5.195720E-05
5.764119E+03	3.474331E-03	5.385713E-05
5.774074E+03	3.626327E-03	5.603729E-05
5.784030E+03	3.796506E-03	5.847794E-05
5.793985E+03	3.983323E-03	6.115194E-05
5.803940E+03	4.184498E-03	6.402113E-05
5.813896E+03	4.397273E-03	6.704043E-05
5.823851E+03	4.618116E-03	7.015352E-05
5.833806E+03	4.842937E-03	7.329637E-05
5.843762E+03	5.067187E-03	7.639894E-05
5.853717E+03	5.285815E-03	7.938473E-05
5.863672E+03	5.493830E-03	8.217942E-05
5.873627E+03	5.686122E-03	8.470819E-05
5.883583E+03	5.858175E-03	8.690647E-05
5.893538E+03	6.005861E-03	8.871672E-05
5.903493E+03	6.126102E-03	9.009812E-05
5.913449E+03	6.216793E-03	9.102508E-05
5.923404E+03	6.276971E-03	9.148948E-05
5.933359E+03	6.306755E-03	9.149932E-05
5.943315E+03	6.307421E-03	9.107955E-05
5.953270E+03	6.281173E-03	9.026827E-05
5.963225E+03	6.231015E-03	8.911455E-05
5.973180E+03	6.160270E-03	8.767130E-05
5.983136E+03	6.072732E-03	8.599727E-05
5.993091E+03	5.972193E-03	8.415018E-05
6.003046E+03	5.862269E-03	8.218419E-05
6.013002E+03	5.746438E-03	8.015057E-05
6.022957E+03	5.627633E-03	7.809201E-05
6.032912E+03	5.508552E-03	7.604706E-05
6.042868E+03	5.391456E-03	7.404755E-05
6.052823E+03	5.277997E-03	7.211627E-05
6.062778E+03	5.169604E-03	7.027247E-05
6.072733E+03	5.067285E-03	6.852934E-05
6.082689E+03	4.971805E-03	6.689646E-05
6.092644E+03	4.883552E-03	6.537819E-05
6.102599E+03	4.802811E-03	6.397740E-05
6.112555E+03	4.729656E-03	6.269412E-05
6.122510E+03	4.664118E-03	6.152781E-05
6.132465E+03	4.606077E-03	6.047600E-05
6.142421E+03	4.555234E-03	5.953393E-05
6.152376E+03	4.511321E-03	5.869741E-05
6.162331E+03	4.474092E-03	5.796265E-05
6.172286E+03	4.443057E-03	5.732282E-05
6.182242E+03	4.417871E-03	5.677318E-05
6.192197E+03	4.398094E-03	5.630788E-05
6.202152E+03	4.383282E-03	5.592123E-05
6.212108E+03	4.373036E-03	5.560820E-05
6.222063E+03	4.366826E-03	5.536204E-05
6.232018E+03	4.363774E-03	5.517134E-05
6.241974E+03	4.363134E-03	5.502662E-05
6.251929E+03	4.364125E-03	5.491802E-05
6.261884E+03	4.366152E-03	5.483819E-05
6.271839E+03	4.368630E-03	5.477996E-05
6.281795E+03	4.371167E-03	5.473864E-05
6.291750E+03	4.373381E-03	5.470970E-05
6.301705E+03	4.375017E-03	5.469023E-05
6.311661E+03	4.375979E-03	5.467925E-05
6.321616E+03	4.376090E-03	5.467480E-05
6.331571E+03	4.375444E-03	5.467824E-05
6.341527E+03	4.373995E-03	5.468919E-05
6.351482E+03	4.371832E-03	5.470892E-05
6.361437E+03	4.369033E-03	5.473854E-05
6.371392E+03	4.365749E-03	5.478005E-05
6.381348E+03	4.362031E-03	5.483421E-05
6.391303E+03	4.358107E-03	5.490392E-05
6.401258E+03	4.353947E-03	5.498892E-05
6.411214E+03	4.349789E-03	5.509226E-05
6.421169E+03	4.345672E-03	5.521451E-05
6.431124E+03	4.341790E-03	5.535817E-05
6.441080E+03	4.338348E-03	5.552595E-05
6.451035E+03	4.335591E-03	5.572094E-05
6.460990E+03	4.333742E-03	5.594536E-05
6.470945E+03	4.333109E-03	5.620236E-05
6.480901E+03	4.333836E-03	5.649313E-05
6.490856E+03	4.336008E-03	5.681806E-05
6.500811E+03	4.339721E-03	5.717779E-05
6.510767E+03	4.345352E-03	5.757671E-05
6.520722E+03	4.353579E-03	5.802339E-05
6.530677E+03	4.365145E-03	5.852750E-05
6.540633E+03	4.380463E-03	5.909459E-05
6.550588E+03	4.399690E-03	5.972688E-05
6.560543E+03	4.422684E-03	6.042265E-05
6.570498E+03	4.449127E-03	6.117771E-05
6.580454E+03	4.478265E-03	6.198179E-05
6.590409E+03	4.509143E-03	6.282160E-05
6.600364E+03	4.540676E-03	6.368163E-05
6.610320E+03	4.571564E-03	6.454299E-05
6.620275E+03	4.600430E-03	6.538519E-05
6.630230E+03	4.625931E-03	6.618772E-05
6.640186E+03	4.646601E-03	6.692775E-05
6.650141E+03	4.661340E-03	6.758721E-05
6.660096E+03	4.669095E-03	6.814834E-05
6.670051E+03	4.669054E-03	6.859645E-05
6.680007E+03	4.660611E-03	6.891965E-05
6.689962E+03	4.643560E-03	6.911182E-05
6.699917E+03	4.617936E-03	6.917039E-05
6.709873E+03	4.584058E-03	6.909717E-05
6.719828E+03	4.542518E-03	6.889825E-05
6.729783E+03	4.494191E-03	6.858439E-05
6.739739E+03	4.439991E-03	6.816730E-05
6.749694E+03	4.381225E-03	6.766523E-05
6.759649E+03	4.319098E-03	6.709535E-05
6.769604E+03	4.255119E-03	6.648013E-05
6.779560E+03	4.190741E-03	6.584172E-05
6.789515E+03	4.127282E-03	6.520072E-05
6.799470E+03	4.066273E-03	6.458159E-05
6.809426E+03	4.009001E-03	6.400543E-05
6.819381E+03	3.956762E-03	6.349396E-05
6.829336E+03	3.910631E-03	6.306569E-05
6.839292E+03	3.871593E-03	6.273801E-05
6.849247E+03	3.840488E-03	6.252624E-05
6.859202E+03	3.818045E-03	6.244401E-05
6.869157E+03	3.804718E-03	6.250060E-05
6.879113E+03	3.800829E-03	6.270321E-05
6.889068E+03	3.806506E-03	6.305571E-05
6.899023E+03	3.821743E-03	6.355978E-05
6.908979E+03	3.846144E-03	6.421038E-05
6.918934E+03	3.879324E-03	6.500249E-05
6.928889E+03	3.920489E-03	6.592402E-05
6.938845E+03	3.968668E-03	6.695955E-05
6.948800E+03	4.022714E-03	6.809038E-05
6.958755E+03	4.081082E-03	6.929077E-05
6.968710E+03	4.142222E-03	7.053442E-05
6.978666E+03	4.204376E-03	7.179120E-05
6.988621E+03	4.265728E-03	7.302961E-05
6.998576E+03	4.324477E-03	7.421808E-05
7.008532E+03	4.378852E-03	7.532533E-05
7.018487E+03	4.427463E-03	7.632639E-05
7.028442E+03	4.468928E-03	7.719633E-05
7.038398E+03	4.502390E-03	7.791919E-05
7.048353E+03	4.527231E-03	7.848325E-05
7.058308E+03	4.543367E-03	7.888603E-05
7.068263E+03	4.550957E-03	7.912950E-05
7.078219E+03	4.550647E-03	7.922418E-05
7.088174E+03	4.543307E-03	7.918478E-05
7.098129E+03	4.529873E-03	7.902725E-05
7.108085E+03	4.511770E-03	7.877635E-05
7.118040E+03	4.490033E-03	7.845011E-05
7.127995E+03	4.466036E-03	7.807266E-05
7.137951E+03	4.440768E-03	7.766148E-05
7.147906E+03	4.415349E-03	7.723641E-05
7.157861E+03	4.390521E-03	7.681069E-05
7.167817E+03	4.366868E-03	7.639486E-05
7.177772E+03	4.344850E-03	7.599720E-05
7.187727E+03	4.324495E-03	7.561850E-05
7.197682E+03	4.305842E-03	7.525968E-05
7.207638E+03	4.288614E-03	7.491614E-05
7.217593E+03	4.272603E-03	7.458448E-05
7.227548E+03	4.257201E-03	7.425430E-05
7.237504E+03	4.241990E-03	7.391858E-05
7.247459E+03	4.226158E-03	7.356347E-05
7.257414E+03	4.209298E-03	7.318220E-05
7.267370E+03	4.190659E-03	7.276211E-05
7.277325E+03	4.169762E-03	7.229534E-05
7.287280E+03	4.146053E-03	7.177282E-05
7.297235E+03	4.119228E-03	7.118989E-05
7.307191E+03	4.088970E-03	7.054174E-05
7.317146E+03	4.055222E-03	6.982812E-05
7.327101E+03	4.017995E-03	6.904999E-05
7.337057E+03	3.977297E-03	6.820830E-05
7.347012E+03	3.933577E-03	6.731159E-05
7.356967E+03	3.886985E-03	6.636322E-05
7.366923E+03	3.838126E-03	6.537434E-05
7.376878E+03	3.787323E-03	6.435121E-05
7.386833E+03	3.735108E-03	6.330358E-05
7.396788E+03	3.681875E-03	6.223881E-05
7.406744E+03	3.628184E-03	6.116697E-05
7.416699E+03	3.574322E-03	6.009343E-05
7.426654E+03	3.520652E-03	5.902480E-05
7.436610E+03	3.467563E-03	5.796799E-05
7.446565E+03	3.415278E-03	5.692714E-05
7.456520E+03	3.364109E-03	5.590770E-05
7.466476E+03	3.314151E-03	5.491155E-05
7.476431E+03	3.265693E-03	5.394355E-05
7.486386E+03	3.218784E-03	5.300439E-05
7.496341E+03	3.173621E-03	5.209721E-05
7.506297E+03	3.130340E-03	5.122407E-05
7.516252E+03	3.089076E-03	5.038703E-05
7.526207E+03	3.049974E-03	4.958823E-05
7.536163E+03	3.013132E-03	4.882908E-05
7.546118E+03	2.978769E-03	4.811289E-05
7.556073E+03	2.947061E-03	4.744222E-05
7.566029E+03	2.918192E-03	4.681975E-05
7.575984E+03	2.892348E-03	4.624813E-05
7.585939E+03	2.869621E-03	4.572851E-05
7.595894E+03	2.850104E-03	4.526201E-05
7.605850E+03	2.833783E-03	4.484803E-05
7.615805E+03	2.820574E-03	4.448491E-05
7.625760E+03	2.810524E-03	4.417308E-05
7.635716E+03	2.803450E-03	4.390935E-05
7.645671E+03	2.799287E-03	4.369241E-05
7.655626E+03	2.797824E-03	4.351874E-05
7.665582E+03	2.798954E-03	4.338650E-05
7.675537E+03	2.802320E-03	4.329001E-05
7.685492E+03	2.807669E-03	4.322528E-05
7.695447E+03	2.814649E-03	4.318692E-05
7.705403E+03	2.822818E-03	4.316824E-05
7.715358E+03	2.831809E-03	4.316378E-05
7.725313E+03	2.841181E-03	4.316712E-05
