#wls	flux	fluxerr
1.592848E+03	7.489386E-04	4.375414E-05
1.632669E+03	7.620934E-04	4.441895E-05
1.672491E+03	7.755714E-04	4.509618E-05
1.712312E+03	7.895752E-04	4.579724E-05
1.752133E+03	8.039569E-04	4.651313E-05
1.791954E+03	8.189149E-04	4.725491E-05
1.831775E+03	8.344069E-04	4.801965E-05
1.871597E+03	8.506246E-04	4.881784E-05
1.911418E+03	8.673924E-04	4.963884E-05
1.951239E+03	8.850084E-04	5.049912E-05
1.991060E+03	9.035219E-04	5.140076E-05
2.030881E+03	9.230915E-04	5.235198E-05
2.070703E+03	9.438647E-04	5.336024E-05
2.110524E+03	9.657205E-04	5.441773E-05
2.150345E+03	9.890153E-04	5.554349E-05
2.190166E+03	1.013706E-03	5.673388E-05
2.229987E+03	1.039719E-03	5.798357E-05
2.269809E+03	1.067192E-03	5.929902E-05
2.309630E+03	1.095853E-03	6.066373E-05
2.349451E+03	1.125631E-03	6.207252E-05
2.389272E+03	1.156159E-03	6.350409E-05
2.429093E+03	1.187267E-03	6.494805E-05
2.468915E+03	1.218608E-03	6.638450E-05
2.508736E+03	1.249543E-03	6.777811E-05
2.548557E+03	1.279628E-03	6.910460E-05
2.588378E+03	1.308374E-03	7.033766E-05
2.628199E+03	1.335359E-03	7.145521E-05
2.668021E+03	1.359796E-03	7.241606E-05
2.707842E+03	1.381215E-03	7.319677E-05
2.747663E+03	1.399030E-03	7.376834E-05
2.787484E+03	1.412670E-03	7.410334E-05
2.827305E+03	1.421412E-03	7.416717E-05
2.867127E+03	1.424725E-03	7.393608E-05
2.906948E+03	1.422362E-03	7.340184E-05
2.946769E+03	1.414187E-03	7.256235E-05
2.986590E+03	1.400511E-03	7.143873E-05
2.996546E+03	1.396309E-03	7.111792E-05
3.006501E+03	1.391776E-03	7.078044E-05
3.016456E+03	1.386916E-03	7.042645E-05
3.026411E+03	1.381801E-03	7.005985E-05
3.036367E+03	1.376361E-03	6.967702E-05
3.046322E+03	1.370742E-03	6.928546E-05
3.056277E+03	1.364801E-03	6.887801E-05
3.066233E+03	1.358612E-03	6.845853E-05
3.076188E+03	1.352247E-03	6.803064E-05
3.086143E+03	1.345640E-03	6.759108E-05
3.096099E+03	1.338861E-03	6.714348E-05
3.106054E+03	1.331913E-03	6.668797E-05
3.116009E+03	1.324800E-03	6.622482E-05
3.125964E+03	1.317464E-03	6.575119E-05
3.135920E+03	1.310096E-03	6.527668E-05
3.145875E+03	1.302577E-03	6.479535E-05
3.155830E+03	1.294973E-03	6.431053E-05
3.165786E+03	1.287288E-03	6.382250E-05
3.175741E+03	1.279586E-03	6.333440E-05
3.185696E+03	1.271815E-03	6.284368E-05
3.195652E+03	1.264038E-03	6.235346E-05
3.205607E+03	1.256260E-03	6.186404E-05
3.215562E+03	1.248489E-03	6.137577E-05
3.225517E+03	1.240783E-03	6.089155E-05
3.235473E+03	1.233148E-03	6.041168E-05
3.245428E+03	1.225642E-03	5.993891E-05
3.255383E+03	1.218220E-03	5.947112E-05
3.265339E+03	1.210940E-03	5.901105E-05
3.275294E+03	1.203810E-03	5.855904E-05
3.285249E+03	1.196883E-03	5.811771E-05
3.295205E+03	1.190122E-03	5.768517E-05
3.305160E+03	1.183626E-03	5.726620E-05
3.315115E+03	1.177401E-03	5.686102E-05
3.325070E+03	1.171415E-03	5.646804E-05
3.335026E+03	1.165763E-03	5.609169E-05
3.344981E+03	1.160412E-03	5.573043E-05
3.354936E+03	1.155456E-03	5.538857E-05
3.364892E+03	1.150864E-03	5.506467E-05
3.374847E+03	1.146653E-03	5.475929E-05
3.384802E+03	1.142910E-03	5.447659E-05
3.394758E+03	1.139614E-03	5.421539E-05
3.404713E+03	1.136817E-03	5.397807E-05
3.414668E+03	1.134536E-03	5.376530E-05
3.424623E+03	1.132790E-03	5.357785E-05
3.434579E+03	1.131602E-03	5.341662E-05
3.444534E+03	1.131027E-03	5.328412E-05
3.454489E+03	1.131059E-03	5.317979E-05
3.464445E+03	1.131755E-03	5.310624E-05
3.474400E+03	1.133115E-03	5.306321E-05
3.484355E+03	1.135170E-03	5.305201E-05
3.494311E+03	1.137924E-03	5.307265E-05
3.504266E+03	1.141448E-03	5.312813E-05
3.514221E+03	1.145721E-03	5.321732E-05
3.524176E+03	1.150787E-03	5.334206E-05
3.534132E+03	1.156663E-03	5.350288E-05
3.544087E+03	1.163370E-03	5.370052E-05
3.554042E+03	1.170989E-03	5.393843E-05
3.563998E+03	1.179459E-03	5.421361E-05
3.573953E+03	1.188869E-03	5.452978E-05
3.583908E+03	1.199248E-03	5.488806E-05
3.593864E+03	1.210603E-03	5.528846E-05
3.603819E+03	1.222972E-03	5.573239E-05
3.613774E+03	1.236392E-03	5.622129E-05
3.623729E+03	1.250957E-03	5.675902E-05
3.633685E+03	1.266680E-03	5.734583E-05
3.643640E+03	1.283626E-03	5.798433E-05
3.653595E+03	1.301862E-03	5.867711E-05
3.663551E+03	1.321425E-03	5.942546E-05
3.673506E+03	1.342405E-03	6.023302E-05
3.683461E+03	1.364810E-03	6.109968E-05
3.693417E+03	1.388726E-03	6.202881E-05
3.703372E+03	1.414182E-03	6.302122E-05
3.713327E+03	1.441228E-03	6.407869E-05
3.723282E+03	1.469911E-03	6.520275E-05
3.733238E+03	1.500244E-03	6.639345E-05
3.743193E+03	1.532288E-03	6.765293E-05
3.753148E+03	1.566039E-03	6.898051E-05
3.763104E+03	1.601485E-03	7.037505E-05
3.773059E+03	1.638657E-03	7.183740E-05
3.783014E+03	1.677548E-03	7.336662E-05
3.792970E+03	1.718078E-03	7.495868E-05
3.802925E+03	1.760236E-03	7.661261E-05
3.812880E+03	1.803968E-03	7.832546E-05
3.822835E+03	1.849173E-03	8.009230E-05
3.832791E+03	1.895757E-03	8.190862E-05
3.842746E+03	1.943606E-03	8.376903E-05
3.852701E+03	1.992557E-03	8.566605E-05
3.862657E+03	2.042451E-03	8.759253E-05
3.872612E+03	2.093143E-03	8.954187E-05
3.882567E+03	2.144401E-03	9.150391E-05
3.892523E+03	2.195972E-03	9.346766E-05
3.902478E+03	2.247646E-03	9.542409E-05
3.912433E+03	2.299132E-03	9.736077E-05
3.922388E+03	2.350153E-03	9.926609E-05
3.932344E+03	2.400423E-03	1.011281E-04
3.942299E+03	2.449644E-03	1.029344E-04
3.952254E+03	2.497477E-03	1.046713E-04
3.962210E+03	2.543615E-03	1.063262E-04
3.972165E+03	2.587784E-03	1.078884E-04
3.982120E+03	2.629646E-03	1.093443E-04
3.992076E+03	2.668868E-03	1.106810E-04
4.002031E+03	2.705202E-03	1.118889E-04
4.011986E+03	2.738388E-03	1.129585E-04
4.021941E+03	2.768162E-03	1.138797E-04
4.031897E+03	2.794296E-03	1.146444E-04
4.041852E+03	2.816730E-03	1.152514E-04
4.051807E+03	2.835379E-03	1.156984E-04
4.061763E+03	2.850229E-03	1.159862E-04
4.071718E+03	2.861376E-03	1.161198E-04
4.081673E+03	2.869003E-03	1.161080E-04
4.091629E+03	2.873394E-03	1.159635E-04
4.101584E+03	2.874771E-03	1.156962E-04
4.111539E+03	2.873471E-03	1.153207E-04
4.121494E+03	2.869853E-03	1.148523E-04
4.131450E+03	2.864318E-03	1.143078E-04
4.141405E+03	2.857161E-03	1.136997E-04
4.151360E+03	2.848736E-03	1.130425E-04
4.161316E+03	2.839419E-03	1.123515E-04
4.171271E+03	2.829469E-03	1.116374E-04
4.181226E+03	2.819196E-03	1.109125E-04
4.191182E+03	2.808917E-03	1.101894E-04
4.201137E+03	2.798828E-03	1.094759E-04
4.211092E+03	2.789170E-03	1.087812E-04
4.221047E+03	2.780163E-03	1.081138E-04
4.231003E+03	2.772002E-03	1.074811E-04
4.240958E+03	2.764835E-03	1.068885E-04
4.250913E+03	2.758798E-03	1.063410E-04
4.260869E+03	2.754076E-03	1.058452E-04
4.270824E+03	2.750786E-03	1.054052E-04
4.280779E+03	2.749076E-03	1.050264E-04
4.290735E+03	2.749075E-03	1.047129E-04
4.300690E+03	2.750983E-03	1.044719E-04
4.310645E+03	2.754945E-03	1.043083E-04
4.320601E+03	2.761133E-03	1.042277E-04
4.330556E+03	2.769760E-03	1.042376E-04
4.340511E+03	2.781022E-03	1.043445E-04
4.350466E+03	2.795117E-03	1.045548E-04
4.360422E+03	2.812291E-03	1.048769E-04
4.370377E+03	2.832805E-03	1.053194E-04
4.380332E+03	2.856905E-03	1.058904E-04
4.390288E+03	2.884916E-03	1.066005E-04
4.400243E+03	2.917113E-03	1.074587E-04
4.410198E+03	2.953753E-03	1.084730E-04
4.420154E+03	2.995120E-03	1.096524E-04
4.430109E+03	3.041440E-03	1.110035E-04
4.440064E+03	3.092824E-03	1.125287E-04
4.450019E+03	3.149430E-03	1.142321E-04
4.459975E+03	3.211238E-03	1.161112E-04
4.469930E+03	3.278239E-03	1.181640E-04
4.479885E+03	3.350251E-03	1.203822E-04
4.489841E+03	3.427103E-03	1.227581E-04
4.499796E+03	3.508354E-03	1.252743E-04
4.509751E+03	3.593583E-03	1.279144E-04
4.519707E+03	3.682168E-03	1.306551E-04
4.529662E+03	3.773239E-03	1.334644E-04
4.539617E+03	3.865931E-03	1.363112E-04
4.549572E+03	3.959096E-03	1.391546E-04
4.559528E+03	4.051575E-03	1.419540E-04
4.569483E+03	4.142003E-03	1.446618E-04
4.579438E+03	4.229084E-03	1.472339E-04
4.589394E+03	4.311431E-03	1.496231E-04
4.599349E+03	4.387725E-03	1.517857E-04
4.609304E+03	4.456715E-03	1.536804E-04
4.619260E+03	4.517314E-03	1.552724E-04
4.629215E+03	4.568429E-03	1.565272E-04
4.639170E+03	4.609233E-03	1.574195E-04
4.649125E+03	4.638924E-03	1.579257E-04
4.659081E+03	4.656992E-03	1.580321E-04
4.669036E+03	4.663108E-03	1.577313E-04
4.678991E+03	4.657266E-03	1.570273E-04
4.688947E+03	4.639649E-03	1.559299E-04
4.698902E+03	4.610894E-03	1.544645E-04
4.708857E+03	4.571963E-03	1.526667E-04
4.718813E+03	4.524013E-03	1.505784E-04
4.728768E+03	4.468715E-03	1.482580E-04
4.738723E+03	4.407652E-03	1.457600E-04
4.748678E+03	4.342741E-03	1.431496E-04
4.758634E+03	4.275764E-03	1.404865E-04
4.768589E+03	4.208625E-03	1.378336E-04
4.778544E+03	4.143140E-03	1.352504E-04
4.788500E+03	4.080949E-03	1.327896E-04
4.798455E+03	4.023604E-03	1.305004E-04
4.808410E+03	3.972491E-03	1.284261E-04
4.818366E+03	3.928820E-03	1.266038E-04
4.828321E+03	3.893491E-03	1.250599E-04
4.838276E+03	3.867272E-03	1.238165E-04
4.848231E+03	3.850697E-03	1.228878E-04
4.858187E+03	3.844071E-03	1.222804E-04
4.868142E+03	3.847507E-03	1.219948E-04
4.878097E+03	3.860820E-03	1.220220E-04
4.888053E+03	3.883709E-03	1.223495E-04
4.898008E+03	3.915593E-03	1.229561E-04
4.907963E+03	3.955619E-03	1.238125E-04
4.917919E+03	4.002645E-03	1.248804E-04
4.927874E+03	4.055157E-03	1.261108E-04
4.937829E+03	4.111414E-03	1.274480E-04
4.947784E+03	4.169203E-03	1.288225E-04
4.957740E+03	4.225974E-03	1.301554E-04
4.967695E+03	4.279236E-03	1.313706E-04
4.977650E+03	4.326572E-03	1.323952E-04
4.987606E+03	4.365857E-03	1.331660E-04
4.997561E+03	4.395404E-03	1.336344E-04
5.007516E+03	4.414419E-03	1.337789E-04
5.017472E+03	4.422938E-03	1.336040E-04
5.027427E+03	4.421424E-03	1.331264E-04
5.037382E+03	4.411142E-03	1.323872E-04
5.047337E+03	4.393657E-03	1.314358E-04
5.057293E+03	4.370846E-03	1.303300E-04
5.067248E+03	4.344493E-03	1.291246E-04
5.077203E+03	4.316358E-03	1.278725E-04
5.087159E+03	4.288176E-03	1.266256E-04
5.097114E+03	4.261239E-03	1.254219E-04
5.107069E+03	4.236780E-03	1.242970E-04
5.117025E+03	4.215796E-03	1.232795E-04
5.126980E+03	4.199013E-03	1.223895E-04
5.136935E+03	4.187073E-03	1.216444E-04
5.146890E+03	4.180475E-03	1.210572E-04
5.156846E+03	4.179706E-03	1.206407E-04
5.166801E+03	4.185144E-03	1.204038E-04
5.176756E+03	4.197147E-03	1.203553E-04
5.186712E+03	4.215990E-03	1.205009E-04
5.196667E+03	4.241892E-03	1.208453E-04
5.206622E+03	4.274939E-03	1.213887E-04
5.216578E+03	4.315141E-03	1.221296E-04
5.226533E+03	4.362212E-03	1.230578E-04
5.236488E+03	4.415827E-03	1.241625E-04
5.246443E+03	4.475476E-03	1.254275E-04
5.256399E+03	4.540422E-03	1.268306E-04
5.266354E+03	4.609837E-03	1.283475E-04
5.276309E+03	4.682721E-03	1.299492E-04
5.286265E+03	4.757893E-03	1.316021E-04
5.296220E+03	4.834220E-03	1.332745E-04
5.306175E+03	4.910471E-03	1.349323E-04
5.316131E+03	4.985320E-03	1.365393E-04
5.326086E+03	5.057642E-03	1.380654E-04
5.336041E+03	5.126476E-03	1.394850E-04
5.345996E+03	5.190980E-03	1.407764E-04
5.355952E+03	5.250337E-03	1.419188E-04
5.365907E+03	5.304068E-03	1.429006E-04
5.375862E+03	5.351644E-03	1.437094E-04
5.385818E+03	5.392645E-03	1.443356E-04
5.395773E+03	5.426746E-03	1.447723E-04
5.405728E+03	5.453741E-03	1.450160E-04
5.415684E+03	5.473345E-03	1.450610E-04
5.425639E+03	5.485298E-03	1.449025E-04
5.435594E+03	5.489473E-03	1.445391E-04
5.445549E+03	5.485436E-03	1.439616E-04
5.455505E+03	5.472867E-03	1.431638E-04
5.465460E+03	5.451042E-03	1.421289E-04
5.475415E+03	5.419206E-03	1.408399E-04
5.485371E+03	5.376406E-03	1.392745E-04
5.495326E+03	5.321481E-03	1.374055E-04
5.505281E+03	5.253598E-03	1.352146E-04
5.515237E+03	5.172147E-03	1.326891E-04
5.525192E+03	5.076810E-03	1.298242E-04
5.535147E+03	4.967914E-03	1.266316E-04
5.545102E+03	4.846449E-03	1.231395E-04
5.555058E+03	4.714058E-03	1.193926E-04
5.565013E+03	4.572869E-03	1.154470E-04
5.574968E+03	4.425570E-03	1.113723E-04
5.584924E+03	4.275143E-03	1.072446E-04
5.594879E+03	4.124657E-03	1.031412E-04
5.604834E+03	3.977380E-03	9.914345E-05
5.614790E+03	3.836396E-03	9.532701E-05
5.624745E+03	3.704501E-03	9.175944E-05
5.634700E+03	3.584253E-03	8.850163E-05
5.644655E+03	3.477912E-03	8.560635E-05
5.654611E+03	3.387425E-03	8.311801E-05
5.664566E+03	3.314320E-03	8.107020E-05
5.674521E+03	3.260108E-03	7.949572E-05
5.684477E+03	3.225944E-03	7.841824E-05
5.694432E+03	3.212842E-03	7.785773E-05
5.704387E+03	3.221771E-03	7.783290E-05
5.714343E+03	3.253655E-03	7.836104E-05
5.724298E+03	3.309067E-03	7.945087E-05
5.734253E+03	3.388562E-03	8.111053E-05
5.744209E+03	3.492574E-03	8.334525E-05
5.754164E+03	3.621291E-03	8.615428E-05
5.764119E+03	3.774537E-03	8.952829E-05
5.774074E+03	3.951781E-03	9.344972E-05
5.784030E+03	4.151684E-03	9.788214E-05
5.793985E+03	4.372107E-03	1.027708E-04
5.803940E+03	4.610210E-03	1.080452E-04
5.813896E+03	4.862437E-03	1.136190E-04
5.823851E+03	5.124460E-03	1.193889E-04
5.833806E+03	5.391093E-03	1.252329E-04
5.843762E+03	5.656803E-03	1.310224E-04
5.853717E+03	5.915422E-03	1.366159E-04
5.863672E+03	6.160663E-03	1.418703E-04
5.873627E+03	6.386255E-03	1.466451E-04
5.883583E+03	6.586430E-03	1.508125E-04
5.893538E+03	6.756154E-03	1.542630E-04
5.903493E+03	6.891689E-03	1.569180E-04
5.913449E+03	6.990681E-03	1.587308E-04
5.923404E+03	7.052246E-03	1.596888E-04
5.933359E+03	7.077204E-03	1.598177E-04
5.943315E+03	7.067897E-03	1.591773E-04
5.953270E+03	7.027565E-03	1.578467E-04
5.963225E+03	6.960358E-03	1.559245E-04
5.973180E+03	6.870940E-03	1.535197E-04
5.983136E+03	6.764125E-03	1.507434E-04
5.993091E+03	6.644562E-03	1.477018E-04
6.003046E+03	6.516705E-03	1.444957E-04
6.013002E+03	6.384561E-03	1.412149E-04
6.022957E+03	6.251369E-03	1.379314E-04
6.032912E+03	6.119876E-03	1.347056E-04
6.042868E+03	5.992332E-03	1.315864E-04
6.052823E+03	5.870202E-03	1.286050E-04
6.062778E+03	5.754604E-03	1.257849E-04
6.072733E+03	5.646276E-03	1.231408E-04
6.082689E+03	5.545607E-03	1.206802E-04
6.092644E+03	5.452692E-03	1.184036E-04
6.102599E+03	5.367505E-03	1.163093E-04
6.112555E+03	5.289881E-03	1.143926E-04
6.122510E+03	5.219521E-03	1.126458E-04
6.132465E+03	5.156247E-03	1.110640E-04
6.142421E+03	5.099662E-03	1.096378E-04
6.152376E+03	5.049448E-03	1.083594E-04
6.162331E+03	5.005330E-03	1.072221E-04
6.172286E+03	4.966871E-03	1.062159E-04
6.182242E+03	4.933574E-03	1.053295E-04
6.192197E+03	4.904910E-03	1.045511E-04
6.202152E+03	4.880372E-03	1.038694E-04
6.212108E+03	4.859369E-03	1.032715E-04
6.222063E+03	4.841166E-03	1.027414E-04
6.232018E+03	4.825228E-03	1.022674E-04
6.241974E+03	4.810917E-03	1.018357E-04
6.251929E+03	4.797707E-03	1.014349E-04
6.261884E+03	4.785090E-03	1.010541E-04
6.271839E+03	4.772758E-03	1.006867E-04
6.281795E+03	4.760441E-03	1.003269E-04
6.291750E+03	4.747986E-03	9.997133E-05
6.301705E+03	4.735267E-03	9.961730E-05
6.311661E+03	4.722391E-03	9.926698E-05
6.321616E+03	4.709337E-03	9.891983E-05
6.331571E+03	4.696235E-03	9.857849E-05
6.341527E+03	4.683337E-03	9.824815E-05
6.351482E+03	4.670688E-03	9.792965E-05
6.361437E+03	4.658432E-03	9.762592E-05
6.371392E+03	4.646711E-03	9.733980E-05
6.381348E+03	4.635564E-03	9.707206E-05
6.391303E+03	4.624961E-03	9.682192E-05
6.401258E+03	4.614813E-03	9.658744E-05
6.411214E+03	4.605022E-03	9.636648E-05
6.421169E+03	4.595632E-03	9.615991E-05
6.431124E+03	4.586579E-03	9.596626E-05
6.441080E+03	4.577999E-03	9.578834E-05
6.451035E+03	4.570129E-03	9.563100E-05
6.460990E+03	4.563396E-03	9.550303E-05
6.470945E+03	4.558100E-03	9.541052E-05
6.480901E+03	4.554833E-03	9.536562E-05
6.490856E+03	4.554236E-03	9.538159E-05
6.500811E+03	4.557005E-03	9.547285E-05
6.510767E+03	4.563933E-03	9.565591E-05
6.520722E+03	4.576112E-03	9.595360E-05
6.530677E+03	4.594298E-03	9.638174E-05
6.540633E+03	4.619341E-03	9.695822E-05
6.550588E+03	4.651499E-03	9.768854E-05
6.560543E+03	4.690555E-03	9.856829E-05
6.570498E+03	4.735851E-03	9.958376E-05
6.580454E+03	4.786117E-03	1.007084E-04
6.590409E+03	4.839836E-03	1.019104E-04
6.600364E+03	4.895170E-03	1.031511E-04
6.610320E+03	4.950008E-03	1.043859E-04
6.620275E+03	5.002282E-03	1.055710E-04
6.630230E+03	5.049841E-03	1.066609E-04
6.640186E+03	5.090731E-03	1.076138E-04
6.650141E+03	5.123103E-03	1.083901E-04
6.660096E+03	5.145728E-03	1.089632E-04
6.670051E+03	5.157351E-03	1.093058E-04
6.680007E+03	5.157345E-03	1.094038E-04
6.689962E+03	5.145595E-03	1.092539E-04
6.699917E+03	5.122030E-03	1.088537E-04
6.709873E+03	5.087300E-03	1.082162E-04
6.719828E+03	5.042120E-03	1.073558E-04
6.729783E+03	4.987522E-03	1.062936E-04
6.739739E+03	4.924805E-03	1.050566E-04
6.749694E+03	4.855481E-03	1.036765E-04
6.759649E+03	4.781042E-03	1.021845E-04
6.769604E+03	4.703297E-03	1.006189E-04
6.779560E+03	4.623946E-03	9.901571E-05
6.789515E+03	4.544759E-03	9.741271E-05
6.799470E+03	4.467708E-03	9.585209E-05
6.809426E+03	4.394368E-03	9.436768E-05
6.819381E+03	4.326560E-03	9.299877E-05
6.829336E+03	4.265615E-03	9.177426E-05
6.839292E+03	4.212850E-03	9.072283E-05
6.849247E+03	4.169493E-03	8.987139E-05
6.859202E+03	4.136531E-03	8.924169E-05
6.869157E+03	4.114750E-03	8.885128E-05
6.879113E+03	4.104850E-03	8.871586E-05
6.889068E+03	4.107126E-03	8.884241E-05
6.899023E+03	4.121590E-03	8.923179E-05
6.908979E+03	4.148134E-03	8.988230E-05
6.918934E+03	4.186451E-03	9.078780E-05
6.928889E+03	4.235663E-03	9.192981E-05
6.938845E+03	4.294967E-03	9.329133E-05
6.948800E+03	4.362673E-03	9.483604E-05
6.958755E+03	4.436835E-03	9.652189E-05
6.968710E+03	4.515219E-03	9.830045E-05
6.978666E+03	4.595421E-03	1.001194E-04
6.988621E+03	4.674471E-03	1.019139E-04
6.998576E+03	4.749796E-03	1.036277E-04
7.008532E+03	4.818930E-03	1.052066E-04
7.018487E+03	4.879789E-03	1.066047E-04
7.028442E+03	4.930467E-03	1.077799E-04
7.038398E+03	4.969786E-03	1.087058E-04
7.048353E+03	4.997103E-03	1.093679E-04
7.058308E+03	5.012128E-03	1.097593E-04
7.068263E+03	5.015472E-03	1.098929E-04
7.078219E+03	5.008321E-03	1.097942E-04
7.088174E+03	4.991994E-03	1.094919E-04
7.098129E+03	4.968259E-03	1.090243E-04
7.108085E+03	4.939046E-03	1.084337E-04
7.118040E+03	4.906328E-03	1.077634E-04
7.127995E+03	4.871733E-03	1.070489E-04
7.137951E+03	4.836924E-03	1.063269E-04
7.147906E+03	4.803101E-03	1.056239E-04
7.157861E+03	4.771503E-03	1.049671E-04
7.167817E+03	4.742721E-03	1.043697E-04
7.177772E+03	4.717277E-03	1.038433E-04
7.187727E+03	4.695407E-03	1.033932E-04
7.197682E+03	4.676799E-03	1.030127E-04
7.207638E+03	4.661237E-03	1.026972E-04
7.217593E+03	4.648127E-03	1.024337E-04
7.227548E+03	4.637083E-03	1.022138E-04
7.237504E+03	4.627167E-03	1.020168E-04
7.247459E+03	4.617673E-03	1.018274E-04
7.257414E+03	4.607959E-03	1.016314E-04
7.267370E+03	4.597063E-03	1.014076E-04
7.277325E+03	4.584314E-03	1.011414E-04
7.287280E+03	4.568920E-03	1.008153E-04
7.297235E+03	4.550554E-03	1.004221E-04
7.307191E+03	4.528595E-03	9.994825E-05
7.317146E+03	4.502981E-03	9.939241E-05
7.327101E+03	4.473626E-03	9.875279E-05
7.337057E+03	4.440545E-03	9.802977E-05
7.347012E+03	4.404134E-03	9.723220E-05
7.356967E+03	4.364633E-03	9.636549E-05
7.366923E+03	4.322406E-03	9.543774E-05
7.376878E+03	4.278112E-03	9.446366E-05
7.386833E+03	4.232152E-03	9.345219E-05
7.396788E+03	4.184873E-03	9.241112E-05
7.406744E+03	4.136517E-03	9.134589E-05
7.416699E+03	4.087463E-03	9.026496E-05
7.426654E+03	4.037966E-03	8.917414E-05
7.436610E+03	3.988272E-03	8.807891E-05
7.446565E+03	3.938535E-03	8.698280E-05
7.456520E+03	3.889050E-03	8.589246E-05
7.466476E+03	3.839878E-03	8.480929E-05
7.476431E+03	3.791355E-03	8.374085E-05
7.486386E+03	3.743488E-03	8.268737E-05
7.496341E+03	3.696512E-03	8.165410E-05
7.506297E+03	3.650561E-03	8.064407E-05
7.516252E+03	3.605872E-03	7.966259E-05
7.526207E+03	3.562949E-03	7.872088E-05
7.536163E+03	3.522007E-03	7.782374E-05
7.546118E+03	3.483400E-03	7.697910E-05
7.556073E+03	3.447537E-03	7.619603E-05
7.566029E+03	3.414668E-03	7.548019E-05
7.575984E+03	3.385015E-03	7.483654E-05
7.585939E+03	3.358978E-03	7.427408E-05
7.595894E+03	3.336664E-03	7.379523E-05
7.605850E+03	3.318265E-03	7.340440E-05
7.615805E+03	3.304080E-03	7.310833E-05
7.625760E+03	3.294009E-03	7.290496E-05
7.635716E+03	3.288162E-03	7.279691E-05
7.645671E+03	3.286452E-03	7.278241E-05
7.655626E+03	3.288589E-03	7.285526E-05
7.665582E+03	3.294436E-03	7.301262E-05
7.675537E+03	3.303581E-03	7.324557E-05
7.685492E+03	3.315606E-03	7.354511E-05
7.695447E+03	3.330063E-03	7.390149E-05
7.705403E+03	3.346223E-03	7.429880E-05
7.715358E+03	3.363587E-03	7.472615E-05
7.725313E+03	3.381389E-03	7.516674E-05
