#wls	flux	fluxerr
1.592848E+03	5.597180E-04	2.882483E-05
1.632669E+03	5.655326E-04	2.897160E-05
1.672491E+03	5.714932E-04	2.911908E-05
1.712312E+03	5.773646E-04	2.925505E-05
1.752133E+03	5.832208E-04	2.938315E-05
1.791954E+03	5.891363E-04	2.950694E-05
1.831775E+03	5.949697E-04	2.961914E-05
1.871597E+03	6.010085E-04	2.973386E-05
1.911418E+03	6.069969E-04	2.983816E-05
1.951239E+03	6.131101E-04	2.994043E-05
1.991060E+03	6.193022E-04	3.003814E-05
2.030881E+03	6.257456E-04	3.013931E-05
2.070703E+03	6.322742E-04	3.023552E-05
2.110524E+03	6.389375E-04	3.032883E-05
2.150345E+03	6.458937E-04	3.042633E-05
2.190166E+03	6.528437E-04	3.051348E-05
2.229987E+03	6.600426E-04	3.060190E-05
2.269809E+03	6.671771E-04	3.067666E-05
2.309630E+03	6.741519E-04	3.073325E-05
2.349451E+03	6.809778E-04	3.077212E-05
2.389272E+03	6.873283E-04	3.077858E-05
2.429093E+03	6.933178E-04	3.075806E-05
2.468915E+03	6.985130E-04	3.069177E-05
2.508736E+03	7.030305E-04	3.058560E-05
2.548557E+03	7.065615E-04	3.042696E-05
2.588378E+03	7.091292E-04	3.021800E-05
2.628199E+03	7.107607E-04	2.996103E-05
2.668021E+03	7.111951E-04	2.964638E-05
2.707842E+03	7.104966E-04	2.927832E-05
2.747663E+03	7.085546E-04	2.885394E-05
2.787484E+03	7.054770E-04	2.837941E-05
2.827305E+03	7.012105E-04	2.785435E-05
2.867127E+03	6.957431E-04	2.728018E-05
2.906948E+03	6.891042E-04	2.666000E-05
2.946769E+03	6.815253E-04	2.600467E-05
2.986590E+03	6.734115E-04	2.533111E-05
2.996546E+03	6.712997E-04	2.516001E-05
3.006501E+03	6.691301E-04	2.498694E-05
3.016456E+03	6.669827E-04	2.481492E-05
3.026411E+03	6.648593E-04	2.464399E-05
3.036367E+03	6.627621E-04	2.447424E-05
3.046322E+03	6.606193E-04	2.430303E-05
3.056277E+03	6.585090E-04	2.413322E-05
3.066233E+03	6.563605E-04	2.396224E-05
3.076188E+03	6.543217E-04	2.379548E-05
3.086143E+03	6.522513E-04	2.362778E-05
3.096099E+03	6.502937E-04	2.346437E-05
3.106054E+03	6.483113E-04	2.330025E-05
3.116009E+03	6.464458E-04	2.314052E-05
3.125964E+03	6.445617E-04	2.298030E-05
3.135920E+03	6.427985E-04	2.282455E-05
3.145875E+03	6.411569E-04	2.267326E-05
3.155830E+03	6.395063E-04	2.252175E-05
3.165786E+03	6.379813E-04	2.237478E-05
3.175741E+03	6.365834E-04	2.223234E-05
3.185696E+03	6.352489E-04	2.209216E-05
3.195652E+03	6.340451E-04	2.195654E-05
3.205607E+03	6.329724E-04	2.182545E-05
3.215562E+03	6.320322E-04	2.169887E-05
3.225517E+03	6.312250E-04	2.157677E-05
3.235473E+03	6.306141E-04	2.146125E-05
3.245428E+03	6.300767E-04	2.134805E-05
3.255383E+03	6.297360E-04	2.124130E-05
3.265339E+03	6.295919E-04	2.114092E-05
3.275294E+03	6.296438E-04	2.104678E-05
3.285249E+03	6.298908E-04	2.095878E-05
3.295205E+03	6.302741E-04	2.087488E-05
3.305160E+03	6.309104E-04	2.079887E-05
3.315115E+03	6.317975E-04	2.073054E-05
3.325070E+03	6.328763E-04	2.066787E-05
3.335026E+03	6.342024E-04	2.061257E-05
3.344981E+03	6.358291E-04	2.056624E-05
3.354936E+03	6.376421E-04	2.052506E-05
3.364892E+03	6.397499E-04	2.049242E-05
3.374847E+03	6.421488E-04	2.046807E-05
3.384802E+03	6.448345E-04	2.045172E-05
3.394758E+03	6.478025E-04	2.044310E-05
3.404713E+03	6.511017E-04	2.044361E-05
3.414668E+03	6.546729E-04	2.045123E-05
3.424623E+03	7.544203E-04	2.344641E-05
3.426615E+03	7.695907E-04	2.389319E-05
3.428606E+03	7.785809E-04	2.414731E-05
3.430597E+03	7.936161E-04	2.458812E-05
3.432588E+03	8.168050E-04	2.528031E-05
3.434579E+03	8.327204E-04	2.574611E-05
3.436570E+03	8.586276E-04	2.651947E-05
3.438561E+03	9.011127E-04	2.780264E-05
3.440552E+03	9.162943E-04	2.824151E-05
3.442543E+03	9.352674E-04	2.879613E-05
3.444534E+03	9.585062E-04	2.948071E-05
3.446525E+03	9.832829E-04	3.021102E-05
3.448516E+03	1.007664E-03	3.092755E-05
3.450507E+03	1.022952E-03	3.136373E-05
3.452498E+03	1.032438E-03	3.162116E-05
3.454489E+03	1.042891E-03	3.190756E-05
3.456480E+03	1.069110E-03	3.267512E-05
3.458471E+03	1.084593E-03	3.311317E-05
3.460463E+03	1.097465E-03	3.347057E-05
3.462454E+03	1.100180E-03	3.351767E-05
3.464445E+03	1.106474E-03	3.367351E-05
3.466436E+03	1.112671E-03	3.382597E-05
3.468427E+03	1.120706E-03	3.403383E-05
3.470418E+03	1.126517E-03	3.417366E-05
3.472409E+03	1.129232E-03	3.421927E-05
3.474400E+03	1.134946E-03	3.435547E-05
3.476391E+03	1.128956E-03	3.413735E-05
3.478382E+03	1.136508E-03	3.432866E-05
3.480373E+03	1.150927E-03	3.472668E-05
3.482364E+03	1.143195E-03	3.445607E-05
3.484355E+03	1.148039E-03	3.456456E-05
3.486346E+03	1.143982E-03	3.440505E-05
3.488337E+03	1.142248E-03	3.431554E-05
3.490328E+03	1.135966E-03	3.408968E-05
3.492319E+03	1.116819E-03	3.347852E-05
3.494311E+03	1.111118E-03	3.327123E-05
3.496302E+03	1.110350E-03	3.321185E-05
3.498293E+03	1.099811E-03	3.286057E-05
3.500284E+03	1.093046E-03	3.262257E-05
3.502275E+03	1.090633E-03	3.251476E-05
3.504266E+03	1.078934E-03	3.213053E-05
3.506257E+03	1.058721E-03	3.149380E-05
3.508248E+03	1.042281E-03	3.097048E-05
3.510239E+03	1.025260E-03	3.043099E-05
3.512230E+03	1.001467E-03	2.969181E-05
3.514221E+03	9.819299E-04	2.908024E-05
3.516212E+03	9.671141E-04	2.860959E-05
3.518203E+03	9.525010E-04	2.814590E-05
3.520194E+03	9.416902E-04	2.779537E-05
3.522185E+03	9.202179E-04	2.713121E-05
3.524176E+03	9.147467E-04	2.693969E-05
3.526168E+03	9.001424E-04	2.647984E-05
3.528159E+03	8.944003E-04	2.628134E-05
3.530150E+03	8.800476E-04	2.583048E-05
3.532141E+03	8.824803E-04	2.587268E-05
3.534132E+03	8.802010E-04	2.577670E-05
3.536123E+03	8.862229E-04	2.592368E-05
3.538114E+03	8.858596E-04	2.588369E-05
3.540105E+03	8.891917E-04	2.595155E-05
3.542096E+03	8.843875E-04	2.578198E-05
3.544087E+03	8.757131E-04	2.550002E-05
3.546078E+03	8.724855E-04	2.537704E-05
3.548069E+03	8.606087E-04	2.500298E-05
3.550060E+03	8.522241E-04	2.473104E-05
3.552051E+03	8.553336E-04	2.479281E-05
3.554042E+03	8.634258E-04	2.499862E-05
3.556033E+03	8.708791E-04	2.518540E-05
3.558024E+03	8.697027E-04	2.512239E-05
3.560016E+03	8.685549E-04	2.506026E-05
3.562007E+03	8.740926E-04	2.519087E-05
3.563998E+03	8.699068E-04	2.504120E-05
3.565989E+03	8.732289E-04	2.510766E-05
3.567980E+03	8.741809E-04	2.510581E-05
3.569971E+03	8.796315E-04	2.523294E-05
3.571962E+03	8.888652E-04	2.546808E-05
3.573953E+03	8.960480E-04	2.564389E-05
3.575944E+03	8.962354E-04	2.561924E-05
3.577935E+03	8.999927E-04	2.569648E-05
3.579926E+03	9.044855E-04	2.579444E-05
3.581917E+03	9.032213E-04	2.572809E-05
3.583908E+03	9.076658E-04	2.582423E-05
3.585899E+03	9.125263E-04	2.593188E-05
3.587890E+03	9.169806E-04	2.602765E-05
3.589881E+03	9.265048E-04	2.626685E-05
3.591872E+03	9.386896E-04	2.658073E-05
3.593864E+03	9.459400E-04	2.675422E-05
3.595855E+03	9.615700E-04	2.716392E-05
3.597846E+03	9.750418E-04	2.751165E-05
3.599837E+03	9.830761E-04	2.770522E-05
3.601828E+03	9.965291E-04	2.805077E-05
3.603819E+03	1.010272E-03	2.840354E-05
3.605810E+03	1.021112E-03	2.867385E-05
3.607801E+03	1.024599E-03	2.873717E-05
3.609792E+03	1.034181E-03	2.897100E-05
3.611783E+03	1.035926E-03	2.898488E-05
3.613774E+03	1.043961E-03	2.917438E-05
3.615765E+03	1.049382E-03	2.929040E-05
3.617756E+03	1.052385E-03	2.933860E-05
3.619747E+03	1.052485E-03	2.930575E-05
3.621738E+03	1.048617E-03	2.916254E-05
3.623729E+03	1.056554E-03	2.934748E-05
3.625721E+03	1.058589E-03	2.936810E-05
3.627712E+03	1.060527E-03	2.938589E-05
3.629703E+03	1.064690E-03	2.946513E-05
3.631694E+03	1.073499E-03	2.967245E-05
3.633685E+03	1.080759E-03	2.983640E-05
3.635676E+03	1.086083E-03	2.994650E-05
3.637667E+03	1.089473E-03	3.000291E-05
3.639658E+03	1.087153E-03	2.990204E-05
3.641649E+03	1.093638E-03	3.004321E-05
3.643640E+03	1.093738E-03	3.000871E-05
3.645631E+03	1.086676E-03	2.977795E-05
3.647622E+03	1.087356E-03	2.975952E-05
3.649613E+03	1.081745E-03	2.956910E-05
3.651604E+03	1.083489E-03	2.957981E-05
3.653595E+03	1.088814E-03	2.968802E-05
3.655586E+03	1.089880E-03	2.967989E-05
3.657577E+03	1.090850E-03	2.966905E-05
3.659569E+03	1.086110E-03	2.950303E-05
3.661560E+03	1.082145E-03	2.935832E-05
3.663551E+03	1.078082E-03	2.921124E-05
3.665542E+03	1.074794E-03	2.908538E-05
3.667533E+03	1.073150E-03	2.900418E-05
3.669524E+03	1.069959E-03	2.888127E-05
3.671515E+03	1.067734E-03	2.878466E-05
3.673506E+03	1.063478E-03	2.863347E-05
3.675497E+03	1.050319E-03	2.824318E-05
3.677488E+03	1.048385E-03	2.815520E-05
3.679479E+03	1.039677E-03	2.788568E-05
3.681470E+03	1.020615E-03	2.733937E-05
3.683461E+03	1.010649E-03	2.703771E-05
3.685452E+03	9.956512E-04	2.660226E-05
3.687443E+03	9.763953E-04	2.605422E-05
3.689434E+03	9.596262E-04	2.557376E-05
3.691425E+03	9.371091E-04	2.494145E-05
3.693417E+03	9.174658E-04	2.438707E-05
3.695408E+03	8.939322E-04	2.373075E-05
3.697399E+03	8.733597E-04	2.315455E-05
3.699390E+03	8.510164E-04	2.253286E-05
3.701381E+03	8.260599E-04	2.184360E-05
3.703372E+03	7.987331E-04	2.109346E-05
3.705363E+03	7.719865E-04	2.036049E-05
3.707354E+03	7.505330E-04	1.976878E-05
3.709345E+03	7.320311E-04	1.925617E-05
3.711336E+03	7.118161E-04	1.869984E-05
3.713327E+03	6.938363E-04	1.820353E-05
3.715318E+03	6.777342E-04	1.775765E-05
3.717309E+03	6.543742E-04	1.712296E-05
3.719300E+03	6.373140E-04	1.665451E-05
3.721291E+03	6.147665E-04	1.604402E-05
3.723282E+03	6.040543E-04	1.574355E-05
3.725274E+03	5.894807E-04	1.534331E-05
3.727265E+03	5.798423E-04	1.507235E-05
3.729256E+03	5.706780E-04	1.481436E-05
3.731247E+03	5.664978E-04	1.468621E-05
3.733238E+03	5.552334E-04	1.437494E-05
3.735229E+03	5.528722E-04	1.429463E-05
3.737220E+03	5.395758E-04	1.393213E-05
3.739211E+03	5.279537E-04	1.361371E-05
3.741202E+03	5.160217E-04	1.328812E-05
3.743193E+03	5.044672E-04	1.297306E-05
3.745184E+03	4.950803E-04	1.271446E-05
3.747175E+03	4.796936E-04	1.230263E-05
3.749166E+03	4.794610E-04	1.228000E-05
3.751157E+03	4.763930E-04	1.218485E-05
3.753148E+03	4.692411E-04	1.198560E-05
3.755139E+03	4.597189E-04	1.172638E-05
3.757130E+03	4.518510E-04	1.150995E-05
3.759122E+03	4.473508E-04	1.137974E-05
3.761113E+03	4.409249E-04	1.120092E-05
3.763104E+03	4.377311E-04	1.110453E-05
3.765095E+03	4.347305E-04	1.101326E-05
3.767086E+03	4.290402E-04	1.085414E-05
3.769077E+03	4.232817E-04	1.069369E-05
3.771068E+03	4.217234E-04	1.063961E-05
3.773059E+03	4.225646E-04	1.064608E-05
3.775050E+03	4.138644E-04	1.041244E-05
3.777041E+03	4.121894E-04	1.035590E-05
3.779032E+03	4.106505E-04	1.030289E-05
3.781023E+03	4.114333E-04	1.030815E-05
3.783014E+03	4.116070E-04	1.029811E-05
3.785005E+03	4.011164E-04	1.002162E-05
3.786996E+03	3.997803E-04	9.974256E-06
3.788987E+03	4.019086E-04	1.001329E-05
3.790979E+03	4.115262E-04	1.023851E-05
3.792970E+03	4.143605E-04	1.029452E-05
3.794961E+03	4.221589E-04	1.047348E-05
3.796952E+03	4.241511E-04	1.050805E-05
3.798943E+03	4.314462E-04	1.067366E-05
3.800934E+03	4.393896E-04	1.085478E-05
3.802925E+03	4.423786E-04	1.091311E-05
3.804916E+03	4.457352E-04	1.098028E-05
3.806907E+03	4.479207E-04	1.101841E-05
3.808898E+03	4.549446E-04	1.117523E-05
3.810889E+03	4.600526E-04	1.128456E-05
3.812880E+03	4.632250E-04	1.134611E-05
3.814871E+03	4.648686E-04	1.137005E-05
3.816862E+03	4.707600E-04	1.149761E-05
3.818853E+03	4.737196E-04	1.155325E-05
3.820844E+03	4.728474E-04	1.151537E-05
3.822835E+03	4.729814E-04	1.150201E-05
3.824827E+03	4.698251E-04	1.140874E-05
3.826818E+03	4.665724E-04	1.131334E-05
3.828809E+03	4.664646E-04	1.129432E-05
3.830800E+03	4.666370E-04	1.128208E-05
3.832791E+03	4.628134E-04	1.117335E-05
3.834782E+03	4.533292E-04	1.092843E-05
3.836773E+03	4.465739E-04	1.074986E-05
3.838764E+03	4.464466E-04	1.073107E-05
3.840755E+03	4.464255E-04	1.071484E-05
3.842746E+03	4.510295E-04	1.080945E-05
3.844737E+03	4.556138E-04	1.090327E-05
3.846728E+03	4.687712E-04	1.120162E-05
3.848719E+03	4.769548E-04	1.138036E-05
3.850710E+03	4.967010E-04	1.183400E-05
3.852701E+03	5.141344E-04	1.223122E-05
3.854692E+03	5.336090E-04	1.267570E-05
3.856683E+03	5.598082E-04	1.327831E-05
3.858675E+03	5.882805E-04	1.393290E-05
3.860666E+03	6.197523E-04	1.465641E-05
3.862657E+03	6.507592E-04	1.536671E-05
3.864648E+03	6.899122E-04	1.626690E-05
3.866639E+03	7.287747E-04	1.715747E-05
3.868630E+03	7.725230E-04	1.816015E-05
3.870621E+03	8.135811E-04	1.909659E-05
3.872612E+03	8.619819E-04	2.020222E-05
3.874603E+03	9.083700E-04	2.125731E-05
3.876594E+03	9.530353E-04	2.226887E-05
3.878585E+03	9.962389E-04	2.324317E-05
3.880576E+03	1.048672E-03	2.442941E-05
3.882567E+03	1.103910E-03	2.567719E-05
3.884558E+03	1.154891E-03	2.682217E-05
3.886549E+03	1.209354E-03	2.804430E-05
3.888540E+03	1.258882E-03	2.914829E-05
3.890532E+03	1.305798E-03	3.018839E-05
3.892523E+03	1.361323E-03	3.142389E-05
3.894514E+03	1.410752E-03	3.251497E-05
3.896505E+03	1.463857E-03	3.368712E-05
3.898496E+03	1.513479E-03	3.477547E-05
3.900487E+03	1.562325E-03	3.584252E-05
3.902478E+03	1.608947E-03	3.685513E-05
3.904469E+03	1.657599E-03	3.791088E-05
3.906460E+03	1.711377E-03	3.908024E-05
3.908451E+03	1.760801E-03	4.014651E-05
3.910442E+03	1.799487E-03	4.096481E-05
3.912433E+03	1.840106E-03	4.182432E-05
3.914424E+03	1.879661E-03	4.265678E-05
3.916415E+03	1.917087E-03	4.343818E-05
3.918406E+03	1.953641E-03	4.419722E-05
3.920397E+03	1.988744E-03	4.492088E-05
3.922388E+03	2.024717E-03	4.566166E-05
3.924380E+03	2.054594E-03	4.626264E-05
3.926371E+03	2.084955E-03	4.687236E-05
3.928362E+03	2.108060E-03	4.731706E-05
3.930353E+03	2.129907E-03	4.773193E-05
3.932344E+03	2.149915E-03	4.810411E-05
3.934335E+03	2.164893E-03	4.836247E-05
3.936326E+03	2.181708E-03	4.866076E-05
3.938317E+03	2.199394E-03	4.897723E-05
3.940308E+03	2.213307E-03	4.920856E-05
3.942299E+03	2.220061E-03	4.928000E-05
3.944290E+03	2.223623E-03	4.928020E-05
3.946281E+03	2.225346E-03	4.923947E-05
3.948272E+03	2.228617E-03	4.923281E-05
3.950263E+03	2.229277E-03	4.916831E-05
3.952254E+03	2.228485E-03	4.907180E-05
3.954245E+03	2.224404E-03	4.890304E-05
3.956236E+03	2.220033E-03	4.872820E-05
3.958228E+03	2.216049E-03	4.856215E-05
3.960219E+03	2.212355E-03	4.840271E-05
3.962210E+03	2.210788E-03	4.829002E-05
3.964201E+03	2.207481E-03	4.813947E-05
3.966192E+03	2.205237E-03	4.801232E-05
3.968183E+03	2.205025E-03	4.792947E-05
3.970174E+03	2.199202E-03	4.772489E-05
3.972165E+03	2.195313E-03	4.756264E-05
3.974156E+03	2.188040E-03	4.732744E-05
3.976147E+03	2.188407E-03	4.725776E-05
3.978138E+03	2.188967E-03	4.719221E-05
3.980129E+03	2.191365E-03	4.716618E-05
3.982120E+03	2.193859E-03	4.714205E-05
3.984111E+03	2.200608E-03	4.720903E-05
3.986102E+03	2.212773E-03	4.739152E-05
3.988093E+03	2.226774E-03	4.761243E-05
3.990085E+03	2.247255E-03	4.797066E-05
3.992076E+03	2.264157E-03	4.825117E-05
3.994067E+03	2.279221E-03	4.849139E-05
3.996058E+03	2.293028E-03	4.870383E-05
3.998049E+03	2.312153E-03	4.902807E-05
4.000040E+03	2.327699E-03	4.927519E-05
4.002031E+03	2.345952E-03	4.957844E-05
4.004022E+03	2.371168E-03	5.002729E-05
4.006013E+03	2.397059E-03	5.048860E-05
4.008004E+03	2.425367E-03	5.099890E-05
4.009995E+03	2.452417E-03	5.148079E-05
4.011986E+03	2.479080E-03	5.195266E-05
4.013977E+03	2.502938E-03	5.236396E-05
4.015968E+03	2.532597E-03	5.289473E-05
4.017959E+03	2.551522E-03	5.319961E-05
4.019950E+03	2.573830E-03	5.357359E-05
4.021941E+03	2.590239E-03	5.382342E-05
4.023933E+03	2.608292E-03	5.410619E-05
4.025924E+03	2.622669E-03	5.431159E-05
4.027915E+03	2.637433E-03	5.452397E-05
4.029906E+03	2.649392E-03	5.467743E-05
4.031897E+03	2.658740E-03	5.477627E-05
4.033888E+03	2.666057E-03	5.483269E-05
4.035879E+03	2.678982E-03	5.500374E-05
4.037870E+03	2.689875E-03	5.513226E-05
4.039861E+03	2.695354E-03	5.514923E-05
4.041852E+03	2.698995E-03	5.512830E-05
4.043843E+03	2.696159E-03	5.497505E-05
4.045834E+03	2.693902E-03	5.483381E-05
4.047825E+03	2.690775E-03	5.467507E-05
4.049816E+03	2.694512E-03	5.465580E-05
4.051807E+03	2.693318E-03	5.453644E-05
4.053798E+03	2.688353E-03	5.434096E-05
4.055790E+03	2.683195E-03	5.414196E-05
4.057781E+03	2.683548E-03	5.405433E-05
4.059772E+03	2.674136E-03	5.377036E-05
4.061763E+03	2.667237E-03	5.353753E-05
4.063754E+03	2.658985E-03	5.327808E-05
4.065745E+03	2.646479E-03	5.293417E-05
4.067736E+03	2.634844E-03	5.260853E-05
4.069727E+03	2.617892E-03	5.217777E-05
4.071718E+03	2.610220E-03	5.193286E-05
4.073709E+03	2.596942E-03	5.157717E-05
4.075700E+03	2.582600E-03	5.120136E-05
4.077691E+03	2.574155E-03	5.094327E-05
4.079682E+03	2.569093E-03	5.075264E-05
4.081673E+03	2.558038E-03	5.044421E-05
4.083664E+03	2.544180E-03	5.008141E-05
4.085655E+03	2.530902E-03	4.973100E-05
4.087646E+03	2.512888E-03	4.928867E-05
4.089638E+03	2.500480E-03	4.895739E-05
4.091629E+03	2.486817E-03	4.860246E-05
4.093620E+03	2.473346E-03	4.825229E-05
4.095611E+03	2.462871E-03	4.796144E-05
4.097602E+03	2.449401E-03	4.761312E-05
4.099593E+03	2.436897E-03	4.728452E-05
4.101584E+03	2.427486E-03	4.701674E-05
4.103575E+03	2.423680E-03	4.685801E-05
4.105566E+03	2.414946E-03	4.660446E-05
4.107557E+03	2.400123E-03	4.623427E-05
4.109548E+03	2.385687E-03	4.587260E-05
4.111539E+03	2.379271E-03	4.566591E-05
4.113530E+03	2.373726E-03	4.547636E-05
4.115521E+03	2.368083E-03	4.528538E-05
4.117512E+03	2.365727E-03	4.515755E-05
4.119503E+03	2.362114E-03	4.500597E-05
4.121494E+03	2.357051E-03	4.482711E-05
4.123486E+03	2.349282E-03	4.459728E-05
4.125477E+03	2.338905E-03	4.431859E-05
4.127468E+03	2.333359E-03	4.413203E-05
4.129459E+03	2.336606E-03	4.411189E-05
4.131450E+03	2.334828E-03	4.399688E-05
4.133441E+03	2.333726E-03	4.389473E-05
4.135432E+03	2.329435E-03	4.373284E-05
4.137423E+03	2.324082E-03	4.355137E-05
4.139414E+03	2.319791E-03	4.339019E-05
4.141405E+03	2.318109E-03	4.327804E-05
4.143396E+03	2.314687E-03	4.313364E-05
4.145387E+03	2.314067E-03	4.304162E-05
4.147378E+03	2.311805E-03	4.291919E-05
4.149369E+03	2.310025E-03	4.280591E-05
4.151360E+03	2.303125E-03	4.259809E-05
4.153351E+03	2.297384E-03	4.241218E-05
4.155343E+03	2.296281E-03	4.231216E-05
4.157334E+03	2.294694E-03	4.220337E-05
4.159325E+03	2.295135E-03	4.213196E-05
4.161316E+03	2.289200E-03	4.194375E-05
4.163307E+03	2.286164E-03	4.180899E-05
4.165298E+03	2.286121E-03	4.172914E-05
4.167289E+03	2.282698E-03	4.158773E-05
4.169280E+03	2.271837E-03	4.131137E-05
4.171271E+03	2.270442E-03	4.120760E-05
4.173262E+03	2.264121E-03	4.101474E-05
4.175253E+03	2.263498E-03	4.092538E-05
4.177244E+03	2.263455E-03	4.084658E-05
4.179235E+03	2.262059E-03	4.074346E-05
4.181226E+03	2.258731E-03	4.060576E-05
4.183217E+03	2.258204E-03	4.051859E-05
4.185208E+03	2.251593E-03	4.032254E-05
4.187199E+03	2.248651E-03	4.019259E-05
4.189191E+03	2.246578E-03	4.007839E-05
4.191182E+03	2.238905E-03	3.986466E-05
4.193173E+03	2.230265E-03	3.963434E-05
4.195164E+03	2.225681E-03	3.947660E-05
4.197155E+03	2.223125E-03	3.935512E-05
4.199146E+03	2.223080E-03	3.927824E-05
4.201137E+03	2.223999E-03	3.921842E-05
4.203128E+03	2.225015E-03	3.916029E-05
4.205119E+03	2.221782E-03	3.902752E-05
4.207110E+03	2.217391E-03	3.887470E-05
4.209101E+03	2.214254E-03	3.874420E-05
4.211092E+03	2.210732E-03	3.860723E-05
4.213083E+03	2.208754E-03	3.849747E-05
4.215074E+03	2.209865E-03	3.844164E-05
4.217065E+03	2.205859E-03	3.829696E-05
4.219056E+03	2.205039E-03	3.820781E-05
4.221047E+03	2.201515E-03	3.807202E-05
4.223039E+03	2.199246E-03	3.795818E-05
4.225030E+03	2.198908E-03	3.787782E-05
4.227021E+03	2.202624E-03	3.786724E-05
4.229012E+03	2.205760E-03	3.784652E-05
4.231003E+03	2.209958E-03	3.784383E-05
4.232994E+03	2.212514E-03	3.781286E-05
4.234985E+03	2.212946E-03	3.774556E-05
4.236976E+03	2.212702E-03	3.766679E-05
4.238967E+03	2.210914E-03	3.756185E-05
4.240958E+03	2.208354E-03	3.744401E-05
4.242949E+03	2.205021E-03	3.731334E-05
4.244940E+03	2.203328E-03	3.721066E-05
4.246931E+03	2.206848E-03	3.719601E-05
4.248922E+03	2.206506E-03	3.711624E-05
4.250913E+03	2.204523E-03	3.700902E-05
4.252904E+03	2.199839E-03	3.685673E-05
4.254896E+03	2.197277E-03	3.674031E-05
4.256887E+03	2.198671E-03	3.669016E-05
4.258878E+03	2.193118E-03	3.652427E-05
4.260869E+03	2.189398E-03	3.638930E-05
4.262860E+03	2.181721E-03	3.618903E-05
4.264851E+03	2.177229E-03	3.604205E-05
4.266842E+03	2.175727E-03	3.594485E-05
4.268833E+03	2.173358E-03	3.583352E-05
4.270824E+03	2.169830E-03	3.570336E-05
4.272815E+03	2.169004E-03	3.561787E-05
4.274806E+03	2.165476E-03	3.548823E-05
4.276797E+03	2.167639E-03	3.545200E-05
4.278788E+03	2.166137E-03	3.535585E-05
4.280779E+03	2.164634E-03	3.525989E-05
4.282770E+03	2.166122E-03	3.521271E-05
4.284761E+03	2.163557E-03	3.509977E-05
