#wls	flux	fluxerr
1.592848E+03	4.235095E-04	2.568305E-05
1.632669E+03	4.284878E-04	2.585559E-05
1.672491E+03	4.334288E-04	2.601972E-05
1.712312E+03	4.383960E-04	2.617909E-05
1.752133E+03	4.432848E-04	2.632729E-05
1.791954E+03	4.482448E-04	2.647305E-05
1.831775E+03	4.531677E-04	2.660977E-05
1.871597E+03	4.581171E-04	2.674102E-05
1.911418E+03	4.630692E-04	2.686520E-05
1.951239E+03	4.680881E-04	2.698581E-05
1.991060E+03	4.730557E-04	2.709584E-05
2.030881E+03	4.780339E-04	2.719866E-05
2.070703E+03	4.829921E-04	2.729232E-05
2.110524E+03	4.879903E-04	2.738003E-05
2.150345E+03	4.929951E-04	2.745967E-05
2.190166E+03	4.978783E-04	2.752395E-05
2.229987E+03	5.027891E-04	2.758098E-05
2.269809E+03	5.075030E-04	2.761831E-05
2.309630E+03	5.121683E-04	2.764401E-05
2.349451E+03	5.167467E-04	2.765586E-05
2.389272E+03	5.210132E-04	2.764187E-05
2.429093E+03	5.252106E-04	2.761503E-05
2.468915E+03	5.291180E-04	2.756373E-05
2.508736E+03	5.327062E-04	2.748671E-05
2.548557E+03	5.360404E-04	2.738759E-05
2.588378E+03	5.391876E-04	2.726999E-05
2.628199E+03	5.419532E-04	2.712429E-05
2.668021E+03	5.444199E-04	2.695503E-05
2.707842E+03	5.466752E-04	2.676685E-05
2.747663E+03	5.487264E-04	2.656032E-05
2.787484E+03	5.505067E-04	2.633247E-05
2.827305E+03	5.522944E-04	2.609679E-05
2.867127E+03	5.541192E-04	2.585458E-05
2.906948E+03	5.560198E-04	2.560742E-05
2.946769E+03	5.582794E-04	2.536797E-05
2.986590E+03	5.610185E-04	2.514084E-05
2.996546E+03	5.617620E-04	2.508515E-05
3.006501E+03	5.626290E-04	2.503431E-05
3.016456E+03	5.634691E-04	2.498160E-05
3.026411E+03	5.644328E-04	2.493368E-05
3.036367E+03	5.654461E-04	2.488722E-05
3.046322E+03	5.665090E-04	2.484221E-05
3.056277E+03	5.676227E-04	2.479867E-05
3.066233E+03	5.688607E-04	2.475977E-05
3.076188E+03	5.700768E-04	2.471910E-05
3.086143E+03	5.714910E-04	2.468618E-05
3.096099E+03	5.728848E-04	2.465151E-05
3.106054E+03	5.744037E-04	2.462133E-05
3.116009E+03	5.760478E-04	2.459557E-05
3.125964E+03	5.777450E-04	2.457111E-05
3.135920E+03	5.795672E-04	2.455096E-05
3.145875E+03	5.815139E-04	2.453503E-05
3.155830E+03	5.835146E-04	2.452030E-05
3.165786E+03	5.857094E-04	2.451259E-05
3.175741E+03	5.879585E-04	2.450597E-05
3.185696E+03	5.903313E-04	2.450329E-05
3.195652E+03	5.928965E-04	2.450733E-05
3.205607E+03	5.955839E-04	2.451508E-05
3.215562E+03	5.983249E-04	2.452368E-05
3.225517E+03	6.013241E-04	2.454142E-05
3.235473E+03	6.044430E-04	2.456256E-05
3.245428E+03	6.076823E-04	2.458703E-05
3.255383E+03	6.111074E-04	2.461742E-05
3.265339E+03	6.147175E-04	2.465358E-05
3.275294E+03	6.184443E-04	2.469267E-05
3.285249E+03	6.223535E-04	2.473725E-05
3.295205E+03	6.265091E-04	2.478974E-05
3.305160E+03	6.308439E-04	2.484734E-05
3.315115E+03	6.352902E-04	2.490730E-05
3.325070E+03	6.400429E-04	2.497717E-05
3.335026E+03	6.449695E-04	2.505161E-05
3.344981E+03	6.500680E-04	2.513044E-05
3.354936E+03	6.554018E-04	2.521599E-05
3.364892E+03	6.609689E-04	2.530806E-05
3.374847E+03	6.667673E-04	2.540643E-05
3.384802E+03	6.727955E-04	2.551090E-05
3.394758E+03	6.790516E-04	2.562125E-05
3.404713E+03	6.855982E-04	2.573971E-05
3.414668E+03	6.923706E-04	2.586367E-05
3.424623E+03	6.994310E-04	2.599532E-05
3.434579E+03	7.067167E-04	2.613215E-05
3.444534E+03	7.143524E-04	2.627862E-05
3.454489E+03	7.222762E-04	2.643224E-05
3.464445E+03	7.304279E-04	2.659065E-05
3.474400E+03	7.389948E-04	2.676048E-05
3.484355E+03	7.478563E-04	2.693713E-05
3.494311E+03	7.570156E-04	2.712054E-05
3.504266E+03	7.665395E-04	2.731290E-05
3.514221E+03	7.764936E-04	2.751630E-05
3.524176E+03	7.867635E-04	2.772645E-05
3.534132E+03	7.974778E-04	2.794764E-05
3.544087E+03	8.085851E-04	2.817782E-05
3.554042E+03	8.201561E-04	2.841917E-05
3.563998E+03	8.322022E-04	2.867181E-05
3.573953E+03	8.446761E-04	2.893380E-05
3.583908E+03	8.577122E-04	2.920946E-05
3.593864E+03	8.712659E-04	2.949692E-05
3.603819E+03	8.854135E-04	2.979841E-05
3.613774E+03	9.001144E-04	3.011219E-05
3.623729E+03	9.154468E-04	3.044052E-05
3.633685E+03	9.313719E-04	3.078172E-05
3.643640E+03	9.480307E-04	3.114001E-05
3.653595E+03	9.653855E-04	3.151371E-05
3.663551E+03	9.835190E-04	3.190506E-05
3.673506E+03	1.002395E-03	3.231238E-05
3.683461E+03	1.022097E-03	3.273786E-05
3.693417E+03	1.042588E-03	3.317982E-05
3.703372E+03	1.064011E-03	3.364222E-05
3.713327E+03	1.086327E-03	3.412328E-05
3.723282E+03	1.109557E-03	3.462304E-05
3.733238E+03	1.133719E-03	3.514149E-05
3.743193E+03	1.158889E-03	3.568032E-05
3.753148E+03	1.185078E-03	3.623926E-05
3.763104E+03	1.212236E-03	3.681608E-05
3.773059E+03	1.240485E-03	3.741386E-05
3.783014E+03	1.269703E-03	3.802821E-05
3.792970E+03	1.300002E-03	3.866183E-05
3.802925E+03	1.331306E-03	3.931174E-05
3.812880E+03	1.363651E-03	3.997835E-05
3.822835E+03	1.396942E-03	4.065823E-05
3.832791E+03	1.431137E-03	4.134948E-05
3.842746E+03	1.466241E-03	4.205169E-05
3.852701E+03	1.502190E-03	4.276242E-05
3.862657E+03	1.538905E-03	4.347890E-05
3.872612E+03	1.576237E-03	4.419637E-05
3.882567E+03	1.614143E-03	4.491327E-05
3.892523E+03	1.652573E-03	4.562780E-05
3.902478E+03	1.691274E-03	4.633271E-05
3.912433E+03	1.730171E-03	4.702576E-05
3.922388E+03	1.769180E-03	4.770452E-05
3.932344E+03	1.808018E-03	4.836135E-05
3.942299E+03	1.846582E-03	4.899367E-05
3.952254E+03	1.884704E-03	4.959717E-05
3.962210E+03	1.922274E-03	5.016931E-05
3.972165E+03	1.958993E-03	5.070271E-05
3.982120E+03	1.994693E-03	5.119360E-05
3.992076E+03	2.029334E-03	5.164164E-05
4.002031E+03	2.062634E-03	5.204047E-05
4.011986E+03	2.094451E-03	5.238739E-05
4.021941E+03	2.124718E-03	5.268174E-05
4.031897E+03	2.153322E-03	5.292182E-05
4.041852E+03	2.180050E-03	5.310351E-05
4.051807E+03	2.204893E-03	5.322791E-05
4.061763E+03	2.227806E-03	5.329519E-05
4.071718E+03	2.248708E-03	5.330474E-05
4.081673E+03	2.267603E-03	5.325804E-05
4.091629E+03	2.284579E-03	5.315848E-05
4.101584E+03	2.299571E-03	5.300593E-05
4.111539E+03	2.312659E-03	5.280350E-05
4.121494E+03	2.323940E-03	5.255475E-05
4.131450E+03	2.333587E-03	5.226481E-05
4.141405E+03	2.341571E-03	5.193411E-05
4.151360E+03	2.348097E-03	5.156837E-05
4.161316E+03	2.353328E-03	5.117212E-05
4.171271E+03	2.357382E-03	5.074884E-05
4.181226E+03	2.360439E-03	5.030322E-05
4.191182E+03	2.362581E-03	4.983771E-05
4.201137E+03	2.364046E-03	4.935795E-05
4.211092E+03	2.365020E-03	4.886829E-05
4.221047E+03	2.365589E-03	4.837092E-05
4.231003E+03	2.365889E-03	4.786891E-05
4.240958E+03	2.366144E-03	4.736705E-05
4.250913E+03	2.366478E-03	4.686789E-05
4.260869E+03	2.367010E-03	4.637384E-05
4.270824E+03	2.367855E-03	4.588705E-05
4.280779E+03	2.369120E-03	4.540949E-05
4.290735E+03	2.370990E-03	4.494456E-05
4.300690E+03	2.373517E-03	4.449290E-05
4.310645E+03	2.376787E-03	4.405582E-05
4.320601E+03	2.380880E-03	4.363448E-05
4.330556E+03	2.385954E-03	4.323132E-05
4.340511E+03	2.391995E-03	4.284562E-05
4.350466E+03	2.399107E-03	4.247879E-05
4.360422E+03	2.407385E-03	4.213196E-05
4.370377E+03	2.416800E-03	4.180410E-05
4.380332E+03	2.427509E-03	4.149734E-05
4.390288E+03	2.439460E-03	4.121022E-05
4.400243E+03	2.452671E-03	4.094248E-05
4.410198E+03	2.467222E-03	4.069488E-05
4.420154E+03	2.483103E-03	4.046671E-05
4.430109E+03	2.500287E-03	4.025694E-05
4.440064E+03	2.518764E-03	4.006488E-05
4.450019E+03	2.538468E-03	3.988893E-05
4.459975E+03	2.559310E-03	3.972723E-05
4.469930E+03	2.581286E-03	3.957932E-05
4.479885E+03	2.604258E-03	3.944272E-05
4.489841E+03	2.628063E-03	3.931469E-05
4.499796E+03	2.652585E-03	3.919335E-05
4.509751E+03	2.677648E-03	3.907605E-05
4.519707E+03	2.703053E-03	3.895995E-05
4.529662E+03	2.728583E-03	3.884209E-05
4.539617E+03	2.754002E-03	3.871944E-05
4.549572E+03	2.779099E-03	3.858952E-05
4.559528E+03	2.803580E-03	3.844882E-05
4.569483E+03	2.827260E-03	3.829553E-05
4.579438E+03	2.849842E-03	3.812650E-05
4.589394E+03	2.871037E-03	3.793885E-05
4.599349E+03	2.890717E-03	3.773198E-05
4.609304E+03	2.908583E-03	3.750319E-05
4.619260E+03	2.924471E-03	3.725168E-05
4.629215E+03	2.938207E-03	3.697655E-05
4.639170E+03	2.949645E-03	3.667739E-05
4.649125E+03	2.958710E-03	3.635470E-05
4.659081E+03	2.965290E-03	3.600854E-05
4.669036E+03	2.969346E-03	3.563985E-05
4.678991E+03	2.970914E-03	3.525047E-05
4.688947E+03	2.969991E-03	3.484171E-05
4.698902E+03	2.966684E-03	3.441612E-05
4.708857E+03	2.961059E-03	3.397562E-05
4.718813E+03	2.953206E-03	3.352239E-05
4.728768E+03	2.943346E-03	3.305992E-05
4.738723E+03	2.931564E-03	3.259006E-05
4.748678E+03	2.918048E-03	3.211570E-05
4.758634E+03	2.902933E-03	3.163899E-05
4.768589E+03	2.886469E-03	3.116325E-05
4.778544E+03	2.869311E-03	3.069595E-05
4.788500E+03	2.852060E-03	3.024368E-05
4.798455E+03	2.835352E-03	2.981318E-05
4.808410E+03	2.819726E-03	2.940987E-05
4.818366E+03	2.805591E-03	2.903734E-05
4.828321E+03	2.793389E-03	2.869921E-05
4.838276E+03	2.783461E-03	2.839796E-05
4.848231E+03	2.776010E-03	2.813463E-05
4.858187E+03	2.771231E-03	2.791019E-05
4.868142E+03	2.769243E-03	2.772482E-05
4.878097E+03	2.770057E-03	2.757770E-05
4.888053E+03	2.773639E-03	2.746759E-05
4.898008E+03	2.779851E-03	2.739230E-05
4.907963E+03	2.788516E-03	2.734932E-05
4.917919E+03	2.799296E-03	2.733464E-05
4.927874E+03	2.811951E-03	2.734531E-05
4.937829E+03	2.826066E-03	2.737676E-05
4.947784E+03	2.841220E-03	2.742442E-05
4.957740E+03	2.857003E-03	2.748392E-05
4.967695E+03	2.872967E-03	2.755058E-05
4.977650E+03	2.888648E-03	2.761963E-05
4.987606E+03	2.903713E-03	2.768759E-05
4.997561E+03	2.917788E-03	2.775063E-05
5.007516E+03	2.930597E-03	2.780590E-05
5.017472E+03	2.941983E-03	2.785166E-05
5.027427E+03	2.951809E-03	2.788639E-05
5.037382E+03	2.960125E-03	2.791034E-05
5.047337E+03	2.966902E-03	2.792300E-05
5.057293E+03	2.972375E-03	2.792636E-05
5.067248E+03	2.976710E-03	2.792176E-05
5.077203E+03	2.980110E-03	2.791086E-05
5.087159E+03	2.982900E-03	2.789648E-05
5.097114E+03	2.985279E-03	2.788025E-05
5.107069E+03	2.987568E-03	2.786496E-05
5.117025E+03	2.989971E-03	2.785230E-05
5.126980E+03	2.992696E-03	2.784400E-05
5.136935E+03	2.995916E-03	2.784147E-05
5.146890E+03	2.999765E-03	2.784581E-05
5.156846E+03	3.004343E-03	2.785778E-05
5.166801E+03	3.009743E-03	2.787810E-05
5.176756E+03	3.015960E-03	2.790662E-05
5.186712E+03	3.022991E-03	2.794317E-05
5.196667E+03	3.030798E-03	2.798736E-05
5.206622E+03	3.039319E-03	2.803854E-05
5.216578E+03	3.048466E-03	2.809586E-05
5.226533E+03	3.058127E-03	2.815827E-05
5.236488E+03	3.068197E-03	2.822481E-05
5.246443E+03	3.078458E-03	2.829349E-05
5.256399E+03	3.088800E-03	2.836337E-05
5.266354E+03	3.098971E-03	2.843218E-05
5.276309E+03	3.108804E-03	2.849849E-05
5.286265E+03	3.118093E-03	2.856054E-05
5.296220E+03	3.126632E-03	2.861656E-05
5.306175E+03	3.134221E-03	2.866490E-05
5.316131E+03	3.140672E-03	2.870399E-05
5.326086E+03	3.145781E-03	2.873216E-05
5.336041E+03	3.149401E-03	2.874828E-05
5.345996E+03	3.151476E-03	2.875204E-05
5.355952E+03	3.151818E-03	2.874197E-05
5.365907E+03	3.150433E-03	2.871834E-05
5.375862E+03	3.147293E-03	2.868113E-05
5.385818E+03	3.142364E-03	2.863026E-05
5.395773E+03	3.135670E-03	2.856618E-05
5.405728E+03	3.127250E-03	2.848947E-05
5.415684E+03	3.117148E-03	2.840075E-05
5.425639E+03	3.105409E-03	2.830064E-05
5.435594E+03	3.092064E-03	2.818961E-05
5.445549E+03	3.077122E-03	2.806793E-05
5.455505E+03	3.060531E-03	2.793529E-05
5.465460E+03	3.042270E-03	2.779162E-05
5.475415E+03	3.022209E-03	2.763564E-05
5.485371E+03	3.000211E-03	2.746567E-05
5.495326E+03	2.976074E-03	2.727940E-05
5.505281E+03	2.949660E-03	2.707512E-05
5.515237E+03	2.920916E-03	2.685185E-05
5.525192E+03	2.889814E-03	2.660888E-05
5.535147E+03	2.856516E-03	2.634721E-05
5.545102E+03	2.821156E-03	2.606762E-05
5.555058E+03	2.784158E-03	2.577359E-05
5.565013E+03	2.745948E-03	2.546865E-05
5.574968E+03	2.707083E-03	2.515759E-05
5.584924E+03	2.668231E-03	2.484632E-05
5.594879E+03	2.630046E-03	2.454066E-05
5.604834E+03	2.593300E-03	2.424760E-05
5.614790E+03	2.558778E-03	2.397439E-05
5.624745E+03	2.527186E-03	2.372754E-05
5.634700E+03	2.499302E-03	2.351436E-05
5.644655E+03	2.475761E-03	2.334090E-05
5.654611E+03	2.457242E-03	2.321366E-05
5.664566E+03	2.444261E-03	2.313766E-05
5.674521E+03	2.437331E-03	2.311797E-05
5.684477E+03	2.436866E-03	2.315873E-05
5.694432E+03	2.443172E-03	2.326311E-05
5.704387E+03	2.456494E-03	2.343368E-05
5.714343E+03	2.477007E-03	2.367238E-05
5.724298E+03	2.504742E-03	2.397978E-05
5.734253E+03	2.539673E-03	2.435585E-05
5.744209E+03	2.581582E-03	2.479874E-05
5.754164E+03	2.630195E-03	2.530604E-05
5.764119E+03	2.685072E-03	2.587367E-05
5.774074E+03	2.745622E-03	2.649607E-05
5.784030E+03	2.811061E-03	2.716578E-05
5.793985E+03	2.880490E-03	2.787417E-05
5.803940E+03	2.952764E-03	2.861019E-05
5.813896E+03	3.026698E-03	2.936232E-05
5.823851E+03	3.100893E-03	3.011693E-05
5.833806E+03	3.173855E-03	3.085944E-05
5.843762E+03	3.244106E-03	3.157533E-05
5.853717E+03	3.310114E-03	3.224957E-05
5.863672E+03	3.370480E-03	3.286838E-05
5.873627E+03	3.423869E-03	3.341859E-05
5.883583E+03	3.469130E-03	3.388883E-05
5.893538E+03	3.505449E-03	3.427103E-05
5.903493E+03	3.532145E-03	3.455843E-05
5.913449E+03	3.548933E-03	3.474818E-05
5.923404E+03	3.555754E-03	3.483964E-05
5.933359E+03	3.552868E-03	3.483538E-05
5.943315E+03	3.540830E-03	3.474087E-05
5.953270E+03	3.520317E-03	3.456279E-05
5.963225E+03	3.492318E-03	3.431095E-05
5.973180E+03	3.457815E-03	3.399511E-05
5.983136E+03	3.418003E-03	3.362716E-05
5.993091E+03	3.373976E-03	3.321801E-05
6.003046E+03	3.326882E-03	3.277913E-05
6.013002E+03	3.277890E-03	3.232221E-05
6.022957E+03	3.227961E-03	3.185694E-05
6.032912E+03	3.178061E-03	3.139305E-05
6.042868E+03	3.129016E-03	3.093894E-05
6.052823E+03	3.081542E-03	3.050189E-05
6.062778E+03	3.036209E-03	3.008783E-05
6.072733E+03	2.993569E-03	2.970246E-05
6.082689E+03	2.953948E-03	2.934933E-05
6.092644E+03	2.917694E-03	2.903220E-05
6.102599E+03	2.884949E-03	2.875281E-05
6.112555E+03	2.855833E-03	2.851270E-05
6.122510E+03	2.830416E-03	2.831295E-05
6.132465E+03	2.808619E-03	2.815317E-05
6.142421E+03	2.790300E-03	2.803235E-05
6.152376E+03	2.775285E-03	2.794918E-05
6.162331E+03	2.763398E-03	2.790233E-05
6.172286E+03	2.754382E-03	2.788966E-05
6.182242E+03	2.747982E-03	2.790906E-05
6.192197E+03	2.743894E-03	2.795787E-05
6.202152E+03	2.741686E-03	2.803187E-05
6.212108E+03	2.740937E-03	2.812671E-05
6.222063E+03	2.741311E-03	2.823887E-05
6.232018E+03	2.742618E-03	2.836630E-05
6.241974E+03	2.744634E-03	2.850657E-05
6.251929E+03	2.747175E-03	2.865765E-05
6.261884E+03	2.750053E-03	2.881741E-05
6.271839E+03	2.753006E-03	2.898291E-05
6.281795E+03	2.755890E-03	2.915244E-05
6.291750E+03	2.758529E-03	2.932387E-05
6.301705E+03	2.760743E-03	2.949503E-05
6.311661E+03	2.762459E-03	2.966485E-05
6.321616E+03	2.763525E-03	2.983136E-05
6.331571E+03	2.763926E-03	2.999408E-05
6.341527E+03	2.763619E-03	3.015220E-05
6.351482E+03	2.762557E-03	3.030484E-05
6.361437E+03	2.760797E-03	3.045228E-05
6.371392E+03	2.758331E-03	3.059408E-05
6.381348E+03	2.755219E-03	3.073056E-05
6.391303E+03	2.751477E-03	3.086157E-05
6.401258E+03	2.747161E-03	3.098740E-05
6.411214E+03	2.742388E-03	3.110909E-05
6.421169E+03	2.737148E-03	3.122621E-05
6.431124E+03	2.731551E-03	3.133975E-05
6.441080E+03	2.725665E-03	3.145023E-05
6.451035E+03	2.719597E-03	3.155860E-05
6.460990E+03	2.713438E-03	3.166564E-05
6.470945E+03	2.707291E-03	3.177227E-05
6.480901E+03	2.701345E-03	3.188048E-05
6.490856E+03	2.695758E-03	3.199195E-05
6.500811E+03	2.690698E-03	3.210852E-05
6.510767E+03	2.686215E-03	3.223067E-05
6.520722E+03	2.682399E-03	3.235939E-05
6.530677E+03	2.679266E-03	3.249478E-05
6.540633E+03	2.676750E-03	3.263597E-05
6.550588E+03	2.674736E-03	3.278148E-05
6.560543E+03	2.673083E-03	3.292947E-05
6.570498E+03	2.671575E-03	3.307713E-05
6.580454E+03	2.669978E-03	3.322143E-05
6.590409E+03	2.667936E-03	3.335771E-05
6.600364E+03	2.665189E-03	3.348244E-05
6.610320E+03	2.661377E-03	3.359082E-05
6.620275E+03	2.656207E-03	3.367877E-05
6.630230E+03	2.649379E-03	3.374212E-05
6.640186E+03	2.640634E-03	3.377714E-05
6.650141E+03	2.629739E-03	3.378042E-05
6.660096E+03	2.616616E-03	3.375048E-05
6.670051E+03	2.601173E-03	3.368573E-05
6.680007E+03	2.583401E-03	3.358559E-05
6.689962E+03	2.563454E-03	3.345169E-05
6.699917E+03	2.541476E-03	3.328558E-05
6.709873E+03	2.517738E-03	3.309051E-05
6.719828E+03	2.492515E-03	3.286986E-05
6.729783E+03	2.466158E-03	3.262810E-05
6.739739E+03	2.439083E-03	3.237064E-05
6.749694E+03	2.411679E-03	3.210263E-05
6.759649E+03	2.384404E-03	3.183018E-05
6.769604E+03	2.357667E-03	3.155883E-05
6.779560E+03	2.331926E-03	3.129487E-05
6.789515E+03	2.307571E-03	3.104372E-05
6.799470E+03	2.285052E-03	3.081163E-05
6.809426E+03	2.264658E-03	3.060277E-05
6.819381E+03	2.246804E-03	3.042297E-05
6.829336E+03	2.231737E-03	3.027586E-05
6.839292E+03	2.219740E-03	3.016552E-05
6.849247E+03	2.211025E-03	3.009509E-05
6.859202E+03	2.205755E-03	3.006701E-05
6.869157E+03	2.204017E-03	3.008266E-05
6.879113E+03	2.205891E-03	3.014330E-05
6.889068E+03	2.211371E-03	3.024899E-05
6.899023E+03	2.220361E-03	3.039849E-05
6.908979E+03	2.232749E-03	3.059032E-05
6.918934E+03	2.248301E-03	3.082127E-05
6.928889E+03	2.266791E-03	3.108822E-05
6.938845E+03	2.287798E-03	3.138529E-05
6.948800E+03	2.310973E-03	3.170759E-05
6.958755E+03	2.335863E-03	3.204879E-05
6.968710E+03	2.361955E-03	3.240167E-05
6.978666E+03	2.388742E-03	3.275910E-05
6.988621E+03	2.415745E-03	3.311434E-05
6.998576E+03	2.442447E-03	3.346015E-05
7.008532E+03	2.468399E-03	3.379023E-05
7.018487E+03	2.493209E-03	3.409908E-05
7.028442E+03	2.516556E-03	3.438222E-05
7.038398E+03	2.538172E-03	3.463594E-05
7.048353E+03	2.557972E-03	3.485903E-05
7.058308E+03	2.575839E-03	3.504992E-05
7.068263E+03	2.591836E-03	3.520948E-05
7.078219E+03	2.606044E-03	3.533887E-05
7.088174E+03	2.618637E-03	3.544055E-05
7.098129E+03	2.629876E-03	3.551810E-05
7.108085E+03	2.639984E-03	3.557461E-05
7.118040E+03	2.649226E-03	3.561375E-05
7.127995E+03	2.657859E-03	3.563901E-05
7.137951E+03	2.666072E-03	3.565302E-05
7.147906E+03	2.674078E-03	3.565864E-05
7.157861E+03	2.681992E-03	3.565744E-05
7.167817E+03	2.689825E-03	3.564960E-05
7.177772E+03	2.697542E-03	3.563469E-05
7.187727E+03	2.705030E-03	3.561124E-05
7.197682E+03	2.712129E-03	3.557725E-05
7.207638E+03	2.718511E-03	3.552850E-05
7.217593E+03	2.723889E-03	3.546141E-05
7.227548E+03	2.727862E-03	3.537100E-05
7.237504E+03	2.730107E-03	3.525336E-05
7.247459E+03	2.730119E-03	3.510240E-05
7.257414E+03	2.727579E-03	3.491447E-05
7.267370E+03	2.722095E-03	3.468515E-05
7.277325E+03	2.713399E-03	3.441165E-05
7.287280E+03	2.701187E-03	3.409088E-05
7.297235E+03	2.685375E-03	3.372261E-05
7.307191E+03	2.665837E-03	3.330612E-05
7.317146E+03	2.642682E-03	3.284367E-05
7.327101E+03	2.615985E-03	3.233711E-05
7.337057E+03	2.586046E-03	3.179109E-05
7.347012E+03	2.553121E-03	3.120963E-05
7.356967E+03	2.517668E-03	3.059915E-05
7.366923E+03	2.480103E-03	2.996548E-05
7.376878E+03	2.440884E-03	2.931481E-05
7.386833E+03	2.400577E-03	2.865454E-05
7.396788E+03	2.359691E-03	2.799118E-05
7.406744E+03	2.318660E-03	2.733023E-05
7.416699E+03	2.277980E-03	2.667779E-05
7.426654E+03	2.238080E-03	2.603899E-05
7.436610E+03	2.199368E-03	2.541861E-05
7.446565E+03	2.162115E-03	2.481971E-05
7.456520E+03	2.126621E-03	2.424559E-05
7.466476E+03	2.093076E-03	2.369817E-05
7.476431E+03	2.061693E-03	2.317960E-05
7.486386E+03	2.032525E-03	2.269013E-05
7.496341E+03	2.005629E-03	2.223005E-05
7.506297E+03	1.981042E-03	2.179937E-05
7.516252E+03	1.958705E-03	2.139694E-05
7.526207E+03	1.938554E-03	2.102149E-05
7.536163E+03	1.920493E-03	2.067147E-05
7.546118E+03	1.904428E-03	2.034534E-05
7.556073E+03	1.890201E-03	2.004093E-05
7.566029E+03	1.877693E-03	1.975656E-05
7.575984E+03	1.866710E-03	1.948980E-05
7.585939E+03	1.857179E-03	1.923950E-05
7.595894E+03	1.849058E-03	1.900490E-05
7.605850E+03	1.842383E-03	1.878605E-05
7.615805E+03	1.837143E-03	1.858252E-05
7.625760E+03	1.833344E-03	1.839404E-05
7.635716E+03	1.831008E-03	1.822052E-05
7.645671E+03	1.830095E-03	1.806126E-05
7.655626E+03	1.830596E-03	1.791589E-05
7.665582E+03	1.832435E-03	1.778338E-05
7.675537E+03	1.835562E-03	1.766302E-05
7.685492E+03	1.839859E-03	1.755346E-05
7.695447E+03	1.845260E-03	1.745391E-05
7.705403E+03	1.851587E-03	1.736253E-05
7.715358E+03	1.858695E-03	1.727792E-05
7.725313E+03	1.866480E-03	1.719907E-05
