#wls	flux	fluxerr
1.592848E+03	3.854452E-04	1.597733E-05
1.632669E+03	3.897934E-04	1.610801E-05
1.672491E+03	3.941010E-04	1.623461E-05
1.712312E+03	3.984289E-04	1.635956E-05
1.752133E+03	4.027610E-04	1.648213E-05
1.791954E+03	4.070807E-04	1.660156E-05
1.831775E+03	4.114503E-04	1.672032E-05
1.871597E+03	4.156908E-04	1.683105E-05
1.911418E+03	4.200243E-04	1.694270E-05
1.951239E+03	4.243509E-04	1.705113E-05
1.991060E+03	4.286498E-04	1.715541E-05
2.030881E+03	4.328995E-04	1.725464E-05
2.070703E+03	4.371607E-04	1.735114E-05
2.110524E+03	4.414115E-04	1.744397E-05
2.150345E+03	4.456282E-04	1.753211E-05
2.190166E+03	4.497875E-04	1.761457E-05
2.229987E+03	4.539494E-04	1.769364E-05
2.269809E+03	4.580060E-04	1.776503E-05
2.309630E+03	4.621028E-04	1.783433E-05
2.349451E+03	4.660471E-04	1.789402E-05
2.389272E+03	4.699853E-04	1.794969E-05
2.429093E+03	4.738121E-04	1.799724E-05
2.468915E+03	4.776751E-04	1.804224E-05
2.508736E+03	4.813889E-04	1.807759E-05
2.548557E+03	4.851040E-04	1.810892E-05
2.588378E+03	4.888066E-04	1.813562E-05
2.628199E+03	4.924847E-04	1.815715E-05
2.668021E+03	4.962111E-04	1.817611E-05
2.707842E+03	4.999798E-04	1.819215E-05
2.747663E+03	5.039453E-04	1.821070E-05
2.787484E+03	5.081023E-04	1.823134E-05
2.827305E+03	5.125266E-04	1.825651E-05
2.867127E+03	5.173676E-04	1.829116E-05
2.906948E+03	5.226192E-04	1.833464E-05
2.946769E+03	5.284975E-04	1.839399E-05
2.986590E+03	5.350600E-04	1.847054E-05
2.996546E+03	5.368842E-04	1.849492E-05
3.006501E+03	5.387448E-04	1.852009E-05
3.016456E+03	5.406409E-04	1.854601E-05
3.026411E+03	5.425731E-04	1.857268E-05
3.036367E+03	5.446114E-04	1.860249E-05
3.046322E+03	5.466842E-04	1.863297E-05
3.056277E+03	5.488614E-04	1.866649E-05
3.066233E+03	5.510719E-04	1.870061E-05
3.076188E+03	5.533852E-04	1.873766E-05
3.086143E+03	5.558000E-04	1.877759E-05
3.096099E+03	5.582457E-04	1.881798E-05
3.106054E+03	5.607907E-04	1.886113E-05
3.116009E+03	5.634342E-04	1.890698E-05
3.125964E+03	5.661066E-04	1.895317E-05
3.135920E+03	5.689427E-04	1.900420E-05
3.145875E+03	5.718731E-04	1.905772E-05
3.155830E+03	5.748295E-04	1.911142E-05
3.165786E+03	5.779447E-04	1.916971E-05
3.175741E+03	5.811501E-04	1.923026E-05
3.185696E+03	5.845108E-04	1.929522E-05
3.195652E+03	5.878926E-04	1.936010E-05
3.205607E+03	5.914262E-04	1.942920E-05
3.215562E+03	5.951095E-04	1.950241E-05
3.225517E+03	5.988749E-04	1.957748E-05
3.235473E+03	6.027862E-04	1.965646E-05
3.245428E+03	6.067767E-04	1.973714E-05
3.255383E+03	6.109092E-04	1.982154E-05
3.265339E+03	6.152457E-04	1.991162E-05
3.275294E+03	6.196559E-04	2.000312E-05
3.285249E+03	6.242023E-04	2.009803E-05
3.295205E+03	6.288826E-04	2.019624E-05
3.305160E+03	6.337586E-04	2.029968E-05
3.315115E+03	6.387647E-04	2.040621E-05
3.325070E+03	6.439623E-04	2.051773E-05
3.335026E+03	6.492865E-04	2.063215E-05
3.344981E+03	6.547365E-04	2.074938E-05
3.354936E+03	6.604344E-04	2.087325E-05
3.364892E+03	6.662552E-04	2.099975E-05
3.374847E+03	6.723208E-04	2.113267E-05
3.384802E+03	6.785076E-04	2.126807E-05
3.394758E+03	6.849375E-04	2.140972E-05
3.404713E+03	6.915483E-04	2.155560E-05
3.414668E+03	6.984005E-04	2.170754E-05
3.424623E+03	7.054343E-04	2.186362E-05
3.434579E+03	7.127100E-04	2.202564E-05
3.444534E+03	7.202285E-04	2.219356E-05
3.454489E+03	7.279914E-04	2.236735E-05
3.464445E+03	7.359998E-04	2.254697E-05
3.474400E+03	7.443148E-04	2.273421E-05
3.484355E+03	7.528221E-04	2.292549E-05
3.494311E+03	7.617007E-04	2.312619E-05
3.504266E+03	7.708371E-04	2.333276E-05
3.514221E+03	7.802936E-04	2.354700E-05
3.524176E+03	7.900757E-04	2.376897E-05
3.534132E+03	8.001885E-04	2.399872E-05
3.544087E+03	8.106378E-04	2.423633E-05
3.554042E+03	8.214874E-04	2.448358E-05
3.563998E+03	8.327434E-04	2.474054E-05
3.573953E+03	8.443569E-04	2.500562E-05
3.583908E+03	8.564481E-04	2.528226E-05
3.593864E+03	8.689126E-04	2.556724E-05
3.603819E+03	8.818710E-04	2.586397E-05
3.613774E+03	8.952748E-04	2.617088E-05
3.623729E+03	9.091884E-04	2.648970E-05
3.633685E+03	9.236202E-04	2.682051E-05
3.643640E+03	9.385772E-04	2.716334E-05
3.653595E+03	9.540118E-04	2.751666E-05
3.663551E+03	9.700966E-04	2.788525E-05
3.673506E+03	9.866711E-04	2.826433E-05
3.683461E+03	1.003906E-03	2.865859E-05
3.693417E+03	1.021694E-03	2.906476E-05
3.703372E+03	1.040091E-03	2.948427E-05
3.713327E+03	1.059153E-03	2.991846E-05
3.723282E+03	1.078822E-03	3.036549E-05
3.733238E+03	1.099093E-03	3.082501E-05
3.743193E+03	1.120068E-03	3.129967E-05
3.753148E+03	1.141625E-03	3.178586E-05
3.763104E+03	1.163806E-03	3.228449E-05
3.773059E+03	1.186591E-03	3.279485E-05
3.783014E+03	1.210013E-03	3.331759E-05
3.792970E+03	1.234044E-03	3.385176E-05
3.802925E+03	1.258598E-03	3.439477E-05
3.812880E+03	1.283694E-03	3.494693E-05
3.822835E+03	1.309287E-03	3.550689E-05
3.832791E+03	1.335333E-03	3.607319E-05
3.842746E+03	1.361776E-03	3.664425E-05
3.852701E+03	1.388616E-03	3.721982E-05
3.862657E+03	1.415786E-03	3.779804E-05
3.872612E+03	1.443166E-03	3.837553E-05
3.882567E+03	1.470735E-03	3.895169E-05
3.892523E+03	1.498470E-03	3.952578E-05
3.902478E+03	1.526181E-03	4.009275E-05
3.912433E+03	1.553837E-03	4.065177E-05
3.922388E+03	1.581351E-03	4.120055E-05
3.932344E+03	1.608687E-03	4.173818E-05
3.942299E+03	1.635699E-03	4.226095E-05
3.952254E+03	1.662299E-03	4.276663E-05
3.962210E+03	1.688450E-03	4.325443E-05
3.972165E+03	1.714013E-03	4.372088E-05
3.982120E+03	1.738904E-03	4.416408E-05
3.992076E+03	1.763097E-03	4.458352E-05
4.002031E+03	1.786467E-03	4.497630E-05
4.011986E+03	1.808948E-03	4.534101E-05
4.021941E+03	1.830535E-03	4.567778E-05
4.031897E+03	1.851075E-03	4.598313E-05
4.041852E+03	1.870631E-03	4.625895E-05
4.051807E+03	1.889074E-03	4.650236E-05
4.061763E+03	1.906435E-03	4.671453E-05
4.071718E+03	1.922661E-03	4.689447E-05
4.081673E+03	1.937805E-03	4.704388E-05
4.091629E+03	1.951789E-03	4.716120E-05
4.101584E+03	1.964689E-03	4.724870E-05
4.111539E+03	1.976499E-03	4.730659E-05
4.121494E+03	1.987272E-03	4.733648E-05
4.131450E+03	1.997069E-03	4.734018E-05
4.141405E+03	2.005873E-03	4.731764E-05
4.151360E+03	2.013809E-03	4.727214E-05
4.161316E+03	2.020881E-03	4.720406E-05
4.171271E+03	2.027229E-03	4.711695E-05
4.181226E+03	2.032912E-03	4.701247E-05
4.191182E+03	2.037996E-03	4.689237E-05
4.201137E+03	2.042515E-03	4.675760E-05
4.211092E+03	2.046624E-03	4.661195E-05
4.221047E+03	2.050402E-03	4.645732E-05
4.231003E+03	2.053889E-03	4.629479E-05
4.240958E+03	2.057170E-03	4.612632E-05
4.250913E+03	2.060365E-03	4.595469E-05
4.260869E+03	2.063516E-03	4.578089E-05
4.270824E+03	2.066706E-03	4.560675E-05
4.280779E+03	2.070011E-03	4.543398E-05
4.290735E+03	2.073507E-03	4.526416E-05
4.300690E+03	2.077265E-03	4.509880E-05
4.310645E+03	2.081282E-03	4.493776E-05
4.320601E+03	2.085656E-03	4.478306E-05
4.330556E+03	2.090411E-03	4.463507E-05
4.340511E+03	2.095596E-03	4.449474E-05
4.350466E+03	2.101288E-03	4.436355E-05
4.360422E+03	2.107456E-03	4.424067E-05
4.370377E+03	2.114159E-03	4.412719E-05
4.380332E+03	2.121407E-03	4.402314E-05
4.390288E+03	2.129229E-03	4.392890E-05
4.400243E+03	2.137575E-03	4.384330E-05
4.410198E+03	2.146514E-03	4.376755E-05
4.420154E+03	2.156009E-03	4.370070E-05
4.430109E+03	2.166044E-03	4.364225E-05
4.440064E+03	2.176532E-03	4.359027E-05
4.450019E+03	2.187437E-03	4.354390E-05
4.459975E+03	2.198653E-03	4.350093E-05
4.469930E+03	2.210066E-03	4.345899E-05
4.479885E+03	2.221644E-03	4.341743E-05
4.489841E+03	2.233286E-03	4.337424E-05
4.499796E+03	2.244883E-03	4.332731E-05
4.509751E+03	2.256381E-03	4.327562E-05
4.519707E+03	2.267658E-03	4.321695E-05
4.529662E+03	2.278648E-03	4.315015E-05
4.539617E+03	2.289285E-03	4.307407E-05
4.549572E+03	2.299437E-03	4.298644E-05
4.559528E+03	2.309065E-03	4.288670E-05
4.569483E+03	2.318101E-03	4.277384E-05
4.579438E+03	2.326449E-03	4.264635E-05
4.589394E+03	2.334050E-03	4.250343E-05
4.599349E+03	2.340851E-03	4.234442E-05
4.609304E+03	2.346808E-03	4.216885E-05
4.619260E+03	2.351917E-03	4.197699E-05
4.629215E+03	2.356126E-03	4.176827E-05
4.639170E+03	2.359456E-03	4.154340E-05
4.649125E+03	2.361883E-03	4.130233E-05
4.659081E+03	2.363460E-03	4.104632E-05
4.669036E+03	2.364224E-03	4.077638E-05
4.678991E+03	2.364234E-03	4.049383E-05
4.688947E+03	2.363595E-03	4.020077E-05
4.698902E+03	2.362403E-03	3.989909E-05
4.708857E+03	2.360744E-03	3.959047E-05
4.718813E+03	2.358812E-03	3.927833E-05
4.728768E+03	2.356727E-03	3.896482E-05
4.738723E+03	2.354687E-03	3.865325E-05
4.748678E+03	2.352841E-03	3.834608E-05
4.758634E+03	2.351373E-03	3.804628E-05
4.768589E+03	2.350383E-03	3.775536E-05
4.778544E+03	2.349974E-03	3.747481E-05
4.788500E+03	2.350091E-03	3.720362E-05
4.798455E+03	2.350845E-03	3.694341E-05
4.808410E+03	2.352186E-03	3.669321E-05
4.818366E+03	2.354173E-03	3.645376E-05
4.828321E+03	2.356837E-03	3.622535E-05
4.838276E+03	2.360210E-03	3.600823E-05
4.848231E+03	2.364290E-03	3.580217E-05
4.858187E+03	2.369129E-03	3.560771E-05
4.868142E+03	2.374712E-03	3.542440E-05
4.878097E+03	2.381046E-03	3.525211E-05
4.888053E+03	2.388155E-03	3.509096E-05
4.898008E+03	2.395967E-03	3.493970E-05
4.907963E+03	2.404486E-03	3.479815E-05
4.917919E+03	2.413676E-03	3.466560E-05
4.927874E+03	2.423490E-03	3.454121E-05
4.937829E+03	2.433847E-03	3.442365E-05
4.947784E+03	2.444714E-03	3.431232E-05
4.957740E+03	2.456022E-03	3.420617E-05
4.967695E+03	2.467676E-03	3.410375E-05
4.977650E+03	2.479629E-03	3.400438E-05
4.987606E+03	2.491783E-03	3.390667E-05
4.997561E+03	2.504068E-03	3.380967E-05
5.007516E+03	2.516447E-03	3.371289E-05
5.017472E+03	2.528858E-03	3.361556E-05
5.027427E+03	2.541191E-03	3.351627E-05
5.037382E+03	2.553455E-03	3.341522E-05
5.047337E+03	2.565610E-03	3.331199E-05
5.057293E+03	2.577568E-03	3.320555E-05
5.067248E+03	2.589360E-03	3.309642E-05
5.077203E+03	2.600968E-03	3.298450E-05
5.087159E+03	2.612323E-03	3.286907E-05
5.097114E+03	2.623502E-03	3.275122E-05
5.107069E+03	2.634415E-03	3.263000E-05
5.117025E+03	2.645118E-03	3.250624E-05
5.126980E+03	2.655580E-03	3.237972E-05
5.136935E+03	2.665828E-03	3.225094E-05
5.146890E+03	2.675831E-03	3.211966E-05
5.156846E+03	2.685610E-03	3.198632E-05
5.166801E+03	2.695128E-03	3.185063E-05
5.176756E+03	2.704370E-03	3.171259E-05
5.186712E+03	2.713346E-03	3.157250E-05
5.196667E+03	2.722003E-03	3.142992E-05
5.206622E+03	2.730340E-03	3.128504E-05
5.216578E+03	2.738293E-03	3.113734E-05
5.226533E+03	2.745821E-03	3.098656E-05
5.236488E+03	2.752910E-03	3.083277E-05
5.246443E+03	2.759510E-03	3.067565E-05
5.256399E+03	2.765512E-03	3.051422E-05
5.266354E+03	2.770919E-03	3.034880E-05
5.276309E+03	2.775644E-03	3.017871E-05
5.286265E+03	2.779661E-03	3.000395E-05
5.296220E+03	2.782884E-03	2.982386E-05
5.306175E+03	2.785256E-03	2.963818E-05
5.316131E+03	2.786725E-03	2.944663E-05
5.326086E+03	2.787239E-03	2.924900E-05
5.336041E+03	2.786752E-03	2.904513E-05
5.345996E+03	2.785221E-03	2.883488E-05
5.355952E+03	2.782608E-03	2.861820E-05
5.365907E+03	2.778853E-03	2.839478E-05
5.375862E+03	2.773984E-03	2.816523E-05
5.385818E+03	2.767924E-03	2.792908E-05
5.395773E+03	2.760659E-03	2.768647E-05
5.405728E+03	2.752206E-03	2.743789E-05
5.415684E+03	2.742537E-03	2.718331E-05
5.425639E+03	2.731658E-03	2.692305E-05
5.435594E+03	2.719607E-03	2.665775E-05
5.445549E+03	2.706381E-03	2.638757E-05
5.455505E+03	2.692010E-03	2.611302E-05
5.465460E+03	2.676567E-03	2.583498E-05
5.475415E+03	2.660099E-03	2.555398E-05
5.485371E+03	2.642795E-03	2.527176E-05
5.495326E+03	2.624785E-03	2.498943E-05
5.505281E+03	2.606287E-03	2.470890E-05
5.515237E+03	2.587451E-03	2.443139E-05
5.525192E+03	2.568436E-03	2.415820E-05
5.535147E+03	2.549433E-03	2.389090E-05
5.545102E+03	2.530643E-03	2.363111E-05
5.555058E+03	2.512268E-03	2.338046E-05
5.565013E+03	2.494516E-03	2.314060E-05
5.574968E+03	2.477570E-03	2.291295E-05
5.584924E+03	2.461688E-03	2.269961E-05
5.594879E+03	2.447026E-03	2.250171E-05
5.604834E+03	2.433809E-03	2.232102E-05
5.614790E+03	2.422252E-03	2.215922E-05
5.624745E+03	2.412489E-03	2.201723E-05
5.634700E+03	2.404711E-03	2.189652E-05
5.644655E+03	2.399070E-03	2.179817E-05
5.654611E+03	2.395698E-03	2.172312E-05
5.664566E+03	2.394706E-03	2.167210E-05
5.674521E+03	2.396203E-03	2.164587E-05
5.684477E+03	2.400205E-03	2.164429E-05
5.694432E+03	2.406765E-03	2.166764E-05
5.704387E+03	2.415885E-03	2.171571E-05
5.714343E+03	2.427532E-03	2.178802E-05
5.724298E+03	2.441639E-03	2.188378E-05
5.734253E+03	2.458106E-03	2.200191E-05
5.744209E+03	2.476768E-03	2.214080E-05
5.754164E+03	2.497476E-03	2.229896E-05
5.764119E+03	2.520016E-03	2.247436E-05
5.774074E+03	2.544118E-03	2.266449E-05
5.784030E+03	2.569526E-03	2.286696E-05
5.793985E+03	2.595903E-03	2.307869E-05
5.803940E+03	2.622913E-03	2.329661E-05
5.813896E+03	2.650196E-03	2.351748E-05
5.823851E+03	2.677379E-03	2.373794E-05
5.833806E+03	2.704080E-03	2.395456E-05
5.843762E+03	2.729918E-03	2.416395E-05
5.853717E+03	2.754494E-03	2.436254E-05
5.863672E+03	2.777478E-03	2.454741E-05
5.873627E+03	2.798487E-03	2.471518E-05
5.883583E+03	2.817278E-03	2.486372E-05
5.893538E+03	2.833543E-03	2.499032E-05
5.903493E+03	2.847103E-03	2.509341E-05
5.913449E+03	2.857778E-03	2.517145E-05
5.923404E+03	2.865470E-03	2.522360E-05
5.933359E+03	2.870141E-03	2.524956E-05
5.943315E+03	2.871782E-03	2.524928E-05
5.953270E+03	2.870466E-03	2.522345E-05
5.963225E+03	2.866348E-03	2.517346E-05
5.973180E+03	2.859517E-03	2.510015E-05
5.983136E+03	2.850242E-03	2.500592E-05
5.993091E+03	2.838743E-03	2.489274E-05
6.003046E+03	2.825293E-03	2.476304E-05
6.013002E+03	2.810131E-03	2.461896E-05
6.022957E+03	2.793586E-03	2.446342E-05
6.032912E+03	2.775968E-03	2.429917E-05
6.042868E+03	2.757554E-03	2.412867E-05
6.052823E+03	2.738614E-03	2.395434E-05
6.062778E+03	2.719459E-03	2.377892E-05
6.072733E+03	2.700331E-03	2.360456E-05
6.082689E+03	2.681475E-03	2.343345E-05
6.092644E+03	2.663118E-03	2.326761E-05
6.102599E+03	2.645460E-03	2.310882E-05
6.112555E+03	2.628652E-03	2.295846E-05
6.122510E+03	2.612901E-03	2.281836E-05
6.132465E+03	2.598336E-03	2.268972E-05
6.142421E+03	2.585042E-03	2.257331E-05
6.152376E+03	2.573135E-03	2.247022E-05
6.162331E+03	2.562711E-03	2.238135E-05
6.172286E+03	2.553780E-03	2.230685E-05
6.182242E+03	2.546437E-03	2.224762E-05
6.192197E+03	2.540718E-03	2.220406E-05
6.202152E+03	2.536599E-03	2.217604E-05
6.212108E+03	2.534120E-03	2.216395E-05
6.222063E+03	2.533217E-03	2.216729E-05
6.232018E+03	2.533701E-03	2.218444E-05
6.241974E+03	2.535398E-03	2.221394E-05
6.251929E+03	2.538108E-03	2.225411E-05
6.261884E+03	2.541615E-03	2.230311E-05
6.271839E+03	2.545806E-03	2.236002E-05
6.281795E+03	2.550453E-03	2.242290E-05
6.291750E+03	2.555436E-03	2.249076E-05
6.301705E+03	2.560570E-03	2.256203E-05
6.311661E+03	2.565783E-03	2.263615E-05
6.321616E+03	2.570886E-03	2.271150E-05
6.331571E+03	2.575804E-03	2.278748E-05
6.341527E+03	2.580425E-03	2.286314E-05
6.351482E+03	2.584672E-03	2.293787E-05
6.361437E+03	2.588430E-03	2.301066E-05
6.371392E+03	2.591698E-03	2.308157E-05
6.381348E+03	2.594411E-03	2.315003E-05
6.391303E+03	2.596483E-03	2.321531E-05
6.401258E+03	2.597920E-03	2.327748E-05
6.411214E+03	2.598706E-03	2.333641E-05
6.421169E+03	2.598806E-03	2.339181E-05
6.431124E+03	2.598216E-03	2.344363E-05
6.441080E+03	2.596904E-03	2.349158E-05
6.451035E+03	2.594895E-03	2.353576E-05
6.460990E+03	2.592158E-03	2.357570E-05
6.470945E+03	2.588661E-03	2.361089E-05
6.480901E+03	2.584364E-03	2.364077E-05
6.490856E+03	2.579226E-03	2.366474E-05
6.500811E+03	2.573173E-03	2.368189E-05
6.510767E+03	2.566198E-03	2.369193E-05
6.520722E+03	2.558320E-03	2.369481E-05
6.530677E+03	2.549612E-03	2.369096E-05
6.540633E+03	2.540060E-03	2.368003E-05
6.550588E+03	2.529719E-03	2.366231E-05
6.560543E+03	2.518613E-03	2.363778E-05
6.570498E+03	2.506729E-03	2.360613E-05
6.580454E+03	2.494078E-03	2.356723E-05
6.590409E+03	2.480670E-03	2.352096E-05
6.600364E+03	2.466487E-03	2.346694E-05
6.610320E+03	2.451598E-03	2.340562E-05
6.620275E+03	2.435994E-03	2.333673E-05
6.630230E+03	2.419702E-03	2.326032E-05
6.640186E+03	2.402733E-03	2.317632E-05
6.650141E+03	2.385188E-03	2.308553E-05
6.660096E+03	2.367073E-03	2.298784E-05
6.670051E+03	2.348514E-03	2.288432E-05
6.680007E+03	2.329543E-03	2.277514E-05
6.689962E+03	2.310309E-03	2.266164E-05
6.699917E+03	2.290894E-03	2.254451E-05
6.709873E+03	2.271443E-03	2.242509E-05
6.719828E+03	2.252055E-03	2.230429E-05
6.729783E+03	2.232866E-03	2.218338E-05
6.739739E+03	2.214037E-03	2.206394E-05
6.749694E+03	2.195684E-03	2.194709E-05
6.759649E+03	2.177974E-03	2.183449E-05
6.769604E+03	2.161044E-03	2.172753E-05
6.779560E+03	2.145027E-03	2.162758E-05
6.789515E+03	2.130028E-03	2.153572E-05
6.799470E+03	2.116190E-03	2.145344E-05
6.809426E+03	2.103622E-03	2.138192E-05
6.819381E+03	2.092446E-03	2.132247E-05
6.829336E+03	2.082699E-03	2.127550E-05
6.839292E+03	2.074475E-03	2.124206E-05
6.849247E+03	2.067829E-03	2.122280E-05
6.859202E+03	2.062801E-03	2.121818E-05
6.869157E+03	2.059414E-03	2.122852E-05
6.879113E+03	2.057700E-03	2.125420E-05
6.889068E+03	2.057624E-03	2.129493E-05
6.899023E+03	2.059136E-03	2.135023E-05
6.908979E+03	2.062242E-03	2.142021E-05
6.918934E+03	2.066860E-03	2.150405E-05
6.928889E+03	2.072944E-03	2.160129E-05
6.938845E+03	2.080358E-03	2.171051E-05
6.948800E+03	2.089054E-03	2.183122E-05
6.958755E+03	2.098875E-03	2.196176E-05
6.968710E+03	2.109754E-03	2.210139E-05
6.978666E+03	2.121567E-03	2.224880E-05
6.988621E+03	2.134135E-03	2.240205E-05
6.998576E+03	2.147375E-03	2.256022E-05
7.008532E+03	2.161101E-03	2.272130E-05
7.018487E+03	2.175232E-03	2.288436E-05
7.028442E+03	2.189609E-03	2.304765E-05
7.038398E+03	2.204101E-03	2.320973E-05
7.048353E+03	2.218582E-03	2.336920E-05
7.058308E+03	2.232958E-03	2.352498E-05
7.068263E+03	2.247057E-03	2.367517E-05
7.078219E+03	2.260821E-03	2.381911E-05
7.088174E+03	2.274084E-03	2.395497E-05
7.098129E+03	2.286800E-03	2.408217E-05
7.108085E+03	2.298836E-03	2.419929E-05
7.118040E+03	2.310090E-03	2.430519E-05
7.127995E+03	2.320464E-03	2.439877E-05
7.137951E+03	2.329855E-03	2.447894E-05
7.147906E+03	2.338163E-03	2.454462E-05
7.157861E+03	2.345285E-03	2.459471E-05
7.167817E+03	2.351148E-03	2.462845E-05
7.177772E+03	2.355587E-03	2.464413E-05
7.187727E+03	2.358559E-03	2.464132E-05
7.197682E+03	2.359900E-03	2.461838E-05
7.207638E+03	2.359575E-03	2.457499E-05
7.217593E+03	2.357458E-03	2.450994E-05
7.227548E+03	2.353467E-03	2.442249E-05
7.237504E+03	2.347529E-03	2.431200E-05
7.247459E+03	2.339616E-03	2.417834E-05
7.257414E+03	2.329626E-03	2.402062E-05
7.267370E+03	2.317600E-03	2.383945E-05
7.277325E+03	2.303507E-03	2.363472E-05
7.287280E+03	2.287373E-03	2.340693E-05
7.297235E+03	2.269278E-03	2.315713E-05
7.307191E+03	2.249265E-03	2.288603E-05
7.317146E+03	2.227438E-03	2.259491E-05
7.327101E+03	2.203920E-03	2.228532E-05
7.337057E+03	2.178886E-03	2.195928E-05
7.347012E+03	2.152449E-03	2.161818E-05
7.356967E+03	2.124847E-03	2.126470E-05
7.366923E+03	2.096280E-03	2.090107E-05
7.376878E+03	2.066900E-03	2.052902E-05
7.386833E+03	2.036951E-03	2.015121E-05
7.396788E+03	2.006649E-03	1.976998E-05
7.406744E+03	1.976238E-03	1.938788E-05
7.416699E+03	1.945878E-03	1.900665E-05
7.426654E+03	1.915802E-03	1.862866E-05
7.436610E+03	1.886206E-03	1.825593E-05
7.446565E+03	1.857275E-03	1.789031E-05
7.456520E+03	1.829183E-03	1.753350E-05
7.466476E+03	1.802090E-03	1.718704E-05
7.476431E+03	1.776140E-03	1.685229E-05
7.486386E+03	1.751468E-03	1.653046E-05
7.496341E+03	1.728168E-03	1.622238E-05
7.506297E+03	1.706396E-03	1.592939E-05
7.516252E+03	1.686200E-03	1.565183E-05
7.526207E+03	1.667691E-03	1.539056E-05
7.536163E+03	1.650944E-03	1.514609E-05
7.546118E+03	1.636005E-03	1.491863E-05
7.556073E+03	1.622933E-03	1.470849E-05
7.566029E+03	1.611818E-03	1.451627E-05
7.575984E+03	1.602652E-03	1.434162E-05
7.585939E+03	1.595441E-03	1.418435E-05
7.595894E+03	1.590136E-03	1.404374E-05
7.605850E+03	1.586679E-03	1.391903E-05
7.615805E+03	1.584981E-03	1.380919E-05
7.625760E+03	1.584907E-03	1.371279E-05
7.635716E+03	1.586401E-03	1.362916E-05
7.645671E+03	1.589343E-03	1.355705E-05
7.655626E+03	1.593634E-03	1.349543E-05
7.665582E+03	1.599194E-03	1.344348E-05
7.675537E+03	1.605899E-03	1.340000E-05
7.685492E+03	1.613644E-03	1.336401E-05
7.695447E+03	1.622319E-03	1.333453E-05
7.705403E+03	1.631837E-03	1.331075E-05
7.715358E+03	1.642059E-03	1.329154E-05
7.725313E+03	1.652865E-03	1.327591E-05
