#wls	flux	fluxerr
1.592848E+03	3.732359E-04	1.667594E-05
1.632669E+03	3.776482E-04	1.681697E-05
1.672491E+03	3.819531E-04	1.695046E-05
1.712312E+03	3.863567E-04	1.708551E-05
1.752133E+03	3.906957E-04	1.721478E-05
1.791954E+03	3.951052E-04	1.734416E-05
1.831775E+03	3.994156E-04	1.746610E-05
1.871597E+03	4.038417E-04	1.758992E-05
1.911418E+03	4.082109E-04	1.770799E-05
1.951239E+03	4.125828E-04	1.782282E-05
1.991060E+03	4.169388E-04	1.793351E-05
2.030881E+03	4.212587E-04	1.803911E-05
2.070703E+03	4.256030E-04	1.814212E-05
2.110524E+03	4.299514E-04	1.824157E-05
2.150345E+03	4.342834E-04	1.833649E-05
2.190166E+03	4.385772E-04	1.842588E-05
2.229987E+03	4.428938E-04	1.851218E-05
2.269809E+03	4.471293E-04	1.859099E-05
2.309630E+03	4.513448E-04	1.866475E-05
2.349451E+03	4.556016E-04	1.873590E-05
2.389272E+03	4.597966E-04	1.880009E-05
2.429093E+03	4.639112E-04	1.885650E-05
2.468915E+03	4.680900E-04	1.891090E-05
2.508736E+03	4.722347E-04	1.895919E-05
2.548557E+03	4.764096E-04	1.900386E-05
2.588378E+03	4.806811E-04	1.904739E-05
2.628199E+03	4.849553E-04	1.908589E-05
2.668021E+03	4.893799E-04	1.912501E-05
2.707842E+03	4.939434E-04	1.916406E-05
2.747663E+03	4.987132E-04	1.920538E-05
2.787484E+03	5.037560E-04	1.925121E-05
2.827305E+03	5.091358E-04	1.930360E-05
2.867127E+03	5.149883E-04	1.936720E-05
2.906948E+03	5.212960E-04	1.944077E-05
2.946769E+03	5.283283E-04	1.953367E-05
2.986590E+03	5.361234E-04	1.964643E-05
2.996546E+03	5.381537E-04	1.967623E-05
3.006501E+03	5.402863E-04	1.970920E-05
3.016456E+03	5.425195E-04	1.974525E-05
3.026411E+03	5.447824E-04	1.978176E-05
3.036367E+03	5.470743E-04	1.981871E-05
3.046322E+03	5.494640E-04	1.985858E-05
3.056277E+03	5.518808E-04	1.989877E-05
3.066233E+03	5.543934E-04	1.994176E-05
3.076188E+03	5.570000E-04	1.998745E-05
3.086143E+03	5.596993E-04	2.003576E-05
3.096099E+03	5.624214E-04	2.008418E-05
3.106054E+03	5.652340E-04	2.013509E-05
3.116009E+03	5.681350E-04	2.018841E-05
3.125964E+03	5.711229E-04	2.024405E-05
3.135920E+03	5.741964E-04	2.030193E-05
3.145875E+03	5.773535E-04	2.036197E-05
3.155830E+03	5.806591E-04	2.042640E-05
3.165786E+03	5.839787E-04	2.049048E-05
3.175741E+03	5.874426E-04	2.055874E-05
3.185696E+03	5.909834E-04	2.062880E-05
3.195652E+03	5.945988E-04	2.070055E-05
3.205607E+03	5.983528E-04	2.077618E-05
3.215562E+03	6.022421E-04	2.085554E-05
3.225517E+03	6.062003E-04	2.093629E-05
3.235473E+03	6.102896E-04	2.102054E-05
3.245428E+03	6.145078E-04	2.110818E-05
3.255383E+03	6.187885E-04	2.119689E-05
3.265339E+03	6.232571E-04	2.129094E-05
3.275294E+03	6.277843E-04	2.138585E-05
3.285249E+03	6.324944E-04	2.148583E-05
3.295205E+03	6.373215E-04	2.158858E-05
3.305160E+03	6.422638E-04	2.169400E-05
3.315115E+03	6.473812E-04	2.180408E-05
3.325070E+03	6.526097E-04	2.191660E-05
3.335026E+03	6.580085E-04	2.203350E-05
3.344981E+03	6.635150E-04	2.215264E-05
3.354936E+03	6.692493E-04	2.227798E-05
3.364892E+03	6.750879E-04	2.240533E-05
3.374847E+03	6.811503E-04	2.253862E-05
3.384802E+03	6.873147E-04	2.267376E-05
3.394758E+03	6.937007E-04	2.281462E-05
3.404713E+03	7.002473E-04	2.295915E-05
3.414668E+03	7.070134E-04	2.310921E-05
3.424623E+03	7.139991E-04	2.326472E-05
3.434579E+03	7.211448E-04	2.342368E-05
3.444534E+03	7.285109E-04	2.358796E-05
3.454489E+03	7.360983E-04	2.375754E-05
3.464445E+03	7.439658E-04	2.393422E-05
3.474400E+03	7.520000E-04	2.411427E-05
3.484355E+03	7.603190E-04	2.430139E-05
3.494311E+03	7.689251E-04	2.449557E-05
3.504266E+03	7.778211E-04	2.469678E-05
3.514221E+03	7.869547E-04	2.490327E-05
3.524176E+03	7.963868E-04	2.511687E-05
3.534132E+03	8.061785E-04	2.533939E-05
3.544087E+03	8.162793E-04	2.556912E-05
3.554042E+03	8.266944E-04	2.580611E-05
3.563998E+03	8.374863E-04	2.605219E-05
3.573953E+03	8.486612E-04	2.630741E-05
3.583908E+03	8.602262E-04	2.657186E-05
3.593864E+03	8.721879E-04	2.684558E-05
3.603819E+03	8.845539E-04	2.712868E-05
3.613774E+03	8.973865E-04	2.742290E-05
3.623729E+03	9.106377E-04	2.772660E-05
3.633685E+03	9.243696E-04	2.804152E-05
3.643640E+03	9.385883E-04	2.836766E-05
3.653595E+03	9.533001E-04	2.870502E-05
3.663551E+03	9.685639E-04	2.905520E-05
3.673506E+03	9.843307E-04	2.941651E-05
3.683461E+03	1.000657E-03	2.979045E-05
3.693417E+03	1.017492E-03	3.017529E-05
3.703372E+03	1.034943E-03	3.057399E-05
3.713327E+03	1.052953E-03	3.098470E-05
3.723282E+03	1.071520E-03	3.140708E-05
3.733238E+03	1.090690E-03	3.184229E-05
3.743193E+03	1.110401E-03	3.228829E-05
3.753148E+03	1.130747E-03	3.274755E-05
3.763104E+03	1.151606E-03	3.321634E-05
3.773059E+03	1.173064E-03	3.369694E-05
3.783014E+03	1.195046E-03	3.418691E-05
3.792970E+03	1.217524E-03	3.468527E-05
3.802925E+03	1.240518E-03	3.519239E-05
3.812880E+03	1.263992E-03	3.570704E-05
3.822835E+03	1.287956E-03	3.622932E-05
3.832791E+03	1.312261E-03	3.675478E-05
3.842746E+03	1.336907E-03	3.728331E-05
3.852701E+03	1.361889E-03	3.781464E-05
3.862657E+03	1.387148E-03	3.834696E-05
3.872612E+03	1.412566E-03	3.887689E-05
3.882567E+03	1.438125E-03	3.940387E-05
3.892523E+03	1.463804E-03	3.992722E-05
3.902478E+03	1.489423E-03	4.044199E-05
3.912433E+03	1.514954E-03	4.094743E-05
3.922388E+03	1.540316E-03	4.144134E-05
3.932344E+03	1.565478E-03	4.192293E-05
3.942299E+03	1.590255E-03	4.238733E-05
3.952254E+03	1.614716E-03	4.283650E-05
3.962210E+03	1.638630E-03	4.326441E-05
3.972165E+03	1.662020E-03	4.367184E-05
3.982120E+03	1.684809E-03	4.405699E-05
3.992076E+03	1.706880E-03	4.441697E-05
4.002031E+03	1.728167E-03	4.475037E-05
4.011986E+03	1.748614E-03	4.505602E-05
4.021941E+03	1.768219E-03	4.533417E-05
4.031897E+03	1.786893E-03	4.558282E-05
4.041852E+03	1.804602E-03	4.580152E-05
4.051807E+03	1.821277E-03	4.598884E-05
4.061763E+03	1.837000E-03	4.614722E-05
4.071718E+03	1.851674E-03	4.627464E-05
4.081673E+03	1.865308E-03	4.637171E-05
4.091629E+03	1.877967E-03	4.644042E-05
4.101584E+03	1.889590E-03	4.647966E-05
4.111539E+03	1.900262E-03	4.649192E-05
4.121494E+03	1.909988E-03	4.647768E-05
4.131450E+03	1.918786E-03	4.643777E-05
4.141405E+03	1.926807E-03	4.637618E-05
4.151360E+03	1.934002E-03	4.629204E-05
4.161316E+03	1.940456E-03	4.618771E-05
4.171271E+03	1.946297E-03	4.606655E-05
4.181226E+03	1.951504E-03	4.592826E-05
4.191182E+03	1.956254E-03	4.577730E-05
4.201137E+03	1.960537E-03	4.561359E-05
4.211092E+03	1.964497E-03	4.544068E-05
4.221047E+03	1.968170E-03	4.525952E-05
4.231003E+03	1.971668E-03	4.507279E-05
4.240958E+03	1.975028E-03	4.488145E-05
4.250913E+03	1.978363E-03	4.468808E-05
4.260869E+03	1.981748E-03	4.449440E-05
4.270824E+03	1.985221E-03	4.430125E-05
4.280779E+03	1.988854E-03	4.411020E-05
4.290735E+03	1.992716E-03	4.392273E-05
4.300690E+03	1.996872E-03	4.374015E-05
4.310645E+03	2.001317E-03	4.356226E-05
4.320601E+03	2.006171E-03	4.339157E-05
4.330556E+03	2.011388E-03	4.322691E-05
4.340511E+03	2.017077E-03	4.307046E-05
4.350466E+03	2.023149E-03	4.292018E-05
4.360422E+03	2.029698E-03	4.277790E-05
4.370377E+03	2.036717E-03	4.264328E-05
4.380332E+03	2.044186E-03	4.251571E-05
4.390288E+03	2.052071E-03	4.239437E-05
4.400243E+03	2.060363E-03	4.227885E-05
4.410198E+03	2.069040E-03	4.216860E-05
4.420154E+03	2.078072E-03	4.206284E-05
4.430109E+03	2.087418E-03	4.196062E-05
4.440064E+03	2.097000E-03	4.186026E-05
4.450019E+03	2.106813E-03	4.176163E-05
4.459975E+03	2.116761E-03	4.166271E-05
4.469930E+03	2.126793E-03	4.156248E-05
4.479885E+03	2.136877E-03	4.146033E-05
4.489841E+03	2.146919E-03	4.135443E-05
4.499796E+03	2.156902E-03	4.124448E-05
4.509751E+03	2.166745E-03	4.112903E-05
4.519707E+03	2.176364E-03	4.100655E-05
4.529662E+03	2.185699E-03	4.087606E-05
4.539617E+03	2.194717E-03	4.073709E-05
4.549572E+03	2.203328E-03	4.058814E-05
4.559528E+03	2.211499E-03	4.042882E-05
4.569483E+03	2.219144E-03	4.025778E-05
4.579438E+03	2.226209E-03	4.007431E-05
4.589394E+03	2.232702E-03	3.987881E-05
4.599349E+03	2.238525E-03	3.966985E-05
4.609304E+03	2.243675E-03	3.944766E-05
4.619260E+03	2.248154E-03	3.921264E-05
4.629215E+03	2.251924E-03	3.896440E-05
4.639170E+03	2.254984E-03	3.870329E-05
4.649125E+03	2.257400E-03	3.843077E-05
4.659081E+03	2.259142E-03	3.814664E-05
4.669036E+03	2.260276E-03	3.785232E-05
4.678991E+03	2.260854E-03	3.754897E-05
4.688947E+03	2.260942E-03	3.723796E-05
4.698902E+03	2.260592E-03	3.692038E-05
4.708857E+03	2.259953E-03	3.659888E-05
4.718813E+03	2.259079E-03	3.627449E-05
4.728768E+03	2.258065E-03	3.594883E-05
4.738723E+03	2.257069E-03	3.562455E-05
4.748678E+03	2.256182E-03	3.530308E-05
4.758634E+03	2.255549E-03	3.498669E-05
4.768589E+03	2.255300E-03	3.467731E-05
4.778544E+03	2.255477E-03	3.437548E-05
4.788500E+03	2.256112E-03	3.408157E-05
4.798455E+03	2.257289E-03	3.379672E-05
4.808410E+03	2.258990E-03	3.352047E-05
4.818366E+03	2.261299E-03	3.325392E-05
4.828321E+03	2.264223E-03	3.299694E-05
4.838276E+03	2.267793E-03	3.274973E-05
4.848231E+03	2.272061E-03	3.251281E-05
4.858187E+03	2.276995E-03	3.228547E-05
4.868142E+03	2.282638E-03	3.206806E-05
4.878097E+03	2.288994E-03	3.186039E-05
4.888053E+03	2.296011E-03	3.166150E-05
4.898008E+03	2.303730E-03	3.147171E-05
4.907963E+03	2.312107E-03	3.129020E-05
4.917919E+03	2.321116E-03	3.111640E-05
4.927874E+03	2.330698E-03	3.094931E-05
4.937829E+03	2.340810E-03	3.078823E-05
4.947784E+03	2.351435E-03	3.063272E-05
4.957740E+03	2.362466E-03	3.048133E-05
4.967695E+03	2.373904E-03	3.033392E-05
4.977650E+03	2.385638E-03	3.018901E-05
4.987606E+03	2.397611E-03	3.004584E-05
4.997561E+03	2.409791E-03	2.990399E-05
5.007516E+03	2.422096E-03	2.976244E-05
5.017472E+03	2.434497E-03	2.962089E-05
5.027427E+03	2.446918E-03	2.947844E-05
5.037382E+03	2.459312E-03	2.933461E-05
5.047337E+03	2.471635E-03	2.918899E-05
5.057293E+03	2.483849E-03	2.904125E-05
5.067248E+03	2.495947E-03	2.889143E-05
5.077203E+03	2.507846E-03	2.873873E-05
5.087159E+03	2.519573E-03	2.858364E-05
5.097114E+03	2.531053E-03	2.842546E-05
5.107069E+03	2.542319E-03	2.826480E-05
5.117025E+03	2.553329E-03	2.810134E-05
5.126980E+03	2.564065E-03	2.793513E-05
5.136935E+03	2.574513E-03	2.776622E-05
5.146890E+03	2.584656E-03	2.759467E-05
5.156846E+03	2.594506E-03	2.742085E-05
5.166801E+03	2.603989E-03	2.724423E-05
5.176756E+03	2.613142E-03	2.706543E-05
5.186712E+03	2.621914E-03	2.688421E-05
5.196667E+03	2.630278E-03	2.670059E-05
5.206622E+03	2.638236E-03	2.651484E-05
5.216578E+03	2.645700E-03	2.632641E-05
5.226533E+03	2.652693E-03	2.613583E-05
5.236488E+03	2.659148E-03	2.594277E-05
5.246443E+03	2.665056E-03	2.574748E-05
5.256399E+03	2.670319E-03	2.554937E-05
5.266354E+03	2.674953E-03	2.534894E-05
5.276309E+03	2.678884E-03	2.514587E-05
5.286265E+03	2.682099E-03	2.494041E-05
5.296220E+03	2.684499E-03	2.473203E-05
5.306175E+03	2.686098E-03	2.452126E-05
5.316131E+03	2.686828E-03	2.430786E-05
5.326086E+03	2.686652E-03	2.409192E-05
5.336041E+03	2.685564E-03	2.387377E-05
5.345996E+03	2.683477E-03	2.365303E-05
5.355952E+03	2.680419E-03	2.343034E-05
5.365907E+03	2.676313E-03	2.320542E-05
5.375862E+03	2.671196E-03	2.297895E-05
5.385818E+03	2.665027E-03	2.275094E-05
5.395773E+03	2.657774E-03	2.252144E-05
5.405728E+03	2.649489E-03	2.229124E-05
5.415684E+03	2.640125E-03	2.206021E-05
5.425639E+03	2.629722E-03	2.182897E-05
5.435594E+03	2.618303E-03	2.159797E-05
5.445549E+03	2.605875E-03	2.136746E-05
5.455505E+03	2.592513E-03	2.113823E-05
5.465460E+03	2.578253E-03	2.091074E-05
5.475415E+03	2.563182E-03	2.068574E-05
5.485371E+03	2.547398E-03	2.046382E-05
5.495326E+03	2.531044E-03	2.024582E-05
5.505281E+03	2.514301E-03	2.003286E-05
5.515237E+03	2.497333E-03	1.982589E-05
5.525192E+03	2.480335E-03	1.962609E-05
5.535147E+03	2.463458E-03	1.943428E-05
5.545102E+03	2.446928E-03	1.925183E-05
5.555058E+03	2.430873E-03	1.907936E-05
5.565013E+03	2.415519E-03	1.891823E-05
5.574968E+03	2.401039E-03	1.876941E-05
5.584924E+03	2.387555E-03	1.863346E-05
5.594879E+03	2.375278E-03	1.851167E-05
5.604834E+03	2.364365E-03	1.840489E-05
5.614790E+03	2.354942E-03	1.831374E-05
5.624745E+03	2.347143E-03	1.823896E-05
5.634700E+03	2.341118E-03	1.818140E-05
5.644655E+03	2.336953E-03	1.814143E-05
5.654611E+03	2.334765E-03	1.811969E-05
5.664566E+03	2.334583E-03	1.811618E-05
5.674521E+03	2.336510E-03	1.813146E-05
5.684477E+03	2.340582E-03	1.816558E-05
5.694432E+03	2.346788E-03	1.821828E-05
5.704387E+03	2.355117E-03	1.828930E-05
5.714343E+03	2.365532E-03	1.837818E-05
5.724298E+03	2.377969E-03	1.848428E-05
5.734253E+03	2.392339E-03	1.860677E-05
5.744209E+03	2.408548E-03	1.874477E-05
5.754164E+03	2.426403E-03	1.889668E-05
5.764119E+03	2.445757E-03	1.906121E-05
5.774074E+03	2.466410E-03	1.923670E-05
5.784030E+03	2.488141E-03	1.942132E-05
5.793985E+03	2.510680E-03	1.961283E-05
5.803940E+03	2.533788E-03	1.980925E-05
5.813896E+03	2.557186E-03	2.000829E-05
5.823851E+03	2.580533E-03	2.020718E-05
5.833806E+03	2.603584E-03	2.040386E-05
5.843762E+03	2.626015E-03	2.059568E-05
5.853717E+03	2.647535E-03	2.078027E-05
5.863672E+03	2.667865E-03	2.095528E-05
5.873627E+03	2.686744E-03	2.111857E-05
5.883583E+03	2.703906E-03	2.126795E-05
5.893538E+03	2.719143E-03	2.140168E-05
5.903493E+03	2.732307E-03	2.151848E-05
5.913449E+03	2.743235E-03	2.161701E-05
5.923404E+03	2.751806E-03	2.169621E-05
5.933359E+03	2.757994E-03	2.175583E-05
5.943315E+03	2.761764E-03	2.179555E-05
5.953270E+03	2.763150E-03	2.181558E-05
5.963225E+03	2.762229E-03	2.181651E-05
5.973180E+03	2.759114E-03	2.179923E-05
5.983136E+03	2.753928E-03	2.176471E-05
5.993091E+03	2.746823E-03	2.171416E-05
6.003046E+03	2.738029E-03	2.164943E-05
6.013002E+03	2.727770E-03	2.157234E-05
6.022957E+03	2.716230E-03	2.148439E-05
6.032912E+03	2.703683E-03	2.138780E-05
6.042868E+03	2.690327E-03	2.128421E-05
6.052823E+03	2.676436E-03	2.117587E-05
6.062778E+03	2.662229E-03	2.106459E-05
6.072733E+03	2.647940E-03	2.095231E-05
6.082689E+03	2.633765E-03	2.084070E-05
6.092644E+03	2.619889E-03	2.073129E-05
6.102599E+03	2.606502E-03	2.062570E-05
6.112555E+03	2.593780E-03	2.052544E-05
6.122510E+03	2.581880E-03	2.043185E-05
6.132465E+03	2.570914E-03	2.034594E-05
6.142421E+03	2.561029E-03	2.026900E-05
6.152376E+03	2.552327E-03	2.020195E-05
6.162331E+03	2.544918E-03	2.014580E-05
6.172286E+03	2.538871E-03	2.010122E-05
6.182242E+03	2.534212E-03	2.006856E-05
6.192197E+03	2.531019E-03	2.004859E-05
6.202152E+03	2.529269E-03	2.004128E-05
6.212108E+03	2.528932E-03	2.004649E-05
6.222063E+03	2.530007E-03	2.006433E-05
6.232018E+03	2.532322E-03	2.009357E-05
6.241974E+03	2.535750E-03	2.013332E-05
6.251929E+03	2.540145E-03	2.018256E-05
6.261884E+03	2.545377E-03	2.024039E-05
6.271839E+03	2.551211E-03	2.030507E-05
6.281795E+03	2.557491E-03	2.037552E-05
6.291750E+03	2.564088E-03	2.045084E-05
6.301705E+03	2.570807E-03	2.052963E-05
6.311661E+03	2.577538E-03	2.061117E-05
6.321616E+03	2.584079E-03	2.069396E-05
6.331571E+03	2.590343E-03	2.077745E-05
6.341527E+03	2.596202E-03	2.086075E-05
6.351482E+03	2.601570E-03	2.094328E-05
6.361437E+03	2.606317E-03	2.102415E-05
6.371392E+03	2.610381E-03	2.110294E-05
6.381348E+03	2.613711E-03	2.117935E-05
6.391303E+03	2.616214E-03	2.125271E-05
6.401258E+03	2.617833E-03	2.132265E-05
6.411214E+03	2.618574E-03	2.138928E-05
6.421169E+03	2.618370E-03	2.145209E-05
6.431124E+03	2.617209E-03	2.151106E-05
6.441080E+03	2.615061E-03	2.156585E-05
6.451035E+03	2.611893E-03	2.161599E-05
6.460990E+03	2.607706E-03	2.166117E-05
6.470945E+03	2.602411E-03	2.170037E-05
6.480901E+03	2.596059E-03	2.173368E-05
6.490856E+03	2.588557E-03	2.176004E-05
6.500811E+03	2.579899E-03	2.177903E-05
6.510767E+03	2.570088E-03	2.179035E-05
6.520722E+03	2.559161E-03	2.179398E-05
6.530677E+03	2.547209E-03	2.179033E-05
6.540633E+03	2.534265E-03	2.177937E-05
6.550588E+03	2.520408E-03	2.176145E-05
6.560543E+03	2.505687E-03	2.173665E-05
6.570498E+03	2.490143E-03	2.170503E-05
6.580454E+03	2.473790E-03	2.166640E-05
6.590409E+03	2.456719E-03	2.162127E-05
6.600364E+03	2.438944E-03	2.156948E-05
6.610320E+03	2.420507E-03	2.151112E-05
6.620275E+03	2.401456E-03	2.144635E-05
6.630230E+03	2.381872E-03	2.137566E-05
6.640186E+03	2.361788E-03	2.129910E-05
6.650141E+03	2.341299E-03	2.121731E-05
6.660096E+03	2.320481E-03	2.113079E-05
6.670051E+03	2.299393E-03	2.103988E-05
6.680007E+03	2.278152E-03	2.094551E-05
6.689962E+03	2.256858E-03	2.084844E-05
6.699917E+03	2.235592E-03	2.074930E-05
6.709873E+03	2.214514E-03	2.064949E-05
6.719828E+03	2.193691E-03	2.054955E-05
6.729783E+03	2.173265E-03	2.045075E-05
6.739739E+03	2.153379E-03	2.035443E-05
6.749694E+03	2.134103E-03	2.026123E-05
6.759649E+03	2.115578E-03	2.017249E-05
6.769604E+03	2.097917E-03	2.008931E-05
6.779560E+03	2.081227E-03	2.001278E-05
6.789515E+03	2.065610E-03	1.994393E-05
6.799470E+03	2.051159E-03	1.988373E-05
6.809426E+03	2.037957E-03	1.983308E-05
6.819381E+03	2.026104E-03	1.979303E-05
6.829336E+03	2.015614E-03	1.976383E-05
6.839292E+03	2.006564E-03	1.974632E-05
6.849247E+03	1.999016E-03	1.974124E-05
6.859202E+03	1.992950E-03	1.974849E-05
6.869157E+03	1.988428E-03	1.976878E-05
6.879113E+03	1.985404E-03	1.980175E-05
6.889068E+03	1.983915E-03	1.984786E-05
6.899023E+03	1.983913E-03	1.990671E-05
6.908979E+03	1.985362E-03	1.997803E-05
6.918934E+03	1.988191E-03	2.006115E-05
6.928889E+03	1.992390E-03	2.015602E-05
6.938845E+03	1.997889E-03	2.026198E-05
6.948800E+03	2.004564E-03	2.037778E-05
6.958755E+03	2.012350E-03	2.050279E-05
6.968710E+03	2.021153E-03	2.063605E-05
6.978666E+03	2.030898E-03	2.077678E-05
6.988621E+03	2.041429E-03	2.092334E-05
6.998576E+03	2.052684E-03	2.107508E-05
7.008532E+03	2.064526E-03	2.123052E-05
7.018487E+03	2.076811E-03	2.138815E-05
7.028442E+03	2.089474E-03	2.154721E-05
7.038398E+03	2.102368E-03	2.170613E-05
7.048353E+03	2.115374E-03	2.186359E-05
7.058308E+03	2.128373E-03	2.201828E-05
7.068263E+03	2.141246E-03	2.216888E-05
7.078219E+03	2.153873E-03	2.231407E-05
7.088174E+03	2.166162E-03	2.245280E-05
7.098129E+03	2.177941E-03	2.258321E-05
7.108085E+03	2.189118E-03	2.270425E-05
7.118040E+03	2.199601E-03	2.281491E-05
7.127995E+03	2.209244E-03	2.291361E-05
7.137951E+03	2.217928E-03	2.299904E-05
7.147906E+03	2.225533E-03	2.306991E-05
7.157861E+03	2.231941E-03	2.312496E-05
7.167817E+03	2.237062E-03	2.316325E-05
7.177772E+03	2.240725E-03	2.318299E-05
7.187727E+03	2.242875E-03	2.318361E-05
7.197682E+03	2.243379E-03	2.316378E-05
7.207638E+03	2.242166E-03	2.312281E-05
7.217593E+03	2.239119E-03	2.305956E-05
7.227548E+03	2.234162E-03	2.297335E-05
7.237504E+03	2.227261E-03	2.286393E-05
7.247459E+03	2.218342E-03	2.273067E-05
7.257414E+03	2.207379E-03	2.257348E-05
7.267370E+03	2.194393E-03	2.239275E-05
7.277325E+03	2.179402E-03	2.218886E-05
7.287280E+03	2.162417E-03	2.196213E-05
7.297235E+03	2.143530E-03	2.171374E-05
7.307191E+03	2.122799E-03	2.144453E-05
7.317146E+03	2.100363E-03	2.115615E-05
7.327101E+03	2.076353E-03	2.085019E-05
7.337057E+03	2.050894E-03	2.052817E-05
7.347012E+03	2.024180E-03	2.019230E-05
7.356967E+03	1.996394E-03	1.984468E-05
7.366923E+03	1.967705E-03	1.948721E-05
7.376878E+03	1.938340E-03	1.912240E-05
7.386833E+03	1.908531E-03	1.875276E-05
7.396788E+03	1.878459E-03	1.838026E-05
7.406744E+03	1.848330E-03	1.800710E-05
7.416699E+03	1.818369E-03	1.763563E-05
7.426654E+03	1.788746E-03	1.726763E-05
7.436610E+03	1.759623E-03	1.690475E-05
7.446565E+03	1.731223E-03	1.654920E-05
7.456520E+03	1.703638E-03	1.620193E-05
7.466476E+03	1.677069E-03	1.586484E-05
7.476431E+03	1.651631E-03	1.553902E-05
7.486386E+03	1.627475E-03	1.522583E-05
7.496341E+03	1.604673E-03	1.492588E-05
7.506297E+03	1.583375E-03	1.464045E-05
7.516252E+03	1.563652E-03	1.437008E-05
7.526207E+03	1.545571E-03	1.411521E-05
7.536163E+03	1.529251E-03	1.387670E-05
7.546118E+03	1.514720E-03	1.365460E-05
7.556073E+03	1.502063E-03	1.344942E-05
7.566029E+03	1.491335E-03	1.326138E-05
7.575984E+03	1.482584E-03	1.309063E-05
7.585939E+03	1.475815E-03	1.293690E-05
7.595894E+03	1.470963E-03	1.279930E-05
7.605850E+03	1.467975E-03	1.267707E-05
7.615805E+03	1.466695E-03	1.256857E-05
7.625760E+03	1.467065E-03	1.247301E-05
7.635716E+03	1.468986E-03	1.238930E-05
7.645671E+03	1.472340E-03	1.231618E-05
7.655626E+03	1.477027E-03	1.225259E-05
7.665582E+03	1.482968E-03	1.219765E-05
7.675537E+03	1.490040E-03	1.215020E-05
7.685492E+03	1.498141E-03	1.210920E-05
7.695447E+03	1.507185E-03	1.207385E-05
7.705403E+03	1.517041E-03	1.204299E-05
7.715358E+03	1.527619E-03	1.201582E-05
7.725313E+03	1.538778E-03	1.199120E-05
