#wls	flux	fluxerr
1.592848E+03	4.138096E-04	1.316767E-05
1.632669E+03	4.189472E-04	1.327475E-05
1.672491E+03	4.240522E-04	1.337797E-05
1.712312E+03	4.291902E-04	1.347934E-05
1.752133E+03	4.342625E-04	1.357568E-05
1.791954E+03	4.394197E-04	1.367161E-05
1.831775E+03	4.445602E-04	1.376388E-05
1.871597E+03	4.497529E-04	1.385451E-05
1.911418E+03	4.548932E-04	1.394019E-05
1.951239E+03	4.601355E-04	1.402556E-05
1.991060E+03	4.652863E-04	1.410461E-05
2.030881E+03	4.705009E-04	1.418197E-05
2.070703E+03	4.756702E-04	1.425425E-05
2.110524E+03	4.808632E-04	1.432343E-05
2.150345E+03	4.861478E-04	1.439141E-05
2.190166E+03	4.913233E-04	1.445212E-05
2.229987E+03	4.965473E-04	1.451015E-05
2.269809E+03	5.017989E-04	1.456473E-05
2.309630E+03	5.070553E-04	1.461512E-05
2.349451E+03	5.122951E-04	1.466057E-05
2.389272E+03	5.176776E-04	1.470551E-05
2.429093E+03	5.230000E-04	1.474404E-05
2.468915E+03	5.284220E-04	1.478054E-05
2.508736E+03	5.340111E-04	1.481672E-05
2.548557E+03	5.396559E-04	1.484928E-05
2.588378E+03	5.454251E-04	1.487993E-05
2.628199E+03	5.513844E-04	1.491026E-05
2.668021E+03	5.575984E-04	1.494172E-05
2.707842E+03	5.640421E-04	1.497335E-05
2.747663E+03	5.708612E-04	1.500868E-05
2.787484E+03	5.780247E-04	1.504647E-05
2.827305E+03	5.857508E-04	1.509194E-05
2.867127E+03	5.939949E-04	1.514336E-05
2.906948E+03	6.028733E-04	1.520308E-05
2.946769E+03	6.125682E-04	1.527496E-05
2.986590E+03	6.230045E-04	1.535628E-05
2.996546E+03	6.257495E-04	1.537848E-05
3.006501E+03	6.285934E-04	1.540250E-05
3.016456E+03	6.314555E-04	1.542633E-05
3.026411E+03	6.344124E-04	1.545183E-05
3.036367E+03	6.374625E-04	1.547894E-05
3.046322E+03	6.405259E-04	1.550571E-05
3.056277E+03	6.436783E-04	1.553394E-05
3.066233E+03	6.468406E-04	1.556173E-05
3.076188E+03	6.501646E-04	1.559269E-05
3.086143E+03	6.534943E-04	1.562307E-05
3.096099E+03	6.569804E-04	1.565644E-05
3.106054E+03	6.604684E-04	1.568910E-05
3.116009E+03	6.641067E-04	1.572457E-05
3.125964E+03	6.677422E-04	1.575918E-05
3.135920E+03	6.715228E-04	1.579641E-05
3.145875E+03	6.753699E-04	1.583439E-05
3.155830E+03	6.792817E-04	1.587304E-05
3.165786E+03	6.832548E-04	1.591228E-05
3.175741E+03	6.873602E-04	1.595374E-05
3.185696E+03	6.915943E-04	1.599728E-05
3.195652E+03	6.958802E-04	1.604112E-05
3.205607E+03	7.002879E-04	1.608683E-05
3.215562E+03	7.047408E-04	1.613263E-05
3.225517E+03	7.093087E-04	1.618011E-05
3.235473E+03	7.139874E-04	1.622912E-05
3.245428E+03	7.187730E-04	1.627955E-05
3.255383E+03	7.236614E-04	1.633128E-05
3.265339E+03	7.286496E-04	1.638421E-05
3.275294E+03	7.337334E-04	1.643822E-05
3.285249E+03	7.389785E-04	1.649475E-05
3.295205E+03	7.442425E-04	1.655058E-05
3.305160E+03	7.497286E-04	1.661021E-05
3.315115E+03	7.552268E-04	1.666893E-05
3.325070E+03	7.609388E-04	1.673119E-05
3.335026E+03	7.667236E-04	1.679383E-05
3.344981E+03	7.726463E-04	1.685824E-05
3.354936E+03	7.787030E-04	1.692431E-05
3.364892E+03	7.848900E-04	1.699191E-05
3.374847E+03	7.912042E-04	1.706094E-05
3.384802E+03	7.977083E-04	1.713271E-05
3.394758E+03	8.043335E-04	1.720569E-05
3.404713E+03	8.110779E-04	1.727980E-05
3.414668E+03	8.180038E-04	1.735633E-05
3.424623E+03	8.250451E-04	1.743382E-05
3.434579E+03	8.323290E-04	1.751493E-05
3.444534E+03	8.397259E-04	1.759687E-05
3.454489E+03	8.473627E-04	1.768224E-05
3.464445E+03	8.551758E-04	1.776965E-05
3.474400E+03	8.631661E-04	1.785908E-05
3.484355E+03	8.713971E-04	1.795178E-05
3.494311E+03	8.798089E-04	1.804644E-05
3.504266E+03	8.884651E-04	1.814431E-05
3.514221E+03	8.973697E-04	1.824541E-05
3.524176E+03	9.065262E-04	1.834973E-05
3.534132E+03	9.159397E-04	1.845729E-05
3.544087E+03	9.256753E-04	1.856933E-05
3.554042E+03	9.356793E-04	1.868468E-05
3.563998E+03	9.459596E-04	1.880341E-05
3.573953E+03	9.566416E-04	1.892793E-05
3.583908E+03	9.676158E-04	1.905596E-05
3.593864E+03	9.790080E-04	1.918988E-05
3.603819E+03	9.907689E-04	1.932860E-05
3.613774E+03	1.002908E-03	1.947221E-05
3.623729E+03	1.015494E-03	1.962190E-05
3.633685E+03	1.028478E-03	1.977662E-05
3.643640E+03	1.041985E-03	1.993863E-05
3.653595E+03	1.055911E-03	2.010578E-05
3.663551E+03	1.070377E-03	2.028028E-05
3.673506E+03	1.085336E-03	2.046104E-05
3.683461E+03	1.100796E-03	2.064808E-05
3.693417E+03	1.116872E-03	2.084342E-05
3.703372E+03	1.133460E-03	2.104489E-05
3.713327E+03	1.150616E-03	2.125341E-05
3.723282E+03	1.168341E-03	2.146882E-05
3.733238E+03	1.186687E-03	2.169190E-05
3.743193E+03	1.205593E-03	2.192134E-05
3.753148E+03	1.225105E-03	2.215782E-05
3.763104E+03	1.245209E-03	2.240089E-05
3.773059E+03	1.265834E-03	2.264911E-05
3.783014E+03	1.287066E-03	2.290384E-05
3.792970E+03	1.308823E-03	2.316346E-05
3.802925E+03	1.331073E-03	2.342724E-05
3.812880E+03	1.353832E-03	2.369529E-05
3.822835E+03	1.377054E-03	2.396668E-05
3.832791E+03	1.400637E-03	2.423950E-05
3.842746E+03	1.424578E-03	2.451357E-05
3.852701E+03	1.448814E-03	2.478771E-05
3.862657E+03	1.473277E-03	2.506068E-05
3.872612E+03	1.497894E-03	2.533115E-05
3.882567E+03	1.522639E-03	2.559865E-05
3.892523E+03	1.547322E-03	2.585997E-05
3.902478E+03	1.571961E-03	2.611544E-05
3.912433E+03	1.596466E-03	2.636355E-05
3.922388E+03	1.620691E-03	2.660198E-05
3.932344E+03	1.644543E-03	2.682928E-05
3.942299E+03	1.667980E-03	2.704488E-05
3.952254E+03	1.690909E-03	2.724742E-05
3.962210E+03	1.713139E-03	2.743400E-05
3.972165E+03	1.734735E-03	2.760587E-05
3.982120E+03	1.755466E-03	2.775958E-05
3.992076E+03	1.775357E-03	2.789579E-05
4.002031E+03	1.794342E-03	2.801373E-05
4.011986E+03	1.812264E-03	2.811125E-05
4.021941E+03	1.829124E-03	2.818873E-05
4.031897E+03	1.844933E-03	2.824663E-05
4.041852E+03	1.859569E-03	2.828345E-05
4.051807E+03	1.873017E-03	2.829935E-05
4.061763E+03	1.885323E-03	2.829537E-05
4.071718E+03	1.896449E-03	2.827134E-05
4.081673E+03	1.906417E-03	2.822794E-05
4.091629E+03	1.915217E-03	2.816539E-05
4.101584E+03	1.922938E-03	2.808538E-05
4.111539E+03	1.929547E-03	2.798780E-05
4.121494E+03	1.935199E-03	2.787520E-05
4.131450E+03	1.939839E-03	2.774715E-05
4.141405E+03	1.943596E-03	2.760579E-05
4.151360E+03	1.946561E-03	2.745269E-05
4.161316E+03	1.948750E-03	2.728836E-05
4.171271E+03	1.950309E-03	2.711508E-05
4.181226E+03	1.951305E-03	2.693401E-05
4.191182E+03	1.951813E-03	2.674635E-05
4.201137E+03	1.951949E-03	2.655387E-05
4.211092E+03	1.951828E-03	2.635827E-05
4.221047E+03	1.951495E-03	2.616024E-05
4.231003E+03	1.951070E-03	2.596150E-05
4.240958E+03	1.950635E-03	2.576317E-05
4.250913E+03	1.950307E-03	2.556684E-05
4.260869E+03	1.950134E-03	2.537311E-05
4.270824E+03	1.950262E-03	2.518389E-05
4.280779E+03	1.950703E-03	2.499926E-05
4.290735E+03	1.951629E-03	2.482136E-05
4.300690E+03	1.953013E-03	2.464975E-05
4.310645E+03	1.954988E-03	2.448599E-05
4.320601E+03	1.957582E-03	2.433032E-05
4.330556E+03	1.960880E-03	2.418364E-05
4.340511E+03	1.964866E-03	2.404561E-05
4.350466E+03	1.969605E-03	2.391686E-05
4.360422E+03	1.975083E-03	2.379706E-05
4.370377E+03	1.981298E-03	2.368603E-05
4.380332E+03	1.988200E-03	2.358304E-05
4.390288E+03	1.995814E-03	2.348824E-05
4.400243E+03	2.004083E-03	2.340083E-05
4.410198E+03	2.012934E-03	2.331984E-05
4.420154E+03	2.022303E-03	2.324446E-05
4.430109E+03	2.032088E-03	2.317342E-05
4.440064E+03	2.042229E-03	2.310599E-05
4.450019E+03	2.052737E-03	2.304225E-05
4.459975E+03	2.063582E-03	2.298185E-05
4.469930E+03	2.074697E-03	2.292400E-05
4.479885E+03	2.086110E-03	2.286904E-05
4.489841E+03	2.097680E-03	2.281539E-05
4.499796E+03	2.109364E-03	2.276264E-05
4.509751E+03	2.121087E-03	2.271001E-05
4.519707E+03	2.132766E-03	2.265672E-05
4.529662E+03	2.144290E-03	2.260167E-05
4.539617E+03	2.155573E-03	2.254409E-05
4.549572E+03	2.166500E-03	2.248292E-05
4.559528E+03	2.176990E-03	2.241750E-05
4.569483E+03	2.186936E-03	2.234692E-05
4.579438E+03	2.196266E-03	2.227067E-05
4.589394E+03	2.204917E-03	2.218836E-05
4.599349E+03	2.212782E-03	2.209915E-05
4.609304E+03	2.219876E-03	2.200346E-05
4.619260E+03	2.226090E-03	2.190048E-05
4.629215E+03	2.231441E-03	2.179064E-05
4.639170E+03	2.235931E-03	2.167425E-05
4.649125E+03	2.239552E-03	2.155149E-05
4.659081E+03	2.242310E-03	2.142269E-05
4.669036E+03	2.244308E-03	2.128907E-05
4.678991E+03	2.245551E-03	2.115092E-05
4.688947E+03	2.246110E-03	2.100912E-05
4.698902E+03	2.246089E-03	2.086484E-05
4.708857E+03	2.245572E-03	2.071904E-05
4.718813E+03	2.244614E-03	2.057240E-05
4.728768E+03	2.243322E-03	2.042602E-05
4.738723E+03	2.241769E-03	2.028070E-05
4.748678E+03	2.240014E-03	2.013707E-05
4.758634E+03	2.238151E-03	1.999605E-05
4.768589E+03	2.236201E-03	1.985793E-05
4.778544E+03	2.234348E-03	1.972440E-05
4.788500E+03	2.232777E-03	1.959712E-05
4.798455E+03	2.231623E-03	1.947728E-05
4.808410E+03	2.231022E-03	1.936604E-05
4.818366E+03	2.231062E-03	1.926406E-05
4.828321E+03	2.231837E-03	1.917200E-05
4.838276E+03	2.233396E-03	1.909011E-05
4.848231E+03	2.235794E-03	1.901870E-05
4.858187E+03	2.239070E-03	1.895793E-05
4.868142E+03	2.243219E-03	1.890762E-05
4.878097E+03	2.248247E-03	1.886766E-05
4.888053E+03	2.254170E-03	1.883802E-05
4.898008E+03	2.260912E-03	1.881796E-05
4.907963E+03	2.268488E-03	1.880745E-05
4.917919E+03	2.276797E-03	1.880555E-05
4.927874E+03	2.285805E-03	1.881186E-05
4.937829E+03	2.295443E-03	1.882571E-05
4.947784E+03	2.305610E-03	1.884620E-05
4.957740E+03	2.316249E-03	1.887277E-05
4.967695E+03	2.327275E-03	1.890467E-05
4.977650E+03	2.338601E-03	1.894113E-05
4.987606E+03	2.350116E-03	1.898118E-05
4.997561E+03	2.361758E-03	1.902430E-05
5.007516E+03	2.373449E-03	1.906981E-05
5.017472E+03	2.385113E-03	1.911707E-05
5.027427E+03	2.396681E-03	1.916548E-05
5.037382E+03	2.408090E-03	1.921454E-05
5.047337E+03	2.419287E-03	1.926378E-05
5.057293E+03	2.430226E-03	1.931281E-05
5.067248E+03	2.440893E-03	1.936151E-05
5.077203E+03	2.451231E-03	1.940941E-05
5.087159E+03	2.461213E-03	1.945627E-05
5.097114E+03	2.470822E-03	1.950193E-05
5.107069E+03	2.480065E-03	1.954645E-05
5.117025E+03	2.488929E-03	1.958969E-05
5.126980E+03	2.497379E-03	1.963137E-05
5.136935E+03	2.505403E-03	1.967136E-05
5.146890E+03	2.513043E-03	1.971000E-05
5.156846E+03	2.520235E-03	1.974674E-05
5.166801E+03	2.526990E-03	1.978168E-05
5.176756E+03	2.533293E-03	1.981467E-05
5.186712E+03	2.539122E-03	1.984554E-05
5.196667E+03	2.544457E-03	1.987410E-05
5.206622E+03	2.549269E-03	1.990013E-05
5.216578E+03	2.553531E-03	1.992339E-05
5.226533E+03	2.557209E-03	1.994362E-05
5.236488E+03	2.560268E-03	1.996053E-05
5.246443E+03	2.562697E-03	1.997404E-05
5.256399E+03	2.564432E-03	1.998362E-05
5.266354E+03	2.565432E-03	1.998896E-05
5.276309E+03	2.565684E-03	1.998994E-05
5.286265E+03	2.565096E-03	1.998584E-05
5.296220E+03	2.563708E-03	1.997698E-05
5.306175E+03	2.561408E-03	1.996245E-05
5.316131E+03	2.558213E-03	1.994240E-05
5.326086E+03	2.554096E-03	1.991659E-05
5.336041E+03	2.548981E-03	1.988442E-05
5.345996E+03	2.542900E-03	1.984614E-05
5.355952E+03	2.535840E-03	1.980162E-05
5.365907E+03	2.527742E-03	1.975039E-05
5.375862E+03	2.518659E-03	1.969285E-05
5.385818E+03	2.508571E-03	1.962881E-05
5.395773E+03	2.497517E-03	1.955857E-05
5.405728E+03	2.485467E-03	1.948186E-05
5.415684E+03	2.472502E-03	1.939929E-05
5.425639E+03	2.458606E-03	1.931071E-05
5.435594E+03	2.443871E-03	1.921682E-05
5.445549E+03	2.428297E-03	1.911758E-05
5.455505E+03	2.411989E-03	1.901378E-05
5.465460E+03	2.394955E-03	1.890542E-05
5.475415E+03	2.377318E-03	1.879334E-05
5.485371E+03	2.359187E-03	1.867826E-05
5.495326E+03	2.340633E-03	1.856065E-05
5.505281E+03	2.321849E-03	1.844189E-05
5.515237E+03	2.302894E-03	1.832235E-05
5.525192E+03	2.283945E-03	1.820334E-05
5.535147E+03	2.265121E-03	1.808571E-05
5.545102E+03	2.246568E-03	1.797054E-05
5.555058E+03	2.228433E-03	1.785894E-05
5.565013E+03	2.210870E-03	1.775207E-05
5.574968E+03	2.194036E-03	1.765115E-05
5.584924E+03	2.178085E-03	1.755738E-05
5.594879E+03	2.163193E-03	1.747215E-05
5.604834E+03	2.149489E-03	1.739649E-05
5.614790E+03	2.137119E-03	1.733157E-05
5.624745E+03	2.126219E-03	1.727852E-05
5.634700E+03	2.116939E-03	1.723857E-05
5.644655E+03	2.109352E-03	1.721234E-05
5.654611E+03	2.103602E-03	1.720104E-05
5.664566E+03	2.099753E-03	1.720526E-05
5.674521E+03	2.097892E-03	1.722575E-05
5.684477E+03	2.098025E-03	1.726264E-05
5.694432E+03	2.100201E-03	1.731637E-05
5.704387E+03	2.104440E-03	1.738720E-05
5.714343E+03	2.110680E-03	1.747467E-05
5.724298E+03	2.118895E-03	1.757863E-05
5.734253E+03	2.129009E-03	1.769853E-05
5.744209E+03	2.140924E-03	1.783360E-05
5.754164E+03	2.154510E-03	1.798283E-05
5.764119E+03	2.169590E-03	1.814479E-05
5.774074E+03	2.185984E-03	1.831800E-05
5.784030E+03	2.203505E-03	1.850095E-05
5.793985E+03	2.221902E-03	1.869155E-05
5.803940E+03	2.240949E-03	1.888791E-05
5.813896E+03	2.260334E-03	1.908739E-05
5.823851E+03	2.279822E-03	1.928801E-05
5.833806E+03	2.299082E-03	1.948693E-05
5.843762E+03	2.317869E-03	1.968205E-05
5.853717E+03	2.335853E-03	1.987052E-05
5.863672E+03	2.352781E-03	2.005013E-05
5.873627E+03	2.368371E-03	2.021841E-05
5.883583E+03	2.382410E-03	2.037346E-05
5.893538E+03	2.394669E-03	2.051323E-05
5.903493E+03	2.404973E-03	2.063617E-05
5.913449E+03	2.413189E-03	2.074101E-05
5.923404E+03	2.419249E-03	2.082709E-05
5.933359E+03	2.423057E-03	2.089350E-05
5.943315E+03	2.424636E-03	2.094033E-05
5.953270E+03	2.424028E-03	2.096788E-05
5.963225E+03	2.421296E-03	2.097662E-05
5.973180E+03	2.416567E-03	2.096756E-05
5.983136E+03	2.410003E-03	2.094206E-05
5.993091E+03	2.401823E-03	2.090197E-05
6.003046E+03	2.392199E-03	2.084874E-05
6.013002E+03	2.381372E-03	2.078446E-05
6.022957E+03	2.369618E-03	2.071151E-05
6.032912E+03	2.357154E-03	2.063177E-05
6.042868E+03	2.344290E-03	2.054797E-05
6.052823E+03	2.331214E-03	2.046178E-05
6.062778E+03	2.318226E-03	2.037584E-05
6.072733E+03	2.305519E-03	2.029189E-05
6.082689E+03	2.293336E-03	2.021213E-05
6.092644E+03	2.281858E-03	2.013818E-05
6.102599E+03	2.271244E-03	2.007151E-05
6.112555E+03	2.261694E-03	2.001396E-05
6.122510E+03	2.253318E-03	1.996656E-05
6.132465E+03	2.246219E-03	1.993031E-05
6.142421E+03	2.240498E-03	1.990619E-05
6.152376E+03	2.236208E-03	1.989474E-05
6.162331E+03	2.233394E-03	1.989645E-05
6.172286E+03	2.232012E-03	1.991103E-05
6.182242E+03	2.232039E-03	1.993833E-05
6.192197E+03	2.233447E-03	1.997822E-05
6.202152E+03	2.236148E-03	2.002996E-05
6.212108E+03	2.240075E-03	2.009302E-05
6.222063E+03	2.245129E-03	2.016652E-05
6.232018E+03	2.251119E-03	2.024880E-05
6.241974E+03	2.257907E-03	2.033865E-05
6.251929E+03	2.265281E-03	2.043420E-05
6.261884E+03	2.273094E-03	2.053413E-05
6.271839E+03	2.281150E-03	2.063670E-05
6.281795E+03	2.289255E-03	2.074015E-05
6.291750E+03	2.297245E-03	2.084301E-05
6.301705E+03	2.304940E-03	2.094363E-05
6.311661E+03	2.312195E-03	2.104069E-05
6.321616E+03	2.318833E-03	2.113256E-05
6.331571E+03	2.324718E-03	2.121798E-05
6.341527E+03	2.329776E-03	2.129626E-05
6.351482E+03	2.333909E-03	2.136644E-05
6.361437E+03	2.336987E-03	2.142734E-05
6.371392E+03	2.338973E-03	2.147854E-05
6.381348E+03	2.339847E-03	2.151985E-05
6.391303E+03	2.339537E-03	2.155053E-05
6.401258E+03	2.338057E-03	2.157068E-05
6.411214E+03	2.335387E-03	2.158009E-05
6.421169E+03	2.331523E-03	2.157864E-05
6.431124E+03	2.326519E-03	2.156681E-05
6.441080E+03	2.320343E-03	2.154424E-05
6.451035E+03	2.313021E-03	2.151112E-05
6.460990E+03	2.304638E-03	2.146813E-05
6.470945E+03	2.295214E-03	2.141537E-05
6.480901E+03	2.284825E-03	2.135344E-05
6.490856E+03	2.273603E-03	2.128348E-05
6.500811E+03	2.261680E-03	2.120664E-05
6.510767E+03	2.249100E-03	2.112324E-05
6.520722E+03	2.235864E-03	2.103323E-05
6.530677E+03	2.222023E-03	2.093700E-05
6.540633E+03	2.207514E-03	2.083390E-05
6.550588E+03	2.192377E-03	2.072421E-05
6.560543E+03	2.176631E-03	2.060805E-05
6.570498E+03	2.160258E-03	2.048520E-05
6.580454E+03	2.143293E-03	2.035590E-05
6.590409E+03	2.125776E-03	2.022050E-05
6.600364E+03	2.107685E-03	2.007872E-05
6.610320E+03	2.089123E-03	1.993147E-05
6.620275E+03	2.070082E-03	1.977867E-05
6.630230E+03	2.050635E-03	1.962093E-05
6.640186E+03	2.030837E-03	1.945877E-05
6.650141E+03	2.010732E-03	1.929257E-05
6.660096E+03	1.990440E-03	1.912346E-05
6.670051E+03	1.970022E-03	1.895198E-05
6.680007E+03	1.949548E-03	1.877881E-05
6.689962E+03	1.929160E-03	1.860530E-05
6.699917E+03	1.908921E-03	1.843206E-05
6.709873E+03	1.888963E-03	1.826037E-05
6.719828E+03	1.869403E-03	1.809135E-05
6.729783E+03	1.850379E-03	1.792636E-05
6.739739E+03	1.831966E-03	1.776614E-05
6.749694E+03	1.814306E-03	1.761208E-05
6.759649E+03	1.797491E-03	1.746511E-05
6.769604E+03	1.781677E-03	1.732675E-05
6.779560E+03	1.766948E-03	1.719786E-05
6.789515E+03	1.753384E-03	1.707925E-05
6.799470E+03	1.741118E-03	1.697223E-05
6.809426E+03	1.730191E-03	1.687724E-05
6.819381E+03	1.720696E-03	1.679521E-05
6.829336E+03	1.712695E-03	1.672678E-05
6.839292E+03	1.706218E-03	1.667225E-05
6.849247E+03	1.701343E-03	1.663241E-05
6.859202E+03	1.698055E-03	1.660713E-05
6.869157E+03	1.696408E-03	1.659695E-05
6.879113E+03	1.696360E-03	1.660147E-05
6.889068E+03	1.697919E-03	1.662078E-05
6.899023E+03	1.701060E-03	1.665463E-05
6.908979E+03	1.705726E-03	1.670245E-05
6.918934E+03	1.711909E-03	1.676414E-05
6.928889E+03	1.719529E-03	1.683893E-05
6.938845E+03	1.728497E-03	1.692592E-05
6.948800E+03	1.738754E-03	1.702450E-05
6.958755E+03	1.750237E-03	1.713404E-05
6.968710E+03	1.762811E-03	1.725318E-05
6.978666E+03	1.776401E-03	1.738115E-05
6.988621E+03	1.790905E-03	1.751693E-05
6.998576E+03	1.806243E-03	1.765970E-05
7.008532E+03	1.822266E-03	1.780796E-05
7.018487E+03	1.838890E-03	1.796087E-05
7.028442E+03	1.856012E-03	1.811736E-05
7.038398E+03	1.873527E-03	1.827640E-05
7.048353E+03	1.891333E-03	1.843694E-05
7.058308E+03	1.909351E-03	1.859819E-05
7.068263E+03	1.927433E-03	1.875867E-05
7.078219E+03	1.945524E-03	1.891784E-05
7.088174E+03	1.963495E-03	1.907442E-05
7.098129E+03	1.981242E-03	1.922736E-05
7.108085E+03	1.998651E-03	1.937556E-05
7.118040E+03	2.015605E-03	1.951789E-05
7.127995E+03	2.032006E-03	1.965340E-05
7.137951E+03	2.047695E-03	1.978055E-05
7.147906E+03	2.062532E-03	1.989801E-05
7.157861E+03	2.076364E-03	2.000435E-05
7.167817E+03	2.089061E-03	2.009833E-05
7.177772E+03	2.100428E-03	2.017814E-05
7.187727E+03	2.110321E-03	2.024247E-05
7.197682E+03	2.118539E-03	2.028945E-05
7.207638E+03	2.124935E-03	2.031777E-05
7.217593E+03	2.129314E-03	2.032567E-05
7.227548E+03	2.131543E-03	2.031202E-05
7.237504E+03	2.131452E-03	2.027531E-05
7.247459E+03	2.128943E-03	2.021477E-05
7.257414E+03	2.123918E-03	2.012962E-05
7.267370E+03	2.116308E-03	2.001940E-05
7.277325E+03	2.106049E-03	1.988367E-05
7.287280E+03	2.093172E-03	1.972292E-05
7.297235E+03	2.077717E-03	1.953774E-05
7.307191E+03	2.059766E-03	1.932908E-05
7.317146E+03	2.039440E-03	1.909828E-05
7.327101E+03	2.016926E-03	1.884728E-05
7.337057E+03	1.992387E-03	1.857781E-05
7.347012E+03	1.966049E-03	1.829214E-05
7.356967E+03	1.938186E-03	1.799297E-05
7.366923E+03	1.909064E-03	1.768295E-05
7.376878E+03	1.878990E-03	1.736503E-05
7.386833E+03	1.848197E-03	1.704150E-05
7.396788E+03	1.817023E-03	1.671555E-05
7.406744E+03	1.785747E-03	1.638984E-05
7.416699E+03	1.754616E-03	1.606667E-05
7.426654E+03	1.723886E-03	1.574845E-05
7.436610E+03	1.693797E-03	1.543735E-05
7.446565E+03	1.664542E-03	1.513518E-05
7.456520E+03	1.636320E-03	1.484370E-05
7.466476E+03	1.609305E-03	1.456448E-05
7.476431E+03	1.583628E-03	1.429865E-05
7.486386E+03	1.559441E-03	1.404756E-05
7.496341E+03	1.536853E-03	1.381211E-05
7.506297E+03	1.515914E-03	1.359269E-05
7.516252E+03	1.496737E-03	1.339025E-05
7.526207E+03	1.479340E-03	1.320485E-05
7.536163E+03	1.463785E-03	1.303696E-05
7.546118E+03	1.450103E-03	1.288672E-05
7.556073E+03	1.438293E-03	1.275401E-05
7.566029E+03	1.428380E-03	1.263896E-05
7.575984E+03	1.420359E-03	1.254141E-05
7.585939E+03	1.414190E-03	1.246091E-05
7.595894E+03	1.409829E-03	1.239698E-05
7.605850E+03	1.407237E-03	1.234918E-05
7.615805E+03	1.406327E-03	1.231669E-05
7.625760E+03	1.407028E-03	1.229881E-05
7.635716E+03	1.409283E-03	1.229496E-05
7.645671E+03	1.412973E-03	1.230406E-05
7.655626E+03	1.418053E-03	1.232567E-05
7.665582E+03	1.424418E-03	1.235885E-05
7.675537E+03	1.431998E-03	1.240296E-05
7.685492E+03	1.440661E-03	1.245683E-05
7.695447E+03	1.450351E-03	1.251996E-05
7.705403E+03	1.460946E-03	1.259132E-05
7.715358E+03	1.472361E-03	1.267016E-05
7.725313E+03	1.484445E-03	1.275521E-05
