#wls	flux	fluxerr
1.592848E+03	1.725313E-04	7.811609E-05
1.632669E+03	1.762200E-04	7.926127E-05
1.672491E+03	1.799980E-04	8.041369E-05
1.712312E+03	1.838276E-04	8.155488E-05
1.752133E+03	1.877735E-04	8.271204E-05
1.791954E+03	1.917609E-04	8.385052E-05
1.831775E+03	1.958567E-04	8.499796E-05
1.871597E+03	2.000569E-04	8.615066E-05
1.911418E+03	2.043569E-04	8.730466E-05
1.951239E+03	2.087135E-04	8.843959E-05
1.991060E+03	2.131973E-04	8.958351E-05
2.030881E+03	2.177642E-04	9.071561E-05
2.070703E+03	2.224477E-04	9.184773E-05
2.110524E+03	2.272421E-04	9.297510E-05
2.150345E+03	2.321404E-04	9.409251E-05
2.190166E+03	2.371778E-04	9.521170E-05
2.229987E+03	2.423481E-04	9.632727E-05
2.269809E+03	2.476005E-04	9.741646E-05
2.309630E+03	2.530572E-04	9.852452E-05
2.349451E+03	2.586240E-04	9.961126E-05
2.389272E+03	2.643805E-04	1.007042E-04
2.429093E+03	2.703187E-04	1.017966E-04
2.468915E+03	2.764300E-04	1.028813E-04
2.508736E+03	2.827500E-04	1.039676E-04
2.548557E+03	2.893142E-04	1.050639E-04
2.588378E+03	2.961117E-04	1.061615E-04
2.628199E+03	3.032224E-04	1.072836E-04
2.668021E+03	3.106327E-04	1.084193E-04
2.707842E+03	3.183729E-04	1.095729E-04
2.747663E+03	3.265182E-04	1.107632E-04
2.787484E+03	3.350466E-04	1.119747E-04
2.827305E+03	3.440254E-04	1.132218E-04
2.867127E+03	3.535174E-04	1.145157E-04
2.906948E+03	3.635320E-04	1.158493E-04
2.946769E+03	3.741181E-04	1.172272E-04
2.986590E+03	3.854077E-04	1.186783E-04
2.996546E+03	3.883256E-04	1.190464E-04
3.006501E+03	3.913028E-04	1.194228E-04
3.016456E+03	3.942916E-04	1.197926E-04
3.026411E+03	3.973373E-04	1.201694E-04
3.036367E+03	4.004386E-04	1.205526E-04
3.046322E+03	4.035939E-04	1.209414E-04
3.056277E+03	4.068018E-04	1.213351E-04
3.066233E+03	4.100155E-04	1.217195E-04
3.076188E+03	4.133249E-04	1.221212E-04
3.086143E+03	4.166824E-04	1.225257E-04
3.096099E+03	4.200866E-04	1.229324E-04
3.106054E+03	4.235357E-04	1.233404E-04
3.116009E+03	4.270283E-04	1.237491E-04
3.125964E+03	4.305626E-04	1.241578E-04
3.135920E+03	4.341818E-04	1.245787E-04
3.145875E+03	4.378386E-04	1.249977E-04
3.155830E+03	4.415765E-04	1.254272E-04
3.165786E+03	4.453479E-04	1.258531E-04
3.175741E+03	4.491958E-04	1.262875E-04
3.185696E+03	4.530734E-04	1.267167E-04
3.195652E+03	4.570230E-04	1.271525E-04
3.205607E+03	4.610419E-04	1.275937E-04
3.215562E+03	4.651276E-04	1.280392E-04
3.225517E+03	4.692339E-04	1.284761E-04
3.235473E+03	4.734460E-04	1.289274E-04
3.245428E+03	4.776732E-04	1.293680E-04
3.255383E+03	4.820006E-04	1.298207E-04
3.265339E+03	4.863818E-04	1.302726E-04
3.275294E+03	4.908135E-04	1.307225E-04
3.285249E+03	4.953362E-04	1.311809E-04
3.295205E+03	4.999038E-04	1.316351E-04
3.305160E+03	5.045559E-04	1.320952E-04
3.315115E+03	5.092465E-04	1.325489E-04
3.325070E+03	5.140580E-04	1.330172E-04
3.335026E+03	5.189013E-04	1.334766E-04
3.344981E+03	5.237735E-04	1.339261E-04
3.354936E+03	5.287558E-04	1.343862E-04
3.364892E+03	5.338441E-04	1.348553E-04
3.374847E+03	5.389511E-04	1.353109E-04
3.384802E+03	5.441568E-04	1.357728E-04
3.394758E+03	5.494158E-04	1.362293E-04
3.404713E+03	5.547251E-04	1.366792E-04
3.414668E+03	5.601629E-04	1.371415E-04
3.424623E+03	5.656438E-04	1.375947E-04
3.434579E+03	5.712054E-04	1.380477E-04
3.444534E+03	5.768444E-04	1.384991E-04
3.454489E+03	5.825580E-04	1.389479E-04
3.464445E+03	5.883436E-04	1.393931E-04
3.474400E+03	5.942396E-04	1.398433E-04
3.484355E+03	6.002041E-04	1.402880E-04
3.494311E+03	6.062770E-04	1.407363E-04
3.504266E+03	6.124579E-04	1.411874E-04
3.514221E+03	6.187093E-04	1.416320E-04
3.524176E+03	6.251116E-04	1.420883E-04
3.534132E+03	6.315917E-04	1.425386E-04
3.544087E+03	6.382310E-04	1.430011E-04
3.554042E+03	6.450356E-04	1.434760E-04
3.563998E+03	6.519751E-04	1.439559E-04
3.573953E+03	6.590586E-04	1.444420E-04
3.583908E+03	6.663342E-04	1.449439E-04
3.593864E+03	6.738503E-04	1.454712E-04
3.603819E+03	6.815458E-04	1.460095E-04
3.613774E+03	6.895095E-04	1.465767E-04
3.623729E+03	6.977202E-04	1.471670E-04
3.633685E+03	7.061962E-04	1.477828E-04
3.643640E+03	7.150287E-04	1.484417E-04
3.653595E+03	7.241655E-04	1.491311E-04
3.663551E+03	7.336645E-04	1.498613E-04
3.673506E+03	7.435477E-04	1.506347E-04
3.683461E+03	7.538381E-04	1.514540E-04
3.693417E+03	7.645945E-04	1.523288E-04
3.703372E+03	7.758041E-04	1.532542E-04
3.713327E+03	7.875254E-04	1.542391E-04
3.723282E+03	7.997798E-04	1.552851E-04
3.733238E+03	8.125533E-04	1.563866E-04
3.743193E+03	8.259348E-04	1.575579E-04
3.753148E+03	8.399057E-04	1.587923E-04
3.763104E+03	8.544800E-04	1.600892E-04
3.773059E+03	8.696681E-04	1.614475E-04
3.783014E+03	8.855107E-04	1.628713E-04
3.792970E+03	9.019736E-04	1.643510E-04
3.802925E+03	9.191219E-04	1.658949E-04
3.812880E+03	9.368734E-04	1.674848E-04
3.822835E+03	9.552094E-04	1.691140E-04
3.832791E+03	9.741713E-04	1.707868E-04
3.842746E+03	9.936876E-04	1.724873E-04
3.852701E+03	1.013712E-03	1.742046E-04
3.862657E+03	1.034187E-03	1.759261E-04
3.872612E+03	1.055047E-03	1.776384E-04
3.882567E+03	1.076213E-03	1.793263E-04
3.892523E+03	1.097635E-03	1.809795E-04
3.902478E+03	1.119180E-03	1.825752E-04
3.912433E+03	1.140743E-03	1.840957E-04
3.922388E+03	1.162214E-03	1.855230E-04
3.932344E+03	1.183477E-03	1.868395E-04
3.942299E+03	1.204415E-03	1.880278E-04
3.952254E+03	1.224910E-03	1.890714E-04
3.962210E+03	1.244847E-03	1.899551E-04
3.972165E+03	1.264118E-03	1.906653E-04
3.982120E+03	1.282585E-03	1.911853E-04
3.992076E+03	1.300190E-03	1.915105E-04
4.002031E+03	1.316818E-03	1.916289E-04
4.011986E+03	1.332435E-03	1.915407E-04
4.021941E+03	1.346916E-03	1.912337E-04
4.031897E+03	1.360257E-03	1.907135E-04
4.041852E+03	1.372401E-03	1.899780E-04
4.051807E+03	1.383340E-03	1.890329E-04
4.061763E+03	1.393083E-03	1.878858E-04
4.071718E+03	1.401622E-03	1.865421E-04
4.081673E+03	1.409029E-03	1.850178E-04
4.091629E+03	1.415294E-03	1.833178E-04
4.101584E+03	1.420483E-03	1.814569E-04
4.111539E+03	1.424707E-03	1.794547E-04
4.121494E+03	1.427959E-03	1.773158E-04
4.131450E+03	1.430395E-03	1.750645E-04
4.141405E+03	1.432023E-03	1.727067E-04
4.151360E+03	1.433010E-03	1.702663E-04
4.161316E+03	1.433402E-03	1.677524E-04
4.171271E+03	1.433308E-03	1.651810E-04
4.181226E+03	1.432808E-03	1.625640E-04
4.191182E+03	1.432011E-03	1.599159E-04
4.201137E+03	1.430997E-03	1.572472E-04
4.211092E+03	1.429844E-03	1.545678E-04
4.221047E+03	1.428685E-03	1.518927E-04
4.231003E+03	1.427569E-03	1.492273E-04
4.240958E+03	1.426570E-03	1.465792E-04
4.250913E+03	1.425838E-03	1.439631E-04
4.260869E+03	1.425394E-03	1.413799E-04
4.270824E+03	1.425334E-03	1.388375E-04
4.280779E+03	1.425775E-03	1.363455E-04
4.290735E+03	1.426783E-03	1.339077E-04
4.300690E+03	1.428428E-03	1.315276E-04
4.310645E+03	1.430822E-03	1.292123E-04
4.320601E+03	1.434031E-03	1.269638E-04
4.330556E+03	1.438141E-03	1.247857E-04
4.340511E+03	1.443238E-03	1.226809E-04
4.350466E+03	1.449405E-03	1.206513E-04
4.360422E+03	1.456743E-03	1.187000E-04
4.370377E+03	1.465305E-03	1.168253E-04
4.380332E+03	1.475159E-03	1.150265E-04
4.390288E+03	1.486388E-03	1.133037E-04
4.400243E+03	1.499022E-03	1.116523E-04
4.410198E+03	1.513126E-03	1.100704E-04
4.420154E+03	1.528687E-03	1.085500E-04
4.430109E+03	1.545765E-03	1.070882E-04
4.440064E+03	1.564317E-03	1.056750E-04
4.450019E+03	1.584370E-03	1.043054E-04
4.459975E+03	1.605839E-03	1.029671E-04
4.469930E+03	1.628687E-03	1.016514E-04
4.479885E+03	1.652824E-03	1.003470E-04
4.489841E+03	1.678092E-03	9.903893E-05
4.499796E+03	1.704346E-03	9.771447E-05
4.509751E+03	1.731389E-03	9.635902E-05
4.519707E+03	1.759017E-03	9.495908E-05
4.529662E+03	1.787000E-03	9.350129E-05
4.539617E+03	1.815039E-03	9.197045E-05
4.549572E+03	1.842862E-03	9.035490E-05
4.559528E+03	1.870189E-03	8.864439E-05
4.569483E+03	1.896737E-03	8.683059E-05
4.579438E+03	1.922183E-03	8.490536E-05
4.589394E+03	1.946289E-03	8.286650E-05
4.599349E+03	1.968821E-03	8.071345E-05
4.609304E+03	1.989550E-03	7.844766E-05
4.619260E+03	2.008334E-03	7.607535E-05
4.629215E+03	2.025000E-03	7.360271E-05
4.639170E+03	2.039515E-03	7.104204E-05
4.649125E+03	2.051793E-03	6.840431E-05
4.659081E+03	2.061866E-03	6.570497E-05
4.669036E+03	2.069734E-03	6.295867E-05
4.678991E+03	2.075540E-03	6.018450E-05
4.688947E+03	2.079341E-03	5.739891E-05
4.698902E+03	2.081334E-03	5.462215E-05
4.708857E+03	2.081677E-03	5.187323E-05
4.718813E+03	2.080587E-03	4.917252E-05
4.728768E+03	2.078313E-03	4.654104E-05
4.738723E+03	2.075131E-03	4.400040E-05
4.748678E+03	2.071294E-03	4.157191E-05
4.758634E+03	2.067146E-03	3.927912E-05
4.768589E+03	2.062955E-03	3.714462E-05
4.778544E+03	2.059007E-03	3.519211E-05
4.788500E+03	2.055504E-03	3.344451E-05
4.798455E+03	2.052713E-03	3.192628E-05
4.808410E+03	2.050834E-03	3.066015E-05
4.818366E+03	2.050145E-03	2.966820E-05
4.828321E+03	2.050801E-03	2.896703E-05
4.838276E+03	2.053048E-03	2.856818E-05
4.848231E+03	2.056996E-03	2.846377E-05
4.858187E+03	2.062793E-03	2.863363E-05
4.868142E+03	2.070532E-03	2.905212E-05
4.878097E+03	2.080243E-03	2.969043E-05
4.888053E+03	2.091934E-03	3.051909E-05
4.898008E+03	2.105564E-03	3.150922E-05
4.907963E+03	2.121041E-03	3.263342E-05
4.917919E+03	2.138153E-03	3.386513E-05
4.927874E+03	2.156749E-03	3.518139E-05
4.937829E+03	2.176515E-03	3.655909E-05
4.947784E+03	2.197188E-03	3.797793E-05
4.957740E+03	2.218428E-03	3.941801E-05
4.967695E+03	2.239853E-03	4.085993E-05
4.977650E+03	2.261147E-03	4.228650E-05
4.987606E+03	2.281916E-03	4.367988E-05
4.997561E+03	2.301891E-03	4.502529E-05
5.007516E+03	2.320754E-03	4.630769E-05
5.017472E+03	2.338344E-03	4.751576E-05
5.027427E+03	2.354517E-03	4.863932E-05
5.037382E+03	2.369173E-03	4.966982E-05
5.047337E+03	2.382327E-03	5.060195E-05
5.057293E+03	2.394027E-03	5.143189E-05
5.067248E+03	2.404344E-03	5.215711E-05
5.077203E+03	2.413428E-03	5.277764E-05
5.087159E+03	2.421452E-03	5.329471E-05
5.097114E+03	2.428517E-03	5.370865E-05
5.107069E+03	2.434795E-03	5.402192E-05
5.117025E+03	2.440417E-03	5.423659E-05
5.126980E+03	2.445516E-03	5.435525E-05
5.136935E+03	2.450152E-03	5.437922E-05
5.146890E+03	2.454380E-03	5.431011E-05
5.156846E+03	2.458255E-03	5.414983E-05
5.166801E+03	2.461758E-03	5.389901E-05
5.176756E+03	2.464900E-03	5.355927E-05
5.186712E+03	2.467624E-03	5.313117E-05
5.196667E+03	2.469938E-03	5.261703E-05
5.206622E+03	2.471738E-03	5.201723E-05
5.216578E+03	2.472963E-03	5.133362E-05
5.226533E+03	2.473597E-03	5.056952E-05
5.236488E+03	2.473544E-03	4.972719E-05
5.246443E+03	2.472729E-03	4.881004E-05
5.256399E+03	2.471096E-03	4.782263E-05
5.266354E+03	2.468537E-03	4.676938E-05
5.276309E+03	2.464967E-03	4.565608E-05
5.286265E+03	2.460321E-03	4.449003E-05
5.296220E+03	2.454514E-03	4.327922E-05
5.306175E+03	2.447461E-03	4.203298E-05
5.316131E+03	2.439086E-03	4.076214E-05
5.326086E+03	2.429320E-03	3.947916E-05
5.336041E+03	2.418109E-03	3.819820E-05
5.345996E+03	2.405437E-03	3.693563E-05
5.355952E+03	2.391257E-03	3.570876E-05
5.365907E+03	2.375587E-03	3.453729E-05
5.375862E+03	2.358442E-03	3.344184E-05
5.385818E+03	2.339852E-03	3.244387E-05
5.395773E+03	2.319867E-03	3.156493E-05
5.405728E+03	2.298549E-03	3.082573E-05
5.415684E+03	2.275976E-03	3.024491E-05
5.425639E+03	2.252231E-03	2.983781E-05
5.435594E+03	2.227430E-03	2.961460E-05
5.445549E+03	2.201645E-03	2.956818E-05
5.455505E+03	2.174993E-03	2.967979E-05
5.465460E+03	2.147543E-03	2.992708E-05
5.475415E+03	2.119342E-03	3.028618E-05
5.485371E+03	2.090390E-03	3.073248E-05
5.495326E+03	2.060627E-03	3.124132E-05
5.505281E+03	2.030029E-03	3.179004E-05
5.515237E+03	1.998595E-03	3.235826E-05
5.525192E+03	1.966384E-03	3.292867E-05
5.535147E+03	1.933442E-03	3.348600E-05
5.545102E+03	1.899940E-03	3.401941E-05
5.555058E+03	1.866045E-03	3.452023E-05
5.565013E+03	1.831970E-03	3.498286E-05
5.574968E+03	1.798009E-03	3.540532E-05
5.584924E+03	1.764472E-03	3.578798E-05
5.594879E+03	1.731672E-03	3.613325E-05
5.604834E+03	1.699959E-03	3.644596E-05
5.614790E+03	1.669682E-03	3.673258E-05
5.624745E+03	1.641184E-03	3.700086E-05
5.634700E+03	1.614796E-03	3.725945E-05
5.644655E+03	1.590807E-03	3.751709E-05
5.654611E+03	1.569494E-03	3.778302E-05
5.664566E+03	1.551117E-03	3.806664E-05
5.674521E+03	1.535851E-03	3.837569E-05
5.684477E+03	1.523892E-03	3.871860E-05
5.694432E+03	1.515333E-03	3.910120E-05
5.704387E+03	1.510250E-03	3.952876E-05
5.714343E+03	1.508687E-03	4.000542E-05
5.724298E+03	1.510611E-03	4.053285E-05
5.734253E+03	1.515939E-03	4.111088E-05
5.744209E+03	1.524569E-03	4.173820E-05
5.754164E+03	1.536331E-03	4.241110E-05
5.764119E+03	1.551005E-03	4.312375E-05
5.774074E+03	1.568288E-03	4.386740E-05
5.784030E+03	1.587886E-03	4.463284E-05
5.793985E+03	1.609389E-03	4.540712E-05
5.803940E+03	1.632383E-03	4.617665E-05
5.813896E+03	1.656392E-03	4.692570E-05
5.823851E+03	1.680884E-03	4.763668E-05
5.833806E+03	1.705329E-03	4.829201E-05
5.843762E+03	1.729143E-03	4.887274E-05
5.853717E+03	1.751742E-03	4.936007E-05
5.863672E+03	1.772604E-03	4.973753E-05
5.873627E+03	1.791172E-03	4.998826E-05
5.883583E+03	1.806972E-03	5.009859E-05
5.893538E+03	1.819618E-03	5.005819E-05
5.903493E+03	1.828790E-03	4.985954E-05
5.913449E+03	1.834249E-03	4.949839E-05
5.923404E+03	1.835864E-03	4.897441E-05
5.933359E+03	1.833670E-03	4.829267E-05
5.943315E+03	1.827763E-03	4.746058E-05
5.953270E+03	1.818366E-03	4.648940E-05
5.963225E+03	1.805798E-03	4.539327E-05
5.973180E+03	1.790449E-03	4.418811E-05
5.983136E+03	1.772824E-03	4.289263E-05
5.993091E+03	1.753408E-03	4.152447E-05
6.003046E+03	1.732765E-03	4.010259E-05
6.013002E+03	1.711450E-03	3.864483E-05
6.022957E+03	1.690027E-03	3.716818E-05
6.032912E+03	1.669003E-03	3.568727E-05
6.042868E+03	1.648872E-03	3.421523E-05
6.052823E+03	1.630102E-03	3.276352E-05
6.062778E+03	1.613118E-03	3.134150E-05
6.072733E+03	1.598266E-03	2.995593E-05
6.082689E+03	1.585897E-03	2.861270E-05
6.092644E+03	1.576300E-03	2.731575E-05
6.102599E+03	1.569695E-03	2.606716E-05
6.112555E+03	1.566343E-03	2.486932E-05
6.122510E+03	1.566408E-03	2.372283E-05
6.132465E+03	1.570072E-03	2.262870E-05
6.142421E+03	1.577474E-03	2.158775E-05
6.152376E+03	1.588693E-03	2.060091E-05
6.162331E+03	1.603783E-03	1.967019E-05
6.172286E+03	1.622699E-03	1.879852E-05
6.182242E+03	1.645421E-03	1.799193E-05
6.192197E+03	1.671810E-03	1.725851E-05
6.202152E+03	1.701735E-03	1.661049E-05
6.212108E+03	1.734900E-03	1.606277E-05
6.222063E+03	1.770982E-03	1.563421E-05
6.232018E+03	1.809669E-03	1.534680E-05
6.241974E+03	1.850516E-03	1.522226E-05
6.251929E+03	1.892968E-03	1.527402E-05
6.261884E+03	1.936463E-03	1.549050E-05
6.271839E+03	1.980397E-03	1.584854E-05
6.281795E+03	2.024168E-03	1.631998E-05
6.291750E+03	2.067177E-03	1.687390E-05
6.301705E+03	2.108909E-03	1.747944E-05
6.311661E+03	2.148888E-03	1.810703E-05
6.321616E+03	2.186691E-03	1.872962E-05
6.331571E+03	2.222047E-03	1.932420E-05
6.341527E+03	2.254684E-03	1.987086E-05
6.351482E+03	2.284513E-03	2.035458E-05
6.361437E+03	2.311488E-03	2.076406E-05
6.371392E+03	2.335662E-03	2.109231E-05
6.381348E+03	2.357108E-03	2.133585E-05
6.391303E+03	2.376023E-03	2.149573E-05
6.401258E+03	2.392566E-03	2.157604E-05
6.411214E+03	2.406988E-03	2.158521E-05
6.421169E+03	2.419497E-03	2.153485E-05
6.431124E+03	2.430316E-03	2.144046E-05
6.441080E+03	2.439624E-03	2.132107E-05
6.451035E+03	2.447601E-03	2.119970E-05
6.460990E+03	2.454391E-03	2.110298E-05
6.470945E+03	2.460050E-03	2.106039E-05
6.480901E+03	2.464646E-03	2.110420E-05
6.490856E+03	2.468188E-03	2.126749E-05
6.500811E+03	2.470631E-03	2.158205E-05
6.510767E+03	2.472018E-03	2.207728E-05
6.520722E+03	2.472405E-03	2.277177E-05
6.530677E+03	2.471820E-03	2.365624E-05
6.540633E+03	2.470300E-03	2.471126E-05
6.550588E+03	2.467780E-03	2.591377E-05
6.560543E+03	2.464160E-03	2.723933E-05
6.570498E+03	2.459358E-03	2.866411E-05
6.580454E+03	2.453237E-03	3.016479E-05
6.590409E+03	2.445614E-03	3.171883E-05
6.600364E+03	2.436325E-03	3.330537E-05
6.610320E+03	2.425207E-03	3.490488E-05
6.620275E+03	2.412141E-03	3.649968E-05
6.630230E+03	2.396953E-03	3.807241E-05
6.640186E+03	2.379621E-03	3.960899E-05
6.650141E+03	2.360118E-03	4.109640E-05
6.660096E+03	2.338449E-03	4.252311E-05
6.670051E+03	2.314735E-03	4.388077E-05
6.680007E+03	2.289131E-03	4.516287E-05
6.689962E+03	2.261847E-03	4.636525E-05
6.699917E+03	2.233122E-03	4.748567E-05
6.709873E+03	2.203333E-03	4.852627E-05
6.719828E+03	2.172741E-03	4.948819E-05
6.729783E+03	2.141755E-03	5.037733E-05
6.739739E+03	2.110747E-03	5.120029E-05
6.749694E+03	2.080119E-03	5.196585E-05
6.759649E+03	2.050201E-03	5.268242E-05
6.769604E+03	2.021387E-03	5.336122E-05
6.779560E+03	1.994056E-03	5.401435E-05
6.789515E+03	1.968524E-03	5.465326E-05
6.799470E+03	1.945148E-03	5.529153E-05
6.809426E+03	1.924149E-03	5.593963E-05
6.819381E+03	1.905847E-03	5.661158E-05
6.829336E+03	1.890441E-03	5.731829E-05
6.839292E+03	1.878135E-03	5.807127E-05
6.849247E+03	1.869029E-03	5.887896E-05
6.859202E+03	1.863269E-03	5.975133E-05
6.869157E+03	1.860893E-03	6.069480E-05
6.879113E+03	1.861933E-03	6.171546E-05
6.889068E+03	1.866355E-03	6.281684E-05
6.899023E+03	1.874046E-03	6.399950E-05
6.908979E+03	1.884911E-03	6.526397E-05
6.918934E+03	1.898711E-03	6.660522E-05
6.928889E+03	1.915222E-03	6.801805E-05
6.938845E+03	1.934150E-03	6.949402E-05
6.948800E+03	1.955136E-03	7.102160E-05
6.958755E+03	1.977858E-03	7.258977E-05
6.968710E+03	2.001926E-03	7.418439E-05
6.978666E+03	2.026893E-03	7.578843E-05
6.988621E+03	2.052393E-03	7.738724E-05
6.998576E+03	2.078085E-03	7.896658E-05
7.008532E+03	2.103591E-03	8.051047E-05
7.018487E+03	2.128693E-03	8.200861E-05
7.028442E+03	2.153186E-03	8.345124E-05
7.038398E+03	2.176892E-03	8.482943E-05
7.048353E+03	2.199816E-03	8.614149E-05
7.058308E+03	2.221961E-03	8.738580E-05
7.068263E+03	2.243429E-03	8.856477E-05
7.078219E+03	2.264409E-03	8.968455E-05
7.088174E+03	2.285076E-03	9.075091E-05
7.098129E+03	2.305688E-03	9.177313E-05
7.108085E+03	2.326419E-03	9.275734E-05
7.118040E+03	2.347568E-03	9.371485E-05
7.127995E+03	2.369220E-03	9.464846E-05
7.137951E+03	2.391547E-03	9.556449E-05
7.147906E+03	2.414581E-03	9.646379E-05
7.157861E+03	2.438231E-03	9.734226E-05
7.167817E+03	2.462358E-03	9.819401E-05
7.177772E+03	2.486648E-03	9.900625E-05
7.187727E+03	2.510732E-03	9.976415E-05
7.197682E+03	2.534092E-03	1.004474E-04
7.207638E+03	2.556072E-03	1.010305E-04
7.217593E+03	2.576020E-03	1.014887E-04
7.227548E+03	2.593080E-03	1.017898E-04
7.237504E+03	2.606487E-03	1.019064E-04
7.247459E+03	2.615368E-03	1.018076E-04
7.257414E+03	2.618922E-03	1.014662E-04
7.267370E+03	2.616456E-03	1.008605E-04
7.277325E+03	2.607337E-03	9.997217E-05
7.287280E+03	2.591162E-03	9.879264E-05
7.297235E+03	2.567698E-03	9.732057E-05
7.307191E+03	2.536900E-03	9.556245E-05
7.317146E+03	2.499059E-03	9.353770E-05
7.327101E+03	2.454566E-03	9.126938E-05
7.337057E+03	2.404087E-03	8.879053E-05
7.347012E+03	2.348526E-03	8.614233E-05
7.356967E+03	2.288760E-03	8.336397E-05
7.366923E+03	2.225875E-03	8.050112E-05
7.376878E+03	2.160955E-03	7.759808E-05
7.386833E+03	2.095039E-03	7.469609E-05
7.396788E+03	2.029110E-03	7.183310E-05
7.406744E+03	1.964120E-03	6.904458E-05
7.416699E+03	1.900856E-03	6.635895E-05
7.426654E+03	1.840057E-03	6.380189E-05
7.436610E+03	1.782254E-03	6.139098E-05
7.446565E+03	1.727903E-03	5.914041E-05
7.456520E+03	1.677310E-03	5.705879E-05
7.466476E+03	1.630625E-03	5.514783E-05
7.476431E+03	1.588004E-03	5.340668E-05
7.486386E+03	1.549399E-03	5.182749E-05
7.496341E+03	1.514727E-03	5.040178E-05
7.506297E+03	1.483845E-03	4.911932E-05
7.516252E+03	1.456552E-03	4.796852E-05
7.526207E+03	1.432609E-03	4.693680E-05
7.536163E+03	1.411722E-03	4.601021E-05
7.546118E+03	1.393620E-03	4.517585E-05
7.556073E+03	1.377984E-03	4.441966E-05
7.566029E+03	1.364528E-03	4.372888E-05
7.575984E+03	1.352998E-03	4.309202E-05
7.585939E+03	1.343216E-03	4.250038E-05
7.595894E+03	1.335067E-03	4.194719E-05
7.605850E+03	1.328548E-03	4.142953E-05
7.615805E+03	1.323650E-03	4.094406E-05
7.625760E+03	1.320402E-03	4.048875E-05
7.635716E+03	1.318807E-03	4.006062E-05
7.645671E+03	1.318831E-03	3.965548E-05
7.655626E+03	1.320452E-03	3.926946E-05
7.665582E+03	1.323585E-03	3.889673E-05
7.675537E+03	1.328154E-03	3.853175E-05
7.685492E+03	1.334043E-03	3.816782E-05
7.695447E+03	1.341097E-03	3.779713E-05
7.705403E+03	1.349163E-03	3.741215E-05
7.715358E+03	1.358099E-03	3.700580E-05
7.725313E+03	1.367742E-03	3.657060E-05
