#wls	flux	fluxerr
1.592848E+03	9.695038E-05	8.439156E-05
1.632669E+03	9.980866E-05	8.620970E-05
1.672491E+03	1.027618E-04	8.805986E-05
1.712312E+03	1.058101E-04	8.993924E-05
1.752133E+03	1.089533E-04	9.184459E-05
1.791954E+03	1.122116E-04	9.378968E-05
1.831775E+03	1.155646E-04	9.575397E-05
1.871597E+03	1.190327E-04	9.775091E-05
1.911418E+03	1.226157E-04	9.977660E-05
1.951239E+03	1.263132E-04	1.018268E-04
1.991060E+03	1.301242E-04	1.038966E-04
2.030881E+03	1.340710E-04	1.059998E-04
2.070703E+03	1.381531E-04	1.081313E-04
2.110524E+03	1.423697E-04	1.102858E-04
2.150345E+03	1.467445E-04	1.124765E-04
2.190166E+03	1.512510E-04	1.146780E-04
2.229987E+03	1.559393E-04	1.169227E-04
2.269809E+03	1.607545E-04	1.191638E-04
2.309630E+03	1.657749E-04	1.214536E-04
2.349451E+03	1.709998E-04	1.237842E-04
2.389272E+03	1.763984E-04	1.261265E-04
2.429093E+03	1.820244E-04	1.285116E-04
2.468915E+03	1.878450E-04	1.309086E-04
2.508736E+03	1.939443E-04	1.333678E-04
2.548557E+03	2.002879E-04	1.358558E-04
2.588378E+03	2.068996E-04	1.383794E-04
2.628199E+03	2.138023E-04	1.409438E-04
2.668021E+03	2.210180E-04	1.435522E-04
2.707842E+03	2.285984E-04	1.462261E-04
2.747663E+03	2.365304E-04	1.489438E-04
2.787484E+03	2.448285E-04	1.517009E-04
2.827305E+03	2.535369E-04	1.545104E-04
2.867127E+03	2.627284E-04	1.574004E-04
2.906948E+03	2.723401E-04	1.603157E-04
2.946769E+03	2.824675E-04	1.632952E-04
2.986590E+03	2.931332E-04	1.663320E-04
2.996546E+03	2.958892E-04	1.671009E-04
3.006501E+03	2.986894E-04	1.678776E-04
3.016456E+03	3.014995E-04	1.686425E-04
3.026411E+03	3.043516E-04	1.694135E-04
3.036367E+03	3.072451E-04	1.701897E-04
3.046322E+03	3.101785E-04	1.709700E-04
3.056277E+03	3.131512E-04	1.717536E-04
3.066233E+03	3.161616E-04	1.725393E-04
3.076188E+03	3.192087E-04	1.733261E-04
3.086143E+03	3.222913E-04	1.741131E-04
3.096099E+03	3.254079E-04	1.748992E-04
3.106054E+03	3.285575E-04	1.756834E-04
3.116009E+03	3.317386E-04	1.764645E-04
3.125964E+03	3.349830E-04	1.772592E-04
3.135920E+03	3.382890E-04	1.780658E-04
3.145875E+03	3.415891E-04	1.788486E-04
3.155830E+03	3.449475E-04	1.796409E-04
3.165786E+03	3.483631E-04	1.804416E-04
3.175741E+03	3.518007E-04	1.812321E-04
3.185696E+03	3.552919E-04	1.820282E-04
3.195652E+03	3.588017E-04	1.828116E-04
3.205607E+03	3.623942E-04	1.836146E-04
3.215562E+03	3.660015E-04	1.844022E-04
3.225517E+03	3.696546E-04	1.851898E-04
3.235473E+03	3.733516E-04	1.859759E-04
3.245428E+03	3.770902E-04	1.867589E-04
3.255383E+03	3.809007E-04	1.875534E-04
3.265339E+03	3.847161E-04	1.883259E-04
3.275294E+03	3.885989E-04	1.891067E-04
3.285249E+03	3.925143E-04	1.898782E-04
3.295205E+03	3.964922E-04	1.906547E-04
3.305160E+03	4.004977E-04	1.914186E-04
3.315115E+03	4.045607E-04	1.921840E-04
3.325070E+03	4.086463E-04	1.929339E-04
3.335026E+03	4.127841E-04	1.936818E-04
3.344981E+03	4.169710E-04	1.944257E-04
3.354936E+03	4.212047E-04	1.951641E-04
3.364892E+03	4.254816E-04	1.958950E-04
3.374847E+03	4.298307E-04	1.966310E-04
3.384802E+03	4.341858E-04	1.973414E-04
3.394758E+03	4.386068E-04	1.980532E-04
3.404713E+03	4.430595E-04	1.987503E-04
3.414668E+03	4.475714E-04	1.994447E-04
3.424623E+03	4.521086E-04	2.001207E-04
3.434579E+03	4.566988E-04	2.007903E-04
3.444534E+03	4.613689E-04	2.014647E-04
3.454489E+03	4.660547E-04	2.021152E-04
3.464445E+03	4.707837E-04	2.027535E-04
3.474400E+03	4.755526E-04	2.033777E-04
3.484355E+03	4.803891E-04	2.039992E-04
3.494311E+03	4.852614E-04	2.046039E-04
3.504266E+03	4.901690E-04	2.051912E-04
3.514221E+03	4.951425E-04	2.057735E-04
3.524176E+03	5.001839E-04	2.063509E-04
3.534132E+03	5.052964E-04	2.069240E-04
3.544087E+03	5.104850E-04	2.074942E-04
3.554042E+03	5.157844E-04	2.080748E-04
3.563998E+03	5.211431E-04	2.086440E-04
3.573953E+03	5.266266E-04	2.092273E-04
3.583908E+03	5.322151E-04	2.098156E-04
3.593864E+03	5.379465E-04	2.104229E-04
3.603819E+03	5.438325E-04	2.110522E-04
3.613774E+03	5.498852E-04	2.117067E-04
3.623729E+03	5.561197E-04	2.123906E-04
3.633685E+03	5.625525E-04	2.131083E-04
3.643640E+03	5.692301E-04	2.138756E-04
3.653595E+03	5.761453E-04	2.146874E-04
3.663551E+03	5.833475E-04	2.155597E-04
3.673506E+03	5.908327E-04	2.164882E-04
3.683461E+03	5.986523E-04	2.174890E-04
3.693417E+03	6.068581E-04	2.185775E-04
3.703372E+03	6.154202E-04	2.197394E-04
3.713327E+03	6.244178E-04	2.209993E-04
3.723282E+03	6.338484E-04	2.223521E-04
3.733238E+03	6.437630E-04	2.238115E-04
3.743193E+03	6.541854E-04	2.253811E-04
3.753148E+03	6.651108E-04	2.270544E-04
3.763104E+03	6.766142E-04	2.288519E-04
3.773059E+03	6.886611E-04	2.307566E-04
3.783014E+03	7.013205E-04	2.327860E-04
3.792970E+03	7.145782E-04	2.349298E-04
3.802925E+03	7.284687E-04	2.371934E-04
3.812880E+03	7.429672E-04	2.395627E-04
3.822835E+03	7.580955E-04	2.420389E-04
3.832791E+03	7.738148E-04	2.446035E-04
3.842746E+03	7.901581E-04	2.472613E-04
3.852701E+03	8.070413E-04	2.499803E-04
3.862657E+03	8.244781E-04	2.527593E-04
3.872612E+03	8.423900E-04	2.555693E-04
3.882567E+03	8.606853E-04	2.583781E-04
3.892523E+03	8.793685E-04	2.611834E-04
3.902478E+03	8.982658E-04	2.639303E-04
3.912433E+03	9.173285E-04	2.666027E-04
3.922388E+03	9.364411E-04	2.691657E-04
3.932344E+03	9.554249E-04	2.715681E-04
3.942299E+03	9.742360E-04	2.737987E-04
3.952254E+03	9.926901E-04	2.758081E-04
3.962210E+03	1.010663E-03	2.775654E-04
3.972165E+03	1.028063E-03	2.790510E-04
3.982120E+03	1.044755E-03	2.802335E-04
3.992076E+03	1.060668E-03	2.811012E-04
4.002031E+03	1.075715E-03	2.816392E-04
4.011986E+03	1.089768E-03	2.818227E-04
4.021941E+03	1.102826E-03	2.816608E-04
4.031897E+03	1.114816E-03	2.811455E-04
4.041852E+03	1.125715E-03	2.802808E-04
4.051807E+03	1.135514E-03	2.790758E-04
4.061763E+03	1.144226E-03	2.775439E-04
4.071718E+03	1.151855E-03	2.756969E-04
4.081673E+03	1.158477E-03	2.735634E-04
4.091629E+03	1.164131E-03	2.711625E-04
4.101584E+03	1.168923E-03	2.685279E-04
4.111539E+03	1.172892E-03	2.656771E-04
4.121494E+03	1.176135E-03	2.626400E-04
4.131450E+03	1.178782E-03	2.594521E-04
4.141405E+03	1.180886E-03	2.561312E-04
4.151360E+03	1.182601E-03	2.527155E-04
4.161316E+03	1.183958E-03	2.492157E-04
4.171271E+03	1.185083E-03	2.456615E-04
4.181226E+03	1.186073E-03	2.420750E-04
4.191182E+03	1.186998E-03	2.384722E-04
4.201137E+03	1.187927E-03	2.348673E-04
4.211092E+03	1.188967E-03	2.312817E-04
4.221047E+03	1.190136E-03	2.277179E-04
4.231003E+03	1.191555E-03	2.241979E-04
4.240958E+03	1.193259E-03	2.207259E-04
4.250913E+03	1.195320E-03	2.173129E-04
4.260869E+03	1.197792E-03	2.139651E-04
4.270824E+03	1.200725E-03	2.106881E-04
4.280779E+03	1.204171E-03	2.074868E-04
4.290735E+03	1.208225E-03	2.043725E-04
4.300690E+03	1.212901E-03	2.013427E-04
4.310645E+03	1.218278E-03	1.984046E-04
4.320601E+03	1.224418E-03	1.955621E-04
4.330556E+03	1.231390E-03	1.928191E-04
4.340511E+03	1.239265E-03	1.901797E-04
4.350466E+03	1.248121E-03	1.876476E-04
4.360422E+03	1.258025E-03	1.852239E-04
4.370377E+03	1.269082E-03	1.829150E-04
4.380332E+03	1.281346E-03	1.807186E-04
4.390288E+03	1.294948E-03	1.786423E-04
4.400243E+03	1.309960E-03	1.766844E-04
4.410198E+03	1.326447E-03	1.748416E-04
4.420154E+03	1.344485E-03	1.731113E-04
4.430109E+03	1.364172E-03	1.714928E-04
4.440064E+03	1.385514E-03	1.699731E-04
4.450019E+03	1.408562E-03	1.685450E-04
4.459975E+03	1.433325E-03	1.671955E-04
4.469930E+03	1.459769E-03	1.659074E-04
4.479885E+03	1.487803E-03	1.646574E-04
4.489841E+03	1.517324E-03	1.634224E-04
4.499796E+03	1.548174E-03	1.621753E-04
4.509751E+03	1.580078E-03	1.608789E-04
4.519707E+03	1.612760E-03	1.594996E-04
4.529662E+03	1.645864E-03	1.579995E-04
4.539617E+03	1.678999E-03	1.563420E-04
4.549572E+03	1.711692E-03	1.544880E-04
4.559528E+03	1.743485E-03	1.524049E-04
4.569483E+03	1.773890E-03	1.500636E-04
4.579438E+03	1.802434E-03	1.474414E-04
4.589394E+03	1.828658E-03	1.445225E-04
4.599349E+03	1.852229E-03	1.413056E-04
4.609304E+03	1.872821E-03	1.377936E-04
4.619260E+03	1.890219E-03	1.340010E-04
4.629215E+03	1.904316E-03	1.299519E-04
4.639170E+03	1.915066E-03	1.256754E-04
4.649125E+03	1.922519E-03	1.212069E-04
4.659081E+03	1.926740E-03	1.165826E-04
4.669036E+03	1.927898E-03	1.118436E-04
4.678991E+03	1.926206E-03	1.070318E-04
4.688947E+03	1.921922E-03	1.021897E-04
4.698902E+03	1.915345E-03	9.735939E-05
4.708857E+03	1.906804E-03	9.258195E-05
4.718813E+03	1.896686E-03	8.789846E-05
4.728768E+03	1.885398E-03	8.334819E-05
4.738723E+03	1.873389E-03	7.896935E-05
4.748678E+03	1.861133E-03	7.479854E-05
4.758634E+03	1.849054E-03	7.086800E-05
4.768589E+03	1.837485E-03	6.720486E-05
4.778544E+03	1.826768E-03	6.383587E-05
4.788500E+03	1.817147E-03	6.078383E-05
4.798455E+03	1.808932E-03	5.807340E-05
4.808410E+03	1.802413E-03	5.572788E-05
4.818366E+03	1.797826E-03	5.376756E-05
4.828321E+03	1.795463E-03	5.221249E-05
4.838276E+03	1.795533E-03	5.107727E-05
4.848231E+03	1.798255E-03	5.037062E-05
4.858187E+03	1.803833E-03	5.008084E-05
4.868142E+03	1.812392E-03	5.018387E-05
4.878097E+03	1.824009E-03	5.065166E-05
4.888053E+03	1.838755E-03	5.145490E-05
4.898008E+03	1.856573E-03	5.256079E-05
4.907963E+03	1.877360E-03	5.393633E-05
4.917919E+03	1.900877E-03	5.554627E-05
4.927874E+03	1.926825E-03	5.735535E-05
4.937829E+03	1.954802E-03	5.932690E-05
4.947784E+03	1.984265E-03	6.142134E-05
4.957740E+03	2.014645E-03	6.359904E-05
4.967695E+03	2.045241E-03	6.581676E-05
4.977650E+03	2.075336E-03	6.803089E-05
4.987606E+03	2.104243E-03	7.019885E-05
4.997561E+03	2.131336E-03	7.228028E-05
5.007516E+03	2.156079E-03	7.423840E-05
5.017472E+03	2.178066E-03	7.604153E-05
5.027427E+03	2.197124E-03	7.766753E-05
5.037382E+03	2.213194E-03	7.909985E-05
5.047337E+03	2.226419E-03	8.033104E-05
5.057293E+03	2.237044E-03	8.135944E-05
5.067248E+03	2.245401E-03	8.218857E-05
5.077203E+03	2.251891E-03	8.282642E-05
5.087159E+03	2.256882E-03	8.328135E-05
5.097114E+03	2.260767E-03	8.356413E-05
5.107069E+03	2.263874E-03	8.368428E-05
5.117025E+03	2.266479E-03	8.365017E-05
5.126980E+03	2.268811E-03	8.346915E-05
5.136935E+03	2.270986E-03	8.314496E-05
5.146890E+03	2.273077E-03	8.268017E-05
5.156846E+03	2.275120E-03	8.207644E-05
5.166801E+03	2.277082E-03	8.133335E-05
5.176756E+03	2.278879E-03	8.044921E-05
5.186712E+03	2.280481E-03	7.942481E-05
5.196667E+03	2.281737E-03	7.825745E-05
5.206622E+03	2.282637E-03	7.695003E-05
5.216578E+03	2.283083E-03	7.550328E-05
5.226533E+03	2.282985E-03	7.391912E-05
5.236488E+03	2.282299E-03	7.220209E-05
5.246443E+03	2.280960E-03	7.035715E-05
5.256399E+03	2.278900E-03	6.839045E-05
5.266354E+03	2.276040E-03	6.630931E-05
5.276309E+03	2.272267E-03	6.412186E-05
5.286265E+03	2.267500E-03	6.183923E-05
5.296220E+03	2.261625E-03	5.947400E-05
5.306175E+03	2.254500E-03	5.704090E-05
5.316131E+03	2.246030E-03	5.455924E-05
5.326086E+03	2.236109E-03	5.205179E-05
5.336041E+03	2.224650E-03	4.954612E-05
5.345996E+03	2.211588E-03	4.707523E-05
5.355952E+03	2.196883E-03	4.467802E-05
5.365907E+03	2.180519E-03	4.239955E-05
5.375862E+03	2.162526E-03	4.029130E-05
5.385818E+03	2.142932E-03	3.840930E-05
5.395773E+03	2.121804E-03	3.681260E-05
5.405728E+03	2.099203E-03	3.555846E-05
5.415684E+03	2.075220E-03	3.469723E-05
5.425639E+03	2.049944E-03	3.426506E-05
5.435594E+03	2.023467E-03	3.426408E-05
5.445549E+03	1.995878E-03	3.464823E-05
5.455505E+03	1.967244E-03	3.535472E-05
5.465460E+03	1.937639E-03	3.631556E-05
5.475415E+03	1.907069E-03	3.746250E-05
5.485371E+03	1.875450E-03	3.873069E-05
5.495326E+03	1.842613E-03	4.006036E-05
5.505281E+03	1.808499E-03	4.140149E-05
5.515237E+03	1.773031E-03	4.271085E-05
5.525192E+03	1.736168E-03	4.395255E-05
5.535147E+03	1.697976E-03	4.509918E-05
5.545102E+03	1.658604E-03	4.613091E-05
5.555058E+03	1.618256E-03	4.703444E-05
5.565013E+03	1.577277E-03	4.780521E-05
5.574968E+03	1.536058E-03	4.844468E-05
5.584924E+03	1.495063E-03	4.896105E-05
5.594879E+03	1.454790E-03	4.936776E-05
5.604834E+03	1.415748E-03	4.968247E-05
5.614790E+03	1.378407E-03	4.992499E-05
5.624745E+03	1.343288E-03	5.011985E-05
5.634700E+03	1.310810E-03	5.029045E-05
5.644655E+03	1.281384E-03	5.046180E-05
5.654611E+03	1.255390E-03	5.065927E-05
5.664566E+03	1.233140E-03	5.090648E-05
5.674521E+03	1.214914E-03	5.122636E-05
5.684477E+03	1.200956E-03	5.164061E-05
5.694432E+03	1.191453E-03	5.216823E-05
5.704387E+03	1.186528E-03	5.282489E-05
5.714343E+03	1.186269E-03	5.362386E-05
5.724298E+03	1.190678E-03	5.457346E-05
5.734253E+03	1.199724E-03	5.567895E-05
5.744209E+03	1.213307E-03	5.694094E-05
5.754164E+03	1.231268E-03	5.835569E-05
5.764119E+03	1.253378E-03	5.991417E-05
5.774074E+03	1.279358E-03	6.160324E-05
5.784030E+03	1.308828E-03	6.340317E-05
5.793985E+03	1.341309E-03	6.528765E-05
5.803940E+03	1.376190E-03	6.722253E-05
5.813896E+03	1.412771E-03	6.916778E-05
5.823851E+03	1.450237E-03	7.107688E-05
5.833806E+03	1.487621E-03	7.289537E-05
5.843762E+03	1.523976E-03	7.456972E-05
5.853717E+03	1.558253E-03	7.604202E-05
5.863672E+03	1.589470E-03	7.725903E-05
5.873627E+03	1.616626E-03	7.816828E-05
5.883583E+03	1.638906E-03	7.872902E-05
5.893538E+03	1.655544E-03	7.890543E-05
5.903493E+03	1.666042E-03	7.867786E-05
5.913449E+03	1.670014E-03	7.803494E-05
5.923404E+03	1.667381E-03	7.698289E-05
5.933359E+03	1.658257E-03	7.553927E-05
5.943315E+03	1.643005E-03	7.373507E-05
5.953270E+03	1.622201E-03	7.161216E-05
5.963225E+03	1.596609E-03	6.922077E-05
5.973180E+03	1.567112E-03	6.661577E-05
5.983136E+03	1.534699E-03	6.385485E-05
5.993091E+03	1.500407E-03	6.099530E-05
6.003046E+03	1.465218E-03	5.808886E-05
6.013002E+03	1.430099E-03	5.518332E-05
6.022957E+03	1.395905E-03	5.231815E-05
6.032912E+03	1.363390E-03	4.952514E-05
6.042868E+03	1.333223E-03	4.682925E-05
6.052823E+03	1.305923E-03	4.424656E-05
6.062778E+03	1.281949E-03	4.178788E-05
6.072733E+03	1.261644E-03	3.945738E-05
6.082689E+03	1.245281E-03	3.725448E-05
6.092644E+03	1.233083E-03	3.517517E-05
6.102599E+03	1.225223E-03	3.321213E-05
6.112555E+03	1.221853E-03	3.135624E-05
6.122510E+03	1.223132E-03	2.959750E-05
6.132465E+03	1.229163E-03	2.792386E-05
6.142421E+03	1.240135E-03	2.632503E-05
6.152376E+03	1.256216E-03	2.479043E-05
6.162331E+03	1.277522E-03	2.330941E-05
6.172286E+03	1.304143E-03	2.187334E-05
6.182242E+03	1.336207E-03	2.047841E-05
6.192197E+03	1.373805E-03	1.912658E-05
6.202152E+03	1.416966E-03	1.782913E-05
6.212108E+03	1.465670E-03	1.661187E-05
6.222063E+03	1.519600E-03	1.551909E-05
6.232018E+03	1.578142E-03	1.462120E-05
6.241974E+03	1.640474E-03	1.401782E-05
6.251929E+03	1.705560E-03	1.382607E-05
6.261884E+03	1.772328E-03	1.414084E-05
6.271839E+03	1.839559E-03	1.494661E-05
6.281795E+03	1.906025E-03	1.615013E-05
6.291750E+03	1.970555E-03	1.763188E-05
6.301705E+03	2.032050E-03	1.927284E-05
6.311661E+03	2.089553E-03	2.096814E-05
6.321616E+03	2.142294E-03	2.263062E-05
6.331571E+03	2.189719E-03	2.419031E-05
6.341527E+03	2.231508E-03	2.559286E-05
6.351482E+03	2.267598E-03	2.679825E-05
6.361437E+03	2.298069E-03	2.777832E-05
6.371392E+03	2.323275E-03	2.851742E-05
6.381348E+03	2.343616E-03	2.900878E-05
6.391303E+03	2.359680E-03	2.925568E-05
6.401258E+03	2.371976E-03	2.926757E-05
6.411214E+03	2.381163E-03	2.906260E-05
6.421169E+03	2.387717E-03	2.866358E-05
6.431124E+03	2.392158E-03	2.810121E-05
6.441080E+03	2.394912E-03	2.741339E-05
6.451035E+03	2.396316E-03	2.664668E-05
6.460990E+03	2.396705E-03	2.585911E-05
6.470945E+03	2.396325E-03	2.512073E-05
6.480901E+03	2.395460E-03	2.451556E-05
6.490856E+03	2.394378E-03	2.413878E-05
6.500811E+03	2.393346E-03	2.409049E-05
6.510767E+03	2.392489E-03	2.446299E-05
6.520722E+03	2.391756E-03	2.531632E-05
6.530677E+03	2.391046E-03	2.662814E-05
6.540633E+03	2.390226E-03	2.833766E-05
6.550588E+03	2.389177E-03	3.037611E-05
6.560543E+03	2.387677E-03	3.267483E-05
6.570498E+03	2.385418E-03	3.517014E-05
6.580454E+03	2.382131E-03	3.780635E-05
6.590409E+03	2.377355E-03	4.053169E-05
6.600364E+03	2.370684E-03	4.330051E-05
6.610320E+03	2.361632E-03	4.606954E-05
6.620275E+03	2.349716E-03	4.879800E-05
6.630230E+03	2.334527E-03	5.144806E-05
6.640186E+03	2.315693E-03	5.398387E-05
6.650141E+03	2.293049E-03	5.637530E-05
6.660096E+03	2.266528E-03	5.859621E-05
6.670051E+03	2.236203E-03	6.062573E-05
6.680007E+03	2.202350E-03	6.245094E-05
6.689962E+03	2.165347E-03	6.406489E-05
6.699917E+03	2.125673E-03	6.546689E-05
6.709873E+03	2.083918E-03	6.666349E-05
6.719828E+03	2.040613E-03	6.766313E-05
6.729783E+03	1.996378E-03	6.848079E-05
6.739739E+03	1.951814E-03	6.913439E-05
6.749694E+03	1.907514E-03	6.964495E-05
6.759649E+03	1.864084E-03	7.003691E-05
6.769604E+03	1.822064E-03	7.033521E-05
6.779560E+03	1.782014E-03	7.056791E-05
6.789515E+03	1.744417E-03	7.076217E-05
6.799470E+03	1.709777E-03	7.094780E-05
6.809426E+03	1.678473E-03	7.115074E-05
6.819381E+03	1.650912E-03	7.139922E-05
6.829336E+03	1.627373E-03	7.171656E-05
6.839292E+03	1.608162E-03	7.212739E-05
6.849247E+03	1.593473E-03	7.265157E-05
6.859202E+03	1.583467E-03	7.330693E-05
6.869157E+03	1.578271E-03	7.410913E-05
6.879113E+03	1.577913E-03	7.506841E-05
6.889068E+03	1.582374E-03	7.619161E-05
6.899023E+03	1.591572E-03	7.748129E-05
6.908979E+03	1.605290E-03	7.893201E-05
6.918934E+03	1.623243E-03	8.053319E-05
6.928889E+03	1.644994E-03	8.226516E-05
6.938845E+03	1.670043E-03	8.410311E-05
6.948800E+03	1.697775E-03	8.601489E-05
6.958755E+03	1.727453E-03	8.796040E-05
6.968710E+03	1.758382E-03	8.990045E-05
6.978666E+03	1.789732E-03	9.178776E-05
6.988621E+03	1.820714E-03	9.357654E-05
6.998576E+03	1.850588E-03	9.522310E-05
7.008532E+03	1.878731E-03	9.668986E-05
7.018487E+03	1.904609E-03	9.794434E-05
7.028442E+03	1.927912E-03	9.896623E-05
7.038398E+03	1.948486E-03	9.974406E-05
7.048353E+03	1.966384E-03	1.002780E-04
7.058308E+03	1.981937E-03	1.005831E-04
7.068263E+03	1.995583E-03	1.006803E-04
7.078219E+03	2.007932E-03	1.005993E-04
7.088174E+03	2.019697E-03	1.003747E-04
7.098129E+03	2.031626E-03	1.000420E-04
7.108085E+03	2.044533E-03	9.963867E-05
7.118040E+03	2.059172E-03	9.919756E-05
7.127995E+03	2.076199E-03	9.874478E-05
7.137951E+03	2.096182E-03	9.830014E-05
7.147906E+03	2.119564E-03	9.787552E-05
7.157861E+03	2.146553E-03	9.746999E-05
7.167817E+03	2.177183E-03	9.707326E-05
7.177772E+03	2.211236E-03	9.666317E-05
7.187727E+03	2.248343E-03	9.621096E-05
7.197682E+03	2.287770E-03	9.567332E-05
7.207638E+03	2.328598E-03	9.500202E-05
7.217593E+03	2.369588E-03	9.413959E-05
7.227548E+03	2.409271E-03	9.302561E-05
7.237504E+03	2.446005E-03	9.160033E-05
7.247459E+03	2.477899E-03	8.980418E-05
7.257414E+03	2.503119E-03	8.759057E-05
7.267370E+03	2.519742E-03	8.492156E-05
7.277325E+03	2.526099E-03	8.178036E-05
7.287280E+03	2.520745E-03	7.816943E-05
7.297235E+03	2.502718E-03	7.411712E-05
7.307191E+03	2.471520E-03	6.967412E-05
7.317146E+03	2.427320E-03	6.491560E-05
7.327101E+03	2.370815E-03	5.993285E-05
7.337057E+03	2.303377E-03	5.483249E-05
7.347012E+03	2.226810E-03	4.972575E-05
7.356967E+03	2.143219E-03	4.472231E-05
7.366923E+03	2.054792E-03	3.992372E-05
7.376878E+03	1.963789E-03	3.542297E-05
7.386833E+03	1.872273E-03	3.130025E-05
7.396788E+03	1.782081E-03	2.762468E-05
7.406744E+03	1.694784E-03	2.445568E-05
7.416699E+03	1.611656E-03	2.184284E-05
7.426654E+03	1.533633E-03	1.982200E-05
7.436610E+03	1.461360E-03	1.840804E-05
7.446565E+03	1.395242E-03	1.758346E-05
7.456520E+03	1.335427E-03	1.727183E-05
7.466476E+03	1.281898E-03	1.736333E-05
7.476431E+03	1.234510E-03	1.775254E-05
7.486386E+03	1.192992E-03	1.835137E-05
7.496341E+03	1.156974E-03	1.909304E-05
7.506297E+03	1.126055E-03	1.993044E-05
7.516252E+03	1.099762E-03	2.083074E-05
7.526207E+03	1.077580E-03	2.177060E-05
7.536163E+03	1.058956E-03	2.273224E-05
7.546118E+03	1.043304E-03	2.370039E-05
7.556073E+03	1.030015E-03	2.466035E-05
7.566029E+03	1.018480E-03	2.559718E-05
7.575984E+03	1.008044E-03	2.649372E-05
7.585939E+03	9.982620E-04	2.733684E-05
7.595894E+03	9.893607E-04	2.813167E-05
7.605850E+03	9.817194E-04	2.888947E-05
7.615805E+03	9.756742E-04	2.962208E-05
7.625760E+03	9.714674E-04	3.033971E-05
7.635716E+03	9.692389E-04	3.104995E-05
7.645671E+03	9.690770E-04	3.175873E-05
7.655626E+03	9.709328E-04	3.246711E-05
7.665582E+03	9.747182E-04	3.317410E-05
7.675537E+03	9.802773E-04	3.387544E-05
7.685492E+03	9.873612E-04	3.456270E-05
7.695447E+03	9.957312E-04	3.522672E-05
7.705403E+03	1.005080E-03	3.585506E-05
7.715358E+03	1.015098E-03	3.643440E-05
7.725313E+03	1.025472E-03	3.695083E-05
