#wls	flux	fluxerr
1.592848E+03	7.411014E-05	7.205842E-05
1.632669E+03	7.678606E-05	7.401696E-05
1.672491E+03	7.956672E-05	7.602242E-05
1.712312E+03	8.246849E-05	7.808672E-05
1.752133E+03	8.546455E-05	8.018060E-05
1.791954E+03	8.858567E-05	8.232922E-05
1.831775E+03	9.183434E-05	8.453053E-05
1.871597E+03	9.519640E-05	8.676712E-05
1.911418E+03	9.868903E-05	8.905031E-05
1.951239E+03	1.023136E-04	9.137659E-05
1.991060E+03	1.060889E-04	9.375766E-05
2.030881E+03	1.099985E-04	9.617371E-05
2.070703E+03	1.140611E-04	9.863575E-05
2.110524E+03	1.182774E-04	1.011387E-04
2.150345E+03	1.226474E-04	1.036766E-04
2.190166E+03	1.271908E-04	1.062599E-04
2.229987E+03	1.319073E-04	1.088819E-04
2.269809E+03	1.367958E-04	1.115347E-04
2.309630E+03	1.418763E-04	1.142276E-04
2.349451E+03	1.471466E-04	1.169514E-04
2.389272E+03	1.526033E-04	1.196957E-04
2.429093E+03	1.582887E-04	1.224857E-04
2.468915E+03	1.641751E-04	1.252910E-04
2.508736E+03	1.702556E-04	1.280981E-04
2.548557E+03	1.765958E-04	1.309474E-04
2.588378E+03	1.831377E-04	1.337861E-04
2.628199E+03	1.899465E-04	1.366522E-04
2.668021E+03	1.969842E-04	1.395078E-04
2.707842E+03	2.042885E-04	1.423692E-04
2.747663E+03	2.118160E-04	1.451954E-04
2.787484E+03	2.196542E-04	1.480353E-04
2.827305E+03	2.277273E-04	1.508256E-04
2.867127E+03	2.360921E-04	1.535926E-04
2.906948E+03	2.447208E-04	1.563057E-04
2.946769E+03	2.536372E-04	1.589681E-04
2.986590E+03	2.628639E-04	1.615806E-04
2.996546E+03	2.651900E-04	1.622065E-04
3.006501E+03	2.675536E-04	1.628395E-04
3.016456E+03	2.699544E-04	1.634789E-04
3.026411E+03	2.723632E-04	1.641067E-04
3.036367E+03	2.747796E-04	1.647226E-04
3.046322E+03	2.772310E-04	1.653430E-04
3.056277E+03	2.796885E-04	1.659501E-04
3.066233E+03	2.821515E-04	1.665436E-04
3.076188E+03	2.846478E-04	1.671397E-04
3.086143E+03	2.871765E-04	1.677375E-04
3.096099E+03	2.897087E-04	1.683199E-04
3.106054E+03	2.922720E-04	1.689029E-04
3.116009E+03	2.948373E-04	1.694692E-04
3.125964E+03	2.974327E-04	1.700349E-04
3.135920E+03	3.000570E-04	1.705991E-04
3.145875E+03	3.026813E-04	1.711451E-04
3.155830E+03	3.053618E-04	1.717043E-04
3.165786E+03	3.080410E-04	1.722442E-04
3.175741E+03	3.107181E-04	1.727642E-04
3.185696E+03	3.134496E-04	1.732955E-04
3.195652E+03	3.161775E-04	1.738058E-04
3.205607E+03	3.189587E-04	1.743260E-04
3.215562E+03	3.217350E-04	1.748241E-04
3.225517E+03	3.245633E-04	1.753308E-04
3.235473E+03	3.273857E-04	1.758143E-04
3.245428E+03	3.302588E-04	1.763050E-04
3.255383E+03	3.331253E-04	1.767721E-04
3.265339E+03	3.360413E-04	1.772449E-04
3.275294E+03	3.389780E-04	1.777080E-04
3.285249E+03	3.419352E-04	1.781610E-04
3.295205E+03	3.449124E-04	1.786033E-04
3.305160E+03	3.479378E-04	1.790493E-04
3.315115E+03	3.509826E-04	1.794838E-04
3.325070E+03	3.540746E-04	1.799207E-04
3.335026E+03	3.571861E-04	1.803453E-04
3.344981E+03	3.603166E-04	1.807574E-04
3.354936E+03	3.634945E-04	1.811707E-04
3.364892E+03	3.666916E-04	1.815710E-04
3.374847E+03	3.699362E-04	1.819717E-04
3.384802E+03	3.732284E-04	1.823725E-04
3.394758E+03	3.765687E-04	1.827731E-04
3.404713E+03	3.799294E-04	1.831597E-04
3.414668E+03	3.833390E-04	1.835456E-04
3.424623E+03	3.867983E-04	1.839308E-04
3.434579E+03	3.903076E-04	1.843148E-04
3.444534E+03	3.938404E-04	1.846847E-04
3.454489E+03	3.974528E-04	1.850663E-04
3.464445E+03	4.011180E-04	1.854463E-04
3.474400E+03	4.048377E-04	1.858251E-04
3.484355E+03	4.086123E-04	1.862023E-04
3.494311E+03	4.124441E-04	1.865782E-04
3.504266E+03	4.163339E-04	1.869527E-04
3.514221E+03	4.203107E-04	1.873380E-04
3.524176E+03	4.243488E-04	1.877219E-04
3.534132E+03	4.284772E-04	1.881164E-04
3.544087E+03	4.326704E-04	1.885095E-04
3.554042E+03	4.369305E-04	1.889015E-04
3.563998E+03	4.412863E-04	1.893039E-04
3.573953E+03	4.457393E-04	1.897164E-04
3.583908E+03	4.502651E-04	1.901276E-04
3.593864E+03	4.548919E-04	1.905488E-04
3.603819E+03	4.596220E-04	1.909796E-04
3.613774E+03	4.644571E-04	1.914197E-04
3.623729E+03	4.693991E-04	1.918689E-04
3.633685E+03	4.744230E-04	1.923159E-04
3.643640E+03	4.795833E-04	1.927816E-04
3.653595E+03	4.848290E-04	1.932444E-04
3.663551E+03	4.902135E-04	1.937245E-04
3.673506E+03	4.957119E-04	1.942106E-04
3.683461E+03	5.013247E-04	1.947018E-04
3.693417E+03	5.070526E-04	1.951970E-04
3.703372E+03	5.129220E-04	1.957053E-04
3.713327E+03	5.189062E-04	1.962150E-04
3.723282E+03	5.250054E-04	1.967249E-04
3.733238E+03	5.312439E-04	1.972429E-04
3.743193E+03	5.375951E-04	1.977578E-04
3.753148E+03	5.440564E-04	1.982674E-04
3.763104E+03	5.506771E-04	1.987884E-04
3.773059E+03	5.574033E-04	1.992997E-04
3.783014E+03	5.642307E-04	1.997988E-04
3.792970E+03	5.711816E-04	2.002925E-04
3.802925E+03	5.782509E-04	2.007777E-04
3.812880E+03	5.854336E-04	2.012513E-04
3.822835E+03	5.926979E-04	2.017015E-04
3.832791E+03	6.000635E-04	2.021340E-04
3.842746E+03	6.075229E-04	2.025452E-04
3.852701E+03	6.150691E-04	2.029319E-04
3.862657E+03	6.226682E-04	2.032820E-04
3.872612E+03	6.303379E-04	2.036007E-04
3.882567E+03	6.380941E-04	2.038925E-04
3.892523E+03	6.458776E-04	2.041377E-04
3.902478E+03	6.537042E-04	2.043410E-04
3.912433E+03	6.615647E-04	2.044990E-04
3.922388E+03	6.694246E-04	2.046010E-04
3.932344E+03	6.773252E-04	2.046594E-04
3.942299E+03	6.852072E-04	2.046561E-04
3.952254E+03	6.930872E-04	2.045964E-04
3.962210E+03	7.009571E-04	2.044778E-04
3.972165E+03	7.088099E-04	2.042984E-04
3.982120E+03	7.166140E-04	2.040497E-04
3.992076E+03	7.243890E-04	2.037375E-04
4.002031E+03	7.321298E-04	2.033609E-04
4.011986E+03	7.398087E-04	2.029128E-04
4.021941E+03	7.474239E-04	2.023932E-04
4.031897E+03	7.549992E-04	2.018095E-04
4.041852E+03	7.625353E-04	2.011622E-04
4.051807E+03	7.699864E-04	2.004399E-04
4.061763E+03	7.774041E-04	1.996569E-04
4.071718E+03	7.847707E-04	1.988092E-04
4.081673E+03	7.920930E-04	1.978991E-04
4.091629E+03	7.993558E-04	1.969234E-04
4.101584E+03	8.065940E-04	1.958914E-04
4.111539E+03	8.138192E-04	1.948063E-04
4.121494E+03	8.210449E-04	1.936715E-04
4.131450E+03	8.282387E-04	1.924796E-04
4.141405E+03	8.354642E-04	1.912457E-04
4.151360E+03	8.427149E-04	1.899682E-04
4.161316E+03	8.500096E-04	1.886512E-04
4.171271E+03	8.573448E-04	1.872935E-04
4.181226E+03	8.647638E-04	1.859044E-04
4.191182E+03	8.722649E-04	1.844827E-04
4.201137E+03	8.798696E-04	1.830323E-04
4.211092E+03	8.876228E-04	1.815616E-04
4.221047E+03	8.954794E-04	1.800602E-04
4.231003E+03	9.035294E-04	1.785449E-04
4.240958E+03	9.117277E-04	1.770054E-04
4.250913E+03	9.201421E-04	1.754532E-04
4.260869E+03	9.287494E-04	1.738821E-04
4.270824E+03	9.375944E-04	1.722987E-04
4.280779E+03	9.466981E-04	1.707045E-04
4.290735E+03	9.560355E-04	1.690928E-04
4.300690E+03	9.656482E-04	1.674689E-04
4.310645E+03	9.755548E-04	1.658332E-04
4.320601E+03	9.857497E-04	1.641825E-04
4.330556E+03	9.962694E-04	1.625199E-04
4.340511E+03	1.007084E-03	1.608379E-04
4.350466E+03	1.018225E-03	1.591389E-04
4.360422E+03	1.029682E-03	1.574183E-04
4.370377E+03	1.041459E-03	1.556742E-04
4.380332E+03	1.053585E-03	1.539079E-04
4.390288E+03	1.065991E-03	1.521070E-04
4.400243E+03	1.078745E-03	1.502783E-04
4.410198E+03	1.091773E-03	1.484093E-04
4.420154E+03	1.105090E-03	1.464996E-04
4.430109E+03	1.118684E-03	1.445455E-04
4.440064E+03	1.132540E-03	1.425433E-04
4.450019E+03	1.146615E-03	1.404860E-04
4.459975E+03	1.160866E-03	1.383670E-04
4.469930E+03	1.175312E-03	1.361877E-04
4.479885E+03	1.189901E-03	1.339415E-04
4.489841E+03	1.204555E-03	1.316193E-04
4.499796E+03	1.219308E-03	1.292253E-04
4.509751E+03	1.234055E-03	1.267489E-04
4.519707E+03	1.248778E-03	1.241897E-04
4.529662E+03	1.263439E-03	1.215456E-04
4.539617E+03	1.277995E-03	1.188146E-04
4.549572E+03	1.292405E-03	1.159956E-04
4.559528E+03	1.306605E-03	1.130860E-04
4.569483E+03	1.320555E-03	1.100862E-04
4.579438E+03	1.334216E-03	1.069974E-04
4.589394E+03	1.347575E-03	1.038233E-04
4.599349E+03	1.360553E-03	1.005628E-04
4.609304E+03	1.373167E-03	9.722330E-05
4.619260E+03	1.385368E-03	9.380714E-05
4.629215E+03	1.397111E-03	9.031795E-05
4.639170E+03	1.408403E-03	8.676345E-05
4.649125E+03	1.419232E-03	8.315032E-05
4.659081E+03	1.429593E-03	7.948613E-05
4.669036E+03	1.439459E-03	7.577790E-05
4.678991E+03	1.448859E-03	7.203620E-05
4.688947E+03	1.457800E-03	6.827106E-05
4.698902E+03	1.466295E-03	6.449351E-05
4.708857E+03	1.474336E-03	6.071484E-05
4.718813E+03	1.481993E-03	5.695087E-05
4.728768E+03	1.489239E-03	5.321544E-05
4.738723E+03	1.496126E-03	4.952789E-05
4.748678E+03	1.502682E-03	4.591008E-05
4.758634E+03	1.508916E-03	4.238805E-05
4.768589E+03	1.514908E-03	3.899644E-05
4.778544E+03	1.520671E-03	3.577664E-05
4.788500E+03	1.526243E-03	3.278231E-05
4.798455E+03	1.531683E-03	3.008202E-05
4.808410E+03	1.537004E-03	2.775919E-05
4.818366E+03	1.542237E-03	2.591117E-05
4.828321E+03	1.547437E-03	2.463859E-05
4.838276E+03	1.552628E-03	2.402397E-05
4.848231E+03	1.557808E-03	2.409662E-05
4.858187E+03	1.563017E-03	2.480068E-05
4.868142E+03	1.568267E-03	2.603249E-05
4.878097E+03	1.573588E-03	2.767357E-05
4.888053E+03	1.578933E-03	2.961066E-05
4.898008E+03	1.584348E-03	3.174964E-05
4.907963E+03	1.589824E-03	3.401526E-05
4.917919E+03	1.595324E-03	3.634918E-05
4.927874E+03	1.600831E-03	3.870742E-05
4.937829E+03	1.606374E-03	4.105775E-05
4.947784E+03	1.611880E-03	4.337330E-05
4.957740E+03	1.617346E-03	4.563469E-05
4.967695E+03	1.622769E-03	4.782676E-05
4.977650E+03	1.628092E-03	4.993603E-05
4.987606E+03	1.633284E-03	5.195192E-05
4.997561E+03	1.638337E-03	5.386642E-05
5.007516E+03	1.643194E-03	5.567127E-05
5.017472E+03	1.647846E-03	5.736089E-05
5.027427E+03	1.652239E-03	5.892896E-05
5.037382E+03	1.656390E-03	6.037252E-05
5.047337E+03	1.660221E-03	6.168574E-05
5.057293E+03	1.663731E-03	6.286614E-05
5.067248E+03	1.666893E-03	6.391088E-05
5.077203E+03	1.669710E-03	6.481868E-05
5.087159E+03	1.672111E-03	6.558592E-05
5.097114E+03	1.674125E-03	6.621335E-05
5.107069E+03	1.675688E-03	6.669841E-05
5.117025E+03	1.676857E-03	6.704393E-05
5.126980E+03	1.677546E-03	6.724738E-05
5.136935E+03	1.677792E-03	6.731171E-05
5.146890E+03	1.677561E-03	6.723741E-05
5.156846E+03	1.676843E-03	6.702653E-05
5.166801E+03	1.675655E-03	6.668267E-05
5.176756E+03	1.673967E-03	6.620795E-05
5.186712E+03	1.671772E-03	6.560613E-05
5.196667E+03	1.669066E-03	6.488157E-05
5.206622E+03	1.665869E-03	6.404016E-05
5.216578E+03	1.662175E-03	6.308750E-05
5.226533E+03	1.657935E-03	6.202812E-05
5.236488E+03	1.653193E-03	6.087090E-05
5.246443E+03	1.647900E-03	5.962207E-05
5.256399E+03	1.642100E-03	5.829214E-05
5.266354E+03	1.635771E-03	5.689009E-05
5.276309E+03	1.628912E-03	5.542678E-05
5.286265E+03	1.621522E-03	5.391429E-05
5.296220E+03	1.613604E-03	5.236601E-05
5.306175E+03	1.605159E-03	5.079671E-05
5.316131E+03	1.596169E-03	4.922200E-05
5.326086E+03	1.586684E-03	4.766128E-05
5.336041E+03	1.576664E-03	4.613279E-05
5.345996E+03	1.566141E-03	4.465857E-05
5.355952E+03	1.555100E-03	4.326092E-05
5.365907E+03	1.543597E-03	4.196529E-05
5.375862E+03	1.531580E-03	4.079490E-05
5.385818E+03	1.519129E-03	3.977665E-05
5.395773E+03	1.506195E-03	3.893295E-05
5.405728E+03	1.492865E-03	3.828745E-05
5.415684E+03	1.479116E-03	3.785733E-05
5.425639E+03	1.464974E-03	3.765487E-05
5.435594E+03	1.450490E-03	3.767308E-05
5.445549E+03	1.435680E-03	3.788934E-05
5.455505E+03	1.420609E-03	3.827900E-05
5.465460E+03	1.405328E-03	3.881556E-05
5.475415E+03	1.389870E-03	3.947206E-05
5.485371E+03	1.374293E-03	4.022328E-05
5.495326E+03	1.358699E-03	4.104720E-05
5.505281E+03	1.343109E-03	4.192198E-05
5.515237E+03	1.327588E-03	4.282961E-05
5.525192E+03	1.312237E-03	4.375601E-05
5.535147E+03	1.297079E-03	4.468722E-05
5.545102E+03	1.282212E-03	4.561414E-05
5.555058E+03	1.267656E-03	4.652721E-05
5.565013E+03	1.253503E-03	4.742136E-05
5.574968E+03	1.239784E-03	4.829111E-05
5.584924E+03	1.226549E-03	4.913299E-05
5.594879E+03	1.213856E-03	4.994532E-05
5.604834E+03	1.201727E-03	5.072594E-05
5.614790E+03	1.190196E-03	5.147408E-05
5.624745E+03	1.179324E-03	5.219091E-05
5.634700E+03	1.169099E-03	5.287508E-05
5.644655E+03	1.159554E-03	5.352763E-05
5.654611E+03	1.150701E-03	5.414894E-05
5.664566E+03	1.142558E-03	5.474016E-05
5.674521E+03	1.135090E-03	5.529996E-05
5.684477E+03	1.128322E-03	5.582991E-05
5.694432E+03	1.122221E-03	5.632899E-05
5.704387E+03	1.116782E-03	5.679736E-05
5.714343E+03	1.111959E-03	5.723326E-05
5.724298E+03	1.107735E-03	5.763610E-05
5.734253E+03	1.104068E-03	5.800413E-05
5.744209E+03	1.100897E-03	5.833432E-05
5.754164E+03	1.098187E-03	5.862491E-05
5.764119E+03	1.095897E-03	5.887381E-05
5.774074E+03	1.093938E-03	5.907614E-05
5.784030E+03	1.092264E-03	5.922927E-05
5.793985E+03	1.090827E-03	5.933044E-05
5.803940E+03	1.089531E-03	5.937429E-05
5.813896E+03	1.088343E-03	5.935883E-05
5.823851E+03	1.087186E-03	5.927969E-05
5.833806E+03	1.086002E-03	5.913360E-05
5.843762E+03	1.084750E-03	5.891843E-05
5.853717E+03	1.083350E-03	5.862995E-05
5.863672E+03	1.081790E-03	5.826785E-05
5.873627E+03	1.080035E-03	5.783072E-05
5.883583E+03	1.078028E-03	5.731607E-05
5.893538E+03	1.075781E-03	5.672553E-05
5.903493E+03	1.073272E-03	5.605890E-05
5.913449E+03	1.070520E-03	5.531836E-05
5.923404E+03	1.067506E-03	5.450433E-05
5.933359E+03	1.064283E-03	5.362107E-05
5.943315E+03	1.060869E-03	5.267109E-05
5.953270E+03	1.057304E-03	5.165810E-05
5.963225E+03	1.053639E-03	5.058631E-05
5.973180E+03	1.049945E-03	4.946088E-05
5.983136E+03	1.046255E-03	4.828503E-05
5.993091E+03	1.042666E-03	4.706487E-05
6.003046E+03	1.039221E-03	4.580375E-05
6.013002E+03	1.036022E-03	4.450755E-05
6.022957E+03	1.033115E-03	4.317929E-05
6.032912E+03	1.030591E-03	4.182367E-05
6.042868E+03	1.028539E-03	4.044495E-05
6.052823E+03	1.027002E-03	3.904518E-05
6.062778E+03	1.026049E-03	3.762720E-05
6.072733E+03	1.025778E-03	3.619455E-05
6.082689E+03	1.026220E-03	3.474805E-05
6.092644E+03	1.027435E-03	3.328936E-05
6.102599E+03	1.029505E-03	3.182072E-05
6.112555E+03	1.032447E-03	3.034226E-05
6.122510E+03	1.036304E-03	2.885500E-05
6.132465E+03	1.041126E-03	2.736058E-05
6.142421E+03	1.046944E-03	2.586051E-05
6.152376E+03	1.053766E-03	2.435671E-05
6.162331E+03	1.061609E-03	2.285272E-05
6.172286E+03	1.070500E-03	2.135426E-05
6.182242E+03	1.080427E-03	1.986912E-05
6.192197E+03	1.091404E-03	1.840977E-05
6.202152E+03	1.103406E-03	1.699381E-05
6.212108E+03	1.116412E-03	1.564720E-05
6.222063E+03	1.130409E-03	1.440707E-05
6.232018E+03	1.145339E-03	1.332393E-05
6.241974E+03	1.161169E-03	1.246345E-05
6.251929E+03	1.177818E-03	1.190102E-05
6.261884E+03	1.195212E-03	1.170813E-05
6.271839E+03	1.213283E-03	1.191362E-05
6.281795E+03	1.231938E-03	1.247138E-05
6.291750E+03	1.251040E-03	1.330496E-05
6.301705E+03	1.270547E-03	1.433422E-05
6.311661E+03	1.290316E-03	1.548672E-05
6.321616E+03	1.310244E-03	1.670360E-05
6.331571E+03	1.330249E-03	1.793873E-05
6.341527E+03	1.350228E-03	1.915586E-05
6.351482E+03	1.370060E-03	2.032606E-05
6.361437E+03	1.389669E-03	2.142668E-05
6.371392E+03	1.408963E-03	2.243914E-05
6.381348E+03	1.427851E-03	2.334834E-05
6.391303E+03	1.446225E-03	2.414171E-05
6.401258E+03	1.464051E-03	2.481048E-05
6.411214E+03	1.481205E-03	2.534690E-05
6.421169E+03	1.497663E-03	2.574739E-05
6.431124E+03	1.513334E-03	2.601000E-05
6.441080E+03	1.528156E-03	2.613622E-05
6.451035E+03	1.542068E-03	2.613109E-05
6.460990E+03	1.555042E-03	2.600410E-05
6.470945E+03	1.567002E-03	2.576872E-05
6.480901E+03	1.577906E-03	2.544452E-05
6.490856E+03	1.587776E-03	2.505858E-05
6.500811E+03	1.596539E-03	2.464392E-05
6.510767E+03	1.604190E-03	2.424293E-05
6.520722E+03	1.610785E-03	2.390738E-05
6.530677E+03	1.616291E-03	2.369519E-05
6.540633E+03	1.620787E-03	2.367088E-05
6.550588E+03	1.624258E-03	2.389757E-05
6.560543E+03	1.626797E-03	2.443346E-05
6.570498E+03	1.628430E-03	2.531378E-05
6.580454E+03	1.629235E-03	2.652564E-05
6.590409E+03	1.629243E-03	2.803513E-05
6.600364E+03	1.628537E-03	2.980280E-05
6.610320E+03	1.627149E-03	3.178710E-05
6.620275E+03	1.625166E-03	3.394980E-05
6.630230E+03	1.622651E-03	3.625626E-05
6.640186E+03	1.619666E-03	3.867658E-05
6.650141E+03	1.616279E-03	4.118551E-05
6.660096E+03	1.612527E-03	4.376132E-05
6.670051E+03	1.608563E-03	4.638897E-05
6.680007E+03	1.604376E-03	4.905228E-05
6.689962E+03	1.600093E-03	5.174169E-05
6.699917E+03	1.595760E-03	5.444766E-05
6.709873E+03	1.591480E-03	5.716450E-05
6.719828E+03	1.587300E-03	5.988649E-05
6.729783E+03	1.583324E-03	6.261138E-05
6.739739E+03	1.579624E-03	6.533746E-05
6.749694E+03	1.576250E-03	6.806302E-05
6.759649E+03	1.573326E-03	7.079081E-05
6.769604E+03	1.570867E-03	7.351985E-05
6.779560E+03	1.568968E-03	7.625343E-05
6.789515E+03	1.567692E-03	7.899431E-05
6.799470E+03	1.567096E-03	8.174569E-05
6.809426E+03	1.567235E-03	8.451120E-05
6.819381E+03	1.568184E-03	8.729608E-05
6.829336E+03	1.569933E-03	9.010139E-05
6.839292E+03	1.572571E-03	9.293405E-05
6.849247E+03	1.576103E-03	9.579637E-05
6.859202E+03	1.580549E-03	9.869186E-05
6.869157E+03	1.585927E-03	1.016238E-04
6.879113E+03	1.592271E-03	1.045967E-04
6.889068E+03	1.599557E-03	1.076113E-04
6.899023E+03	1.607776E-03	1.106690E-04
6.908979E+03	1.616916E-03	1.137710E-04
6.918934E+03	1.626983E-03	1.169195E-04
6.928889E+03	1.637920E-03	1.201121E-04
6.938845E+03	1.649694E-03	1.233475E-04
6.948800E+03	1.662289E-03	1.266257E-04
6.958755E+03	1.675604E-03	1.299394E-04
6.968710E+03	1.689639E-03	1.332890E-04
6.978666E+03	1.704311E-03	1.366679E-04
6.988621E+03	1.719554E-03	1.400703E-04
6.998576E+03	1.735300E-03	1.434900E-04
7.008532E+03	1.751478E-03	1.469197E-04
7.018487E+03	1.768043E-03	1.503543E-04
7.028442E+03	1.784853E-03	1.537798E-04
7.038398E+03	1.801858E-03	1.571893E-04
7.048353E+03	1.818937E-03	1.605700E-04
7.058308E+03	1.836066E-03	1.639164E-04
7.068263E+03	1.853087E-03	1.672114E-04
7.078219E+03	1.869933E-03	1.704456E-04
7.088174E+03	1.886504E-03	1.736059E-04
7.098129E+03	1.902660E-03	1.766756E-04
7.108085E+03	1.918290E-03	1.796400E-04
7.118040E+03	1.933313E-03	1.824873E-04
7.127995E+03	1.947538E-03	1.851951E-04
7.137951E+03	1.960946E-03	1.877569E-04
7.147906E+03	1.973302E-03	1.901458E-04
7.157861E+03	1.984511E-03	1.923481E-04
7.167817E+03	1.994438E-03	1.943462E-04
7.177772E+03	2.002949E-03	1.961226E-04
7.187727E+03	2.009873E-03	1.976567E-04
7.197682E+03	2.015153E-03	1.989389E-04
7.207638E+03	2.018557E-03	1.999428E-04
7.217593E+03	2.020042E-03	2.006609E-04
7.227548E+03	2.019503E-03	2.010802E-04
7.237504E+03	2.016814E-03	2.011860E-04
7.247459E+03	2.011870E-03	2.009662E-04
7.257414E+03	2.004688E-03	2.004218E-04
7.267370E+03	1.995204E-03	1.995461E-04
7.277325E+03	1.983415E-03	1.983392E-04
7.287280E+03	1.969343E-03	1.968046E-04
7.297235E+03	1.953000E-03	1.949455E-04
7.307191E+03	1.934499E-03	1.927758E-04
7.317146E+03	1.913943E-03	1.903091E-04
7.327101E+03	1.891426E-03	1.875588E-04
7.337057E+03	1.867101E-03	1.845444E-04
7.347012E+03	1.841174E-03	1.812912E-04
7.356967E+03	1.813800E-03	1.778201E-04
7.366923E+03	1.785185E-03	1.741567E-04
7.376878E+03	1.755573E-03	1.703307E-04
7.386833E+03	1.725153E-03	1.663660E-04
7.396788E+03	1.694115E-03	1.622870E-04
7.406744E+03	1.662742E-03	1.581262E-04
7.416699E+03	1.631216E-03	1.539064E-04
7.426654E+03	1.599716E-03	1.496493E-04
7.436610E+03	1.568496E-03	1.453833E-04
7.446565E+03	1.537708E-03	1.411264E-04
7.456520E+03	1.507492E-03	1.368951E-04
7.466476E+03	1.478029E-03	1.327085E-04
7.476431E+03	1.449453E-03	1.285808E-04
7.486386E+03	1.421883E-03	1.245242E-04
7.496341E+03	1.395419E-03	1.205482E-04
7.506297E+03	1.370147E-03	1.166604E-04
7.516252E+03	1.346112E-03	1.128642E-04
7.526207E+03	1.323393E-03	1.091651E-04
7.536163E+03	1.302031E-03	1.055648E-04
7.546118E+03	1.282054E-03	1.020633E-04
7.556073E+03	1.263457E-03	9.865736E-05
7.566029E+03	1.246291E-03	9.534760E-05
7.575984E+03	1.230508E-03	9.212652E-05
7.585939E+03	1.216118E-03	8.899079E-05
7.595894E+03	1.203103E-03	8.593441E-05
7.605850E+03	1.191414E-03	8.294913E-05
7.615805E+03	1.181063E-03	8.003057E-05
7.625760E+03	1.171969E-03	7.716789E-05
7.635716E+03	1.164112E-03	7.435426E-05
7.645671E+03	1.157444E-03	7.158107E-05
7.655626E+03	1.151916E-03	6.883956E-05
7.665582E+03	1.147452E-03	6.611964E-05
7.675537E+03	1.144036E-03	6.341493E-05
7.685492E+03	1.141566E-03	6.071436E-05
7.695447E+03	1.139999E-03	5.801073E-05
7.705403E+03	1.139248E-03	5.529495E-05
7.715358E+03	1.139285E-03	5.256167E-05
7.725313E+03	1.139996E-03	4.980204E-05
