#wls	flux	fluxerr
1.592848E+03	7.601264E-05	7.733779E-05
1.632669E+03	7.876609E-05	7.943838E-05
1.672491E+03	8.161277E-05	8.157438E-05
1.712312E+03	8.458330E-05	8.377266E-05
1.752133E+03	8.766513E-05	8.601651E-05
1.791954E+03	9.085963E-05	8.830312E-05
1.831775E+03	9.418433E-05	9.064514E-05
1.871597E+03	9.764138E-05	9.303980E-05
1.911418E+03	1.012326E-04	9.548384E-05
1.951239E+03	1.049594E-04	9.797343E-05
1.991060E+03	1.088226E-04	1.005042E-04
2.030881E+03	1.128418E-04	1.030885E-04
2.070703E+03	1.170381E-04	1.057396E-04
2.110524E+03	1.213736E-04	1.084165E-04
2.150345E+03	1.258881E-04	1.111490E-04
2.190166E+03	1.305826E-04	1.139305E-04
2.229987E+03	1.354572E-04	1.167541E-04
2.269809E+03	1.405109E-04	1.196115E-04
2.309630E+03	1.457877E-04	1.225323E-04
2.349451E+03	1.512639E-04	1.254878E-04
2.389272E+03	1.569606E-04	1.284868E-04
2.429093E+03	1.628989E-04	1.315374E-04
2.468915E+03	1.690506E-04	1.346069E-04
2.508736E+03	1.754856E-04	1.377411E-04
2.548557E+03	1.821469E-04	1.408839E-04
2.588378E+03	1.891040E-04	1.440785E-04
2.628199E+03	1.963207E-04	1.472852E-04
2.668021E+03	2.038661E-04	1.505435E-04
2.707842E+03	2.116986E-04	1.538092E-04
2.747663E+03	2.198563E-04	1.570968E-04
2.787484E+03	2.283467E-04	1.603973E-04
2.827305E+03	2.371738E-04	1.636987E-04
2.867127E+03	2.463375E-04	1.669859E-04
2.906948E+03	2.558919E-04	1.702797E-04
2.946769E+03	2.657987E-04	1.735376E-04
2.986590E+03	2.761019E-04	1.767716E-04
2.996546E+03	2.787311E-04	1.775689E-04
3.006501E+03	2.813979E-04	1.783714E-04
3.016456E+03	2.840716E-04	1.791595E-04
3.026411E+03	2.867812E-04	1.799511E-04
3.036367E+03	2.895258E-04	1.807454E-04
3.046322E+03	2.922743E-04	1.815227E-04
3.056277E+03	2.950560E-04	1.823009E-04
3.066233E+03	2.978696E-04	1.830790E-04
3.076188E+03	3.007144E-04	1.838560E-04
3.086143E+03	3.035588E-04	1.846125E-04
3.096099E+03	3.064324E-04	1.853663E-04
3.106054E+03	3.093637E-04	1.861342E-04
3.116009E+03	3.122916E-04	1.868791E-04
3.125964E+03	3.152451E-04	1.876182E-04
3.135920E+03	3.182231E-04	1.883505E-04
3.145875E+03	3.212540E-04	1.890925E-04
3.155830E+03	3.242770E-04	1.898080E-04
3.165786E+03	3.273507E-04	1.905311E-04
3.175741E+03	3.304437E-04	1.912432E-04
3.185696E+03	3.335551E-04	1.919435E-04
3.195652E+03	3.366834E-04	1.926309E-04
3.205607E+03	3.398572E-04	1.933214E-04
3.215562E+03	3.430753E-04	1.940139E-04
3.225517E+03	3.462767E-04	1.946735E-04
3.235473E+03	3.495493E-04	1.953496E-04
3.245428E+03	3.528028E-04	1.959912E-04
3.255383E+03	3.561249E-04	1.966468E-04
3.265339E+03	3.594552E-04	1.972826E-04
3.275294E+03	3.628216E-04	1.979137E-04
3.285249E+03	3.662231E-04	1.985392E-04
3.295205E+03	3.696293E-04	1.991421E-04
3.305160E+03	3.730973E-04	1.997531E-04
3.315115E+03	3.765677E-04	2.003398E-04
3.325070E+03	3.800976E-04	2.009323E-04
3.335026E+03	3.836279E-04	2.014991E-04
3.344981E+03	3.872157E-04	2.020697E-04
3.354936E+03	3.908314E-04	2.026283E-04
3.364892E+03	3.945027E-04	2.031887E-04
3.374847E+03	3.981714E-04	2.037206E-04
3.384802E+03	4.019234E-04	2.042677E-04
3.394758E+03	4.056722E-04	2.047852E-04
3.404713E+03	4.095032E-04	2.053162E-04
3.414668E+03	4.133312E-04	2.058171E-04
3.424623E+03	4.172412E-04	2.063301E-04
3.434579E+03	4.212050E-04	2.068405E-04
3.444534E+03	4.251954E-04	2.073343E-04
3.454489E+03	4.292411E-04	2.078251E-04
3.464445E+03	4.333711E-04	2.083263E-04
3.474400E+03	4.375307E-04	2.088108E-04
3.484355E+03	4.417774E-04	2.093055E-04
3.494311E+03	4.460850E-04	2.097972E-04
3.504266E+03	4.504560E-04	2.102864E-04
3.514221E+03	4.549205E-04	2.107862E-04
3.524176E+03	4.594535E-04	2.112842E-04
3.534132E+03	4.640856E-04	2.117935E-04
3.544087E+03	4.688201E-04	2.123147E-04
3.554042E+03	4.736341E-04	2.128362E-04
3.563998E+03	4.785852E-04	2.133829E-04
3.573953E+03	4.836239E-04	2.139314E-04
3.583908E+03	4.888090E-04	2.145065E-04
3.593864E+03	4.940915E-04	2.150853E-04
3.603819E+03	4.995299E-04	2.156921E-04
3.613774E+03	5.051028E-04	2.163159E-04
3.623729E+03	5.108423E-04	2.169690E-04
3.633685E+03	5.167276E-04	2.176406E-04
3.643640E+03	5.227900E-04	2.183425E-04
3.653595E+03	5.290096E-04	2.190642E-04
3.663551E+03	5.354435E-04	2.198277E-04
3.673506E+03	5.420446E-04	2.206114E-04
3.683461E+03	5.488445E-04	2.214261E-04
3.693417E+03	5.558731E-04	2.222819E-04
3.703372E+03	5.630832E-04	2.231573E-04
3.713327E+03	5.705294E-04	2.240719E-04
3.723282E+03	5.782151E-04	2.250244E-04
3.733238E+03	5.860905E-04	2.259931E-04
3.743193E+03	5.942341E-04	2.270059E-04
3.753148E+03	6.025942E-04	2.280401E-04
3.763104E+03	6.111955E-04	2.291028E-04
3.773059E+03	6.200096E-04	2.301808E-04
3.783014E+03	6.290839E-04	2.312891E-04
3.792970E+03	6.383618E-04	2.324044E-04
3.802925E+03	6.478869E-04	2.335401E-04
3.812880E+03	6.576246E-04	2.346811E-04
3.822835E+03	6.675637E-04	2.358212E-04
3.832791E+03	6.777166E-04	2.369626E-04
3.842746E+03	6.880420E-04	2.380885E-04
3.852701E+03	6.985230E-04	2.391914E-04
3.862657E+03	7.091643E-04	2.402710E-04
3.872612E+03	7.199445E-04	2.413186E-04
3.882567E+03	7.308133E-04	2.423158E-04
3.892523E+03	7.417701E-04	2.432616E-04
3.902478E+03	7.527865E-04	2.441457E-04
3.912433E+03	7.638067E-04	2.449497E-04
3.922388E+03	7.748503E-04	2.456797E-04
3.932344E+03	7.858346E-04	2.463096E-04
3.942299E+03	7.967519E-04	2.468377E-04
3.952254E+03	8.075693E-04	2.472546E-04
3.962210E+03	8.182546E-04	2.475518E-04
3.972165E+03	8.287768E-04	2.477215E-04
3.982120E+03	8.391065E-04	2.477568E-04
3.992076E+03	8.491923E-04	2.476450E-04
4.002031E+03	8.590599E-04	2.473961E-04
4.011986E+03	8.686393E-04	2.469927E-04
4.021941E+03	8.779393E-04	2.464406E-04
4.031897E+03	8.869469E-04	2.457393E-04
4.041852E+03	8.956317E-04	2.448837E-04
4.051807E+03	9.040147E-04	2.438833E-04
4.061763E+03	9.120992E-04	2.427422E-04
4.071718E+03	9.198453E-04	2.414534E-04
4.081673E+03	9.273135E-04	2.400364E-04
4.091629E+03	9.344745E-04	2.384870E-04
4.101584E+03	9.413981E-04	2.368261E-04
4.111539E+03	9.480646E-04	2.350517E-04
4.121494E+03	9.545278E-04	2.331799E-04
4.131450E+03	9.607993E-04	2.312158E-04
4.141405E+03	9.668940E-04	2.291653E-04
4.151360E+03	9.728974E-04	2.270504E-04
4.161316E+03	9.788070E-04	2.248719E-04
4.171271E+03	9.846670E-04	2.226407E-04
4.181226E+03	9.905229E-04	2.203680E-04
4.191182E+03	9.963995E-04	2.180594E-04
4.201137E+03	1.002366E-03	2.157296E-04
4.211092E+03	1.008426E-03	2.133789E-04
4.221047E+03	1.014649E-03	2.110211E-04
4.231003E+03	1.021043E-03	2.086557E-04
4.240958E+03	1.027694E-03	2.062992E-04
4.250913E+03	1.034590E-03	2.039462E-04
4.260869E+03	1.041799E-03	2.016074E-04
4.270824E+03	1.049346E-03	1.992851E-04
4.280779E+03	1.057259E-03	1.969806E-04
4.290735E+03	1.065603E-03	1.947027E-04
4.300690E+03	1.074384E-03	1.924478E-04
4.310645E+03	1.083647E-03	1.902196E-04
4.320601E+03	1.093435E-03	1.880206E-04
4.330556E+03	1.103770E-03	1.858496E-04
4.340511E+03	1.114672E-03	1.837045E-04
4.350466E+03	1.126179E-03	1.815856E-04
4.360422E+03	1.138326E-03	1.794926E-04
4.370377E+03	1.151104E-03	1.774180E-04
4.380332E+03	1.164559E-03	1.753626E-04
4.390288E+03	1.178693E-03	1.733199E-04
4.400243E+03	1.193502E-03	1.712830E-04
4.410198E+03	1.208990E-03	1.692463E-04
4.420154E+03	1.225139E-03	1.672006E-04
4.430109E+03	1.241937E-03	1.651383E-04
4.440064E+03	1.259362E-03	1.630508E-04
4.450019E+03	1.277362E-03	1.609259E-04
4.459975E+03	1.295891E-03	1.587528E-04
4.469930E+03	1.314889E-03	1.565204E-04
4.479885E+03	1.334246E-03	1.542119E-04
4.489841E+03	1.353917E-03	1.518198E-04
4.499796E+03	1.373784E-03	1.493296E-04
4.509751E+03	1.393696E-03	1.467248E-04
4.519707E+03	1.413597E-03	1.440006E-04
4.529662E+03	1.433296E-03	1.411399E-04
4.539617E+03	1.452680E-03	1.381358E-04
4.549572E+03	1.471613E-03	1.349807E-04
4.559528E+03	1.489936E-03	1.316670E-04
4.569483E+03	1.507559E-03	1.281950E-04
4.579438E+03	1.524291E-03	1.245584E-04
4.589394E+03	1.540059E-03	1.207622E-04
4.599349E+03	1.554759E-03	1.168106E-04
4.609304E+03	1.568264E-03	1.127072E-04
4.619260E+03	1.580548E-03	1.084647E-04
4.629215E+03	1.591567E-03	1.040946E-04
4.639170E+03	1.601252E-03	9.960783E-05
4.649125E+03	1.609647E-03	9.502284E-05
4.659081E+03	1.616752E-03	9.035543E-05
4.669036E+03	1.622633E-03	8.562504E-05
4.678991E+03	1.627312E-03	8.084858E-05
4.688947E+03	1.630936E-03	7.604907E-05
4.698902E+03	1.633544E-03	7.124360E-05
4.708857E+03	1.635315E-03	6.645564E-05
4.718813E+03	1.636332E-03	6.170435E-05
4.728768E+03	1.636751E-03	5.701242E-05
4.738723E+03	1.636713E-03	5.240310E-05
4.748678E+03	1.636360E-03	4.790212E-05
4.758634E+03	1.635833E-03	4.353953E-05
4.768589E+03	1.635291E-03	3.935275E-05
4.778544E+03	1.634865E-03	3.538931E-05
4.788500E+03	1.634658E-03	3.171265E-05
4.798455E+03	1.634826E-03	2.841063E-05
4.808410E+03	1.635451E-03	2.559954E-05
4.818366E+03	1.636642E-03	2.342612E-05
4.828321E+03	1.638476E-03	2.204816E-05
4.838276E+03	1.641016E-03	2.158823E-05
4.848231E+03	1.644327E-03	2.205360E-05
4.858187E+03	1.648420E-03	2.331393E-05
4.868142E+03	1.653348E-03	2.518479E-05
4.878097E+03	1.659087E-03	2.748568E-05
4.888053E+03	1.665636E-03	3.007067E-05
4.898008E+03	1.672976E-03	3.283197E-05
4.907963E+03	1.681012E-03	3.569176E-05
4.917919E+03	1.689734E-03	3.859663E-05
4.927874E+03	1.699013E-03	4.150627E-05
4.937829E+03	1.708794E-03	4.439222E-05
4.947784E+03	1.718945E-03	4.723116E-05
4.957740E+03	1.729390E-03	5.000559E-05
4.967695E+03	1.739965E-03	5.269852E-05
4.977650E+03	1.750608E-03	5.529791E-05
4.987606E+03	1.761132E-03	5.778921E-05
4.997561E+03	1.771483E-03	6.016289E-05
5.007516E+03	1.781528E-03	6.240771E-05
5.017472E+03	1.791166E-03	6.451397E-05
5.027427E+03	1.800333E-03	6.647375E-05
5.037382E+03	1.808932E-03	6.827858E-05
5.047337E+03	1.816948E-03	6.992344E-05
5.057293E+03	1.824293E-03	7.140123E-05
5.067248E+03	1.830980E-03	7.270924E-05
5.077203E+03	1.836970E-03	7.384336E-05
5.087159E+03	1.842256E-03	7.480136E-05
5.097114E+03	1.846862E-03	7.558287E-05
5.107069E+03	1.850799E-03	7.618759E-05
5.117025E+03	1.854057E-03	7.661505E-05
5.126980E+03	1.856676E-03	7.686732E-05
5.136935E+03	1.858674E-03	7.694618E-05
5.146890E+03	1.860047E-03	7.685307E-05
5.156846E+03	1.860832E-03	7.659167E-05
5.166801E+03	1.861042E-03	7.616525E-05
5.176756E+03	1.860690E-03	7.557752E-05
5.186712E+03	1.859759E-03	7.483171E-05
5.196667E+03	1.858275E-03	7.393329E-05
5.206622E+03	1.856217E-03	7.288654E-05
5.216578E+03	1.853603E-03	7.169793E-05
5.226533E+03	1.850406E-03	7.037295E-05
5.236488E+03	1.846619E-03	6.891864E-05
5.246443E+03	1.842232E-03	6.734291E-05
5.256399E+03	1.837231E-03	6.565453E-05
5.266354E+03	1.831584E-03	6.386274E-05
5.276309E+03	1.825277E-03	6.197876E-05
5.286265E+03	1.818317E-03	6.001595E-05
5.296220E+03	1.810668E-03	5.798792E-05
5.306175E+03	1.802296E-03	5.591028E-05
5.316131E+03	1.793190E-03	5.380155E-05
5.326086E+03	1.783358E-03	5.168331E-05
5.336041E+03	1.772771E-03	4.957869E-05
5.345996E+03	1.761401E-03	4.751404E-05
5.355952E+03	1.749246E-03	4.551955E-05
5.365907E+03	1.736305E-03	4.362878E-05
5.375862E+03	1.722601E-03	4.187880E-05
5.385818E+03	1.708081E-03	4.030707E-05
5.395773E+03	1.692797E-03	3.895444E-05
5.405728E+03	1.676744E-03	3.785904E-05
5.415684E+03	1.659944E-03	3.705532E-05
5.425639E+03	1.642422E-03	3.657020E-05
5.435594E+03	1.624192E-03	3.641441E-05
5.445549E+03	1.605314E-03	3.656407E-05
5.455505E+03	1.585823E-03	3.697914E-05
5.465460E+03	1.565800E-03	3.761590E-05
5.475415E+03	1.545304E-03	3.842883E-05
5.485371E+03	1.524452E-03	3.937569E-05
5.495326E+03	1.503301E-03	4.041647E-05
5.505281E+03	1.481971E-03	4.151755E-05
5.515237E+03	1.460568E-03	4.265031E-05
5.525192E+03	1.439205E-03	4.379153E-05
5.535147E+03	1.418036E-03	4.492403E-05
5.545102E+03	1.397149E-03	4.603326E-05
5.555058E+03	1.376705E-03	4.711071E-05
5.565013E+03	1.356818E-03	4.814990E-05
5.574968E+03	1.337633E-03	4.914839E-05
5.584924E+03	1.319282E-03	5.010582E-05
5.594879E+03	1.301921E-03	5.102505E-05
5.604834E+03	1.285648E-03	5.190839E-05
5.614790E+03	1.270596E-03	5.276120E-05
5.624745E+03	1.256893E-03	5.358979E-05
5.634700E+03	1.244657E-03	5.440115E-05
5.644655E+03	1.233954E-03	5.520073E-05
5.654611E+03	1.224894E-03	5.599643E-05
5.664566E+03	1.217545E-03	5.679461E-05
5.674521E+03	1.211962E-03	5.760108E-05
5.684477E+03	1.208180E-03	5.842078E-05
5.694432E+03	1.206230E-03	5.925827E-05
5.704387E+03	1.206111E-03	6.011613E-05
5.714343E+03	1.207784E-03	6.099468E-05
5.724298E+03	1.211228E-03	6.189454E-05
5.734253E+03	1.216353E-03	6.281238E-05
5.744209E+03	1.223059E-03	6.374349E-05
5.754164E+03	1.231228E-03	6.468167E-05
5.764119E+03	1.240687E-03	6.561707E-05
5.774074E+03	1.251259E-03	6.653909E-05
5.784030E+03	1.262727E-03	6.743427E-05
5.793985E+03	1.274829E-03	6.828646E-05
5.803940E+03	1.287311E-03	6.907940E-05
5.813896E+03	1.299882E-03	6.979479E-05
5.823851E+03	1.312240E-03	7.041363E-05
5.833806E+03	1.324059E-03	7.091591E-05
5.843762E+03	1.335047E-03	7.128377E-05
5.853717E+03	1.344908E-03	7.149973E-05
5.863672E+03	1.353352E-03	7.154742E-05
5.873627E+03	1.360151E-03	7.141473E-05
5.883583E+03	1.365087E-03	7.109106E-05
5.893538E+03	1.368020E-03	7.057110E-05
5.903493E+03	1.368834E-03	6.985189E-05
5.913449E+03	1.367472E-03	6.893459E-05
5.923404E+03	1.363983E-03	6.782677E-05
5.933359E+03	1.358430E-03	6.653747E-05
5.943315E+03	1.350933E-03	6.507910E-05
5.953270E+03	1.341694E-03	6.346846E-05
5.963225E+03	1.330928E-03	6.172306E-05
5.973180E+03	1.318902E-03	5.986257E-05
5.983136E+03	1.305909E-03	5.790736E-05
5.993091E+03	1.292259E-03	5.587774E-05
6.003046E+03	1.278256E-03	5.379276E-05
6.013002E+03	1.264231E-03	5.167142E-05
6.022957E+03	1.250480E-03	4.952980E-05
6.032912E+03	1.237312E-03	4.738303E-05
6.042868E+03	1.224972E-03	4.524231E-05
6.052823E+03	1.213729E-03	4.311813E-05
6.062778E+03	1.203796E-03	4.101753E-05
6.072733E+03	1.195392E-03	3.894624E-05
6.082689E+03	1.188678E-03	3.690692E-05
6.092644E+03	1.183808E-03	3.490083E-05
6.102599E+03	1.180924E-03	3.292801E-05
6.112555E+03	1.180105E-03	3.098609E-05
6.122510E+03	1.181436E-03	2.907272E-05
6.132465E+03	1.185008E-03	2.718585E-05
6.142421E+03	1.190826E-03	2.532209E-05
6.152376E+03	1.198956E-03	2.348110E-05
6.162331E+03	1.209361E-03	2.166302E-05
6.172286E+03	1.222054E-03	1.987337E-05
6.182242E+03	1.236981E-03	1.812327E-05
6.192197E+03	1.254077E-03	1.643426E-05
6.202152E+03	1.273263E-03	1.484369E-05
6.212108E+03	1.294392E-03	1.341175E-05
6.222063E+03	1.317297E-03	1.223003E-05
6.232018E+03	1.341772E-03	1.142239E-05
6.241974E+03	1.367573E-03	1.112387E-05
6.251929E+03	1.394421E-03	1.141357E-05
6.261884E+03	1.422029E-03	1.222997E-05
6.271839E+03	1.450060E-03	1.344155E-05
6.281795E+03	1.478188E-03	1.491232E-05
6.291750E+03	1.506108E-03	1.652947E-05
6.301705E+03	1.533490E-03	1.820672E-05
6.311661E+03	1.560042E-03	1.987940E-05
6.321616E+03	1.585517E-03	2.149839E-05
6.331571E+03	1.609685E-03	2.302510E-05
6.341527E+03	1.632332E-03	2.442844E-05
6.351482E+03	1.653325E-03	2.568392E-05
6.361437E+03	1.672551E-03	2.677189E-05
6.371392E+03	1.689919E-03	2.767688E-05
6.381348E+03	1.705438E-03	2.838861E-05
6.391303E+03	1.719091E-03	2.889986E-05
6.401258E+03	1.730910E-03	2.920772E-05
6.411214E+03	1.740956E-03	2.931325E-05
6.421169E+03	1.749308E-03	2.922159E-05
6.431124E+03	1.756083E-03	2.894261E-05
6.441080E+03	1.761387E-03	2.849051E-05
6.451035E+03	1.765307E-03	2.788454E-05
6.460990E+03	1.767976E-03	2.715106E-05
6.470945E+03	1.769498E-03	2.632373E-05
6.480901E+03	1.769996E-03	2.544605E-05
6.490856E+03	1.769519E-03	2.457189E-05
6.500811E+03	1.768191E-03	2.376942E-05
6.510767E+03	1.766079E-03	2.311938E-05
6.520722E+03	1.763235E-03	2.271300E-05
6.530677E+03	1.759698E-03	2.264435E-05
6.540633E+03	1.755490E-03	2.299773E-05
6.550588E+03	1.750625E-03	2.382220E-05
6.560543E+03	1.745128E-03	2.509230E-05
6.570498E+03	1.738992E-03	2.674934E-05
6.580454E+03	1.732199E-03	2.872585E-05
6.590409E+03	1.724731E-03	3.095568E-05
6.600364E+03	1.716590E-03	3.337979E-05
6.610320E+03	1.707760E-03	3.594734E-05
6.620275E+03	1.698206E-03	3.861537E-05
6.630230E+03	1.687974E-03	4.134978E-05
6.640186E+03	1.677053E-03	4.412128E-05
6.650141E+03	1.665496E-03	4.690693E-05
6.660096E+03	1.653325E-03	4.968701E-05
6.670051E+03	1.640650E-03	5.244769E-05
6.680007E+03	1.627510E-03	5.517588E-05
6.689962E+03	1.614051E-03	5.786452E-05
6.699917E+03	1.600373E-03	6.050731E-05
6.709873E+03	1.586630E-03	6.310230E-05
6.719828E+03	1.572971E-03	6.564937E-05
6.729783E+03	1.559555E-03	6.815092E-05
6.739739E+03	1.546548E-03	7.061156E-05
6.749694E+03	1.534141E-03	7.303901E-05
6.759649E+03	1.522486E-03	7.544099E-05
6.769604E+03	1.511756E-03	7.782778E-05
6.779560E+03	1.502140E-03	8.021222E-05
6.789515E+03	1.493799E-03	8.260730E-05
6.799470E+03	1.486870E-03	8.502585E-05
6.809426E+03	1.481537E-03	8.748472E-05
6.819381E+03	1.477891E-03	8.999645E-05
6.829336E+03	1.476093E-03	9.257852E-05
6.839292E+03	1.476226E-03	9.524453E-05
6.849247E+03	1.478374E-03	9.800858E-05
6.859202E+03	1.482625E-03	1.008854E-04
6.869157E+03	1.489006E-03	1.038859E-04
6.879113E+03	1.497542E-03	1.070205E-04
6.889068E+03	1.508255E-03	1.102997E-04
6.899023E+03	1.521104E-03	1.137287E-04
6.908979E+03	1.536043E-03	1.173117E-04
6.918934E+03	1.553027E-03	1.210527E-04
6.928889E+03	1.571966E-03	1.249508E-04
6.938845E+03	1.592705E-03	1.289994E-04
6.948800E+03	1.615182E-03	1.331979E-04
6.958755E+03	1.639184E-03	1.375326E-04
6.968710E+03	1.664604E-03	1.419970E-04
6.978666E+03	1.691280E-03	1.465790E-04
6.988621E+03	1.719002E-03	1.512610E-04
6.998576E+03	1.747660E-03	1.560329E-04
7.008532E+03	1.777079E-03	1.608781E-04
7.018487E+03	1.807126E-03	1.657823E-04
7.028442E+03	1.837680E-03	1.707320E-04
7.038398E+03	1.868645E-03	1.757151E-04
7.048353E+03	1.899945E-03	1.807204E-04
7.058308E+03	1.931525E-03	1.857390E-04
7.068263E+03	1.963320E-03	1.907602E-04
7.078219E+03	1.995308E-03	1.957773E-04
7.088174E+03	2.027506E-03	2.007872E-04
7.098129E+03	2.059874E-03	2.057812E-04
7.108085E+03	2.092396E-03	2.107526E-04
7.118040E+03	2.125038E-03	2.156931E-04
7.127995E+03	2.157744E-03	2.205917E-04
7.137951E+03	2.190391E-03	2.254301E-04
7.147906E+03	2.222874E-03	2.301920E-04
7.157861E+03	2.254975E-03	2.348488E-04
7.167817E+03	2.286449E-03	2.393684E-04
7.177772E+03	2.316956E-03	2.437088E-04
7.187727E+03	2.346160E-03	2.478275E-04
7.197682E+03	2.373632E-03	2.516723E-04
7.207638E+03	2.398855E-03	2.551810E-04
7.217593E+03	2.421266E-03	2.582866E-04
7.227548E+03	2.440378E-03	2.609302E-04
7.237504E+03	2.455515E-03	2.630335E-04
7.247459E+03	2.466190E-03	2.645388E-04
7.257414E+03	2.471846E-03	2.653815E-04
7.267370E+03	2.472018E-03	2.655089E-04
7.277325E+03	2.466294E-03	2.648753E-04
7.287280E+03	2.454442E-03	2.634560E-04
7.297235E+03	2.436250E-03	2.612305E-04
7.307191E+03	2.411790E-03	2.582111E-04
7.317146E+03	2.381143E-03	2.544124E-04
7.327101E+03	2.344639E-03	2.498782E-04
7.337057E+03	2.302676E-03	2.446607E-04
7.347012E+03	2.255811E-03	2.388304E-04
7.356967E+03	2.204698E-03	2.324689E-04
7.366923E+03	2.150064E-03	2.256657E-04
7.376878E+03	2.092678E-03	2.185149E-04
7.386833E+03	2.033297E-03	2.111082E-04
7.396788E+03	1.972725E-03	2.035415E-04
7.406744E+03	1.911698E-03	1.959023E-04
7.416699E+03	1.850874E-03	1.882680E-04
7.426654E+03	1.790895E-03	1.807128E-04
7.436610E+03	1.732273E-03	1.732955E-04
7.446565E+03	1.675488E-03	1.660697E-04
7.456520E+03	1.620914E-03	1.590759E-04
7.466476E+03	1.568842E-03	1.523449E-04
7.476431E+03	1.519468E-03	1.458959E-04
7.486386E+03	1.472968E-03	1.397448E-04
7.496341E+03	1.429437E-03	1.338981E-04
7.506297E+03	1.388922E-03	1.283566E-04
7.516252E+03	1.351448E-03	1.231177E-04
7.526207E+03	1.316969E-03	1.181716E-04
7.536163E+03	1.285438E-03	1.135072E-04
7.546118E+03	1.256803E-03	1.091128E-04
7.556073E+03	1.230985E-03	1.049733E-04
7.566029E+03	1.207892E-03	1.010725E-04
7.575984E+03	1.187429E-03	9.739317E-05
7.585939E+03	1.169478E-03	9.391628E-05
7.595894E+03	1.153971E-03	9.062666E-05
7.605850E+03	1.140803E-03	8.750574E-05
7.615805E+03	1.129848E-03	8.453358E-05
7.625760E+03	1.120997E-03	8.169154E-05
7.635716E+03	1.114151E-03	7.896196E-05
7.645671E+03	1.109174E-03	7.632475E-05
7.655626E+03	1.105980E-03	7.376348E-05
7.665582E+03	1.104411E-03	7.125734E-05
7.675537E+03	1.104353E-03	6.878923E-05
7.685492E+03	1.105662E-03	6.634066E-05
7.695447E+03	1.108240E-03	6.389675E-05
7.705403E+03	1.111927E-03	6.143980E-05
7.715358E+03	1.116613E-03	5.895603E-05
7.725313E+03	1.122177E-03	5.643214E-05
