#wls	flux	fluxerr
1.592848E+03	7.409537E-05	4.305656E-05
1.632669E+03	7.639073E-05	4.406004E-05
1.672491E+03	7.875785E-05	4.507927E-05
1.712312E+03	8.119742E-05	4.611315E-05
1.752133E+03	8.370998E-05	4.716044E-05
1.791954E+03	8.631052E-05	4.822794E-05
1.831775E+03	8.900040E-05	4.931456E-05
1.871597E+03	9.176536E-05	5.041056E-05
1.911418E+03	9.460520E-05	5.151411E-05
1.951239E+03	9.755199E-05	5.264074E-05
1.991060E+03	1.005742E-04	5.377129E-05
2.030881E+03	1.036880E-04	5.491249E-05
2.070703E+03	1.068935E-04	5.606220E-05
2.110524E+03	1.102085E-04	5.722746E-05
2.150345E+03	1.135970E-04	5.838729E-05
2.190166E+03	1.170948E-04	5.955779E-05
2.229987E+03	1.206827E-04	6.072677E-05
2.269809E+03	1.243596E-04	6.189124E-05
2.309630E+03	1.281640E-04	6.306777E-05
2.349451E+03	1.320556E-04	6.423366E-05
2.389272E+03	1.360322E-04	6.538538E-05
2.429093E+03	1.401341E-04	6.653963E-05
2.468915E+03	1.443396E-04	6.768291E-05
2.508736E+03	1.486469E-04	6.881156E-05
2.548557E+03	1.530771E-04	6.993223E-05
2.588378E+03	1.576062E-04	7.103086E-05
2.628199E+03	1.622560E-04	7.211402E-05
2.668021E+03	1.670256E-04	7.317800E-05
2.707842E+03	1.718900E-04	7.420853E-05
2.747663E+03	1.768971E-04	7.522290E-05
2.787484E+03	1.820228E-04	7.620700E-05
2.827305E+03	1.872927E-04	7.716786E-05
2.867127E+03	1.926831E-04	7.809164E-05
2.906948E+03	1.982218E-04	7.898570E-05
2.946769E+03	2.039125E-04	7.984712E-05
2.986590E+03	2.097868E-04	8.068363E-05
2.996546E+03	2.112730E-04	8.088404E-05
3.006501E+03	2.127611E-04	8.107883E-05
3.016456E+03	2.142782E-04	8.127831E-05
3.026411E+03	2.157973E-04	8.147211E-05
3.036367E+03	2.173186E-04	8.166023E-05
3.046322E+03	2.188695E-04	8.185290E-05
3.056277E+03	2.204227E-04	8.203983E-05
3.066233E+03	2.220061E-04	8.223124E-05
3.076188E+03	2.235921E-04	8.241684E-05
3.086143E+03	2.251810E-04	8.259665E-05
3.096099E+03	2.267727E-04	8.277065E-05
3.106054E+03	2.283954E-04	8.294900E-05
3.116009E+03	2.300214E-04	8.312151E-05
3.125964E+03	2.316789E-04	8.329829E-05
3.135920E+03	2.333400E-04	8.346919E-05
3.145875E+03	2.350051E-04	8.363422E-05
3.155830E+03	2.367024E-04	8.380345E-05
3.165786E+03	2.384041E-04	8.396678E-05
3.175741E+03	2.401103E-04	8.412422E-05
3.185696E+03	2.418497E-04	8.428577E-05
3.195652E+03	2.435941E-04	8.444142E-05
3.205607E+03	2.453726E-04	8.460112E-05
3.215562E+03	2.471566E-04	8.475491E-05
3.225517E+03	2.489463E-04	8.490280E-05
3.235473E+03	2.507712E-04	8.505467E-05
3.245428E+03	2.526024E-04	8.520064E-05
3.255383E+03	2.544403E-04	8.534074E-05
3.265339E+03	2.563145E-04	8.548475E-05
3.275294E+03	2.582253E-04	8.563262E-05
3.285249E+03	2.601146E-04	8.576490E-05
3.295205E+03	2.620413E-04	8.590103E-05
3.305160E+03	2.640060E-04	8.604095E-05
3.315115E+03	2.659500E-04	8.616540E-05
3.325070E+03	2.679625E-04	8.630323E-05
3.335026E+03	2.699550E-04	8.642566E-05
3.344981E+03	2.719873E-04	8.655182E-05
3.354936E+03	2.740600E-04	8.668167E-05
3.364892E+03	2.761137E-04	8.679624E-05
3.374847E+03	2.782389E-04	8.692392E-05
3.384802E+03	2.803458E-04	8.703638E-05
3.394758E+03	2.824952E-04	8.715247E-05
3.404713E+03	2.846877E-04	8.727213E-05
3.414668E+03	2.868632E-04	8.737669E-05
3.424623E+03	2.891135E-04	8.749408E-05
3.434579E+03	2.913475E-04	8.759644E-05
3.444534E+03	2.936270E-04	8.770228E-05
3.454489E+03	2.959527E-04	8.781154E-05
3.464445E+03	2.982635E-04	8.790589E-05
3.474400E+03	3.006527E-04	8.801273E-05
3.484355E+03	3.030279E-04	8.810471E-05
3.494311E+03	3.054520E-04	8.820000E-05
3.504266E+03	3.079255E-04	8.829851E-05
3.514221E+03	3.103868E-04	8.838231E-05
3.524176E+03	3.129302E-04	8.847815E-05
3.534132E+03	3.154620E-04	8.855920E-05
3.544087E+03	3.180466E-04	8.864346E-05
3.554042E+03	3.206840E-04	8.873060E-05
3.563998E+03	3.233439E-04	8.881192E-05
3.573953E+03	3.260262E-04	8.888727E-05
3.583908E+03	3.287319E-04	8.895676E-05
3.593864E+03	3.314939E-04	8.902904E-05
3.603819E+03	3.343129E-04	8.910394E-05
3.613774E+03	3.371575E-04	8.917280E-05
3.623729E+03	3.400285E-04	8.923564E-05
3.633685E+03	3.429263E-04	8.929238E-05
3.643640E+03	3.458845E-04	8.935153E-05
3.653595E+03	3.488712E-04	8.940449E-05
3.663551E+03	3.519199E-04	8.945962E-05
3.673506E+03	3.549987E-04	8.950846E-05
3.683461E+03	3.581411E-04	8.955918E-05
3.693417E+03	3.612821E-04	8.959524E-05
3.703372E+03	3.644887E-04	8.963313E-05
3.713327E+03	3.677621E-04	8.967269E-05
3.723282E+03	3.710695E-04	8.970555E-05
3.733238E+03	3.744118E-04	8.973175E-05
3.743193E+03	3.778234E-04	8.975919E-05
3.753148E+03	3.812379E-04	8.977178E-05
3.763104E+03	3.847578E-04	8.979340E-05
3.773059E+03	3.882817E-04	8.979997E-05
3.783014E+03	3.918794E-04	8.980740E-05
3.792970E+03	3.955168E-04	8.980750E-05
3.802925E+03	3.992302E-04	8.980817E-05
3.812880E+03	4.029856E-04	8.980132E-05
3.822835E+03	4.067836E-04	8.978684E-05
3.832791E+03	4.106256E-04	8.976472E-05
3.842746E+03	4.145474E-04	8.974246E-05
3.852701E+03	4.185152E-04	8.971228E-05
3.862657E+03	4.225296E-04	8.967400E-05
3.872612E+03	4.266271E-04	8.963503E-05
3.882567E+03	4.307737E-04	8.958772E-05
3.892523E+03	4.349701E-04	8.953192E-05
3.902478E+03	4.392176E-04	8.946757E-05
3.912433E+03	4.435528E-04	8.940175E-05
3.922388E+03	4.479410E-04	8.932693E-05
3.932344E+03	4.523832E-04	8.924302E-05
3.942299E+03	4.568803E-04	8.914982E-05
3.952254E+03	4.614706E-04	8.905441E-05
3.962210E+03	4.661183E-04	8.894937E-05
3.972165E+03	4.708244E-04	8.883449E-05
3.982120E+03	4.755895E-04	8.870957E-05
3.992076E+03	4.804154E-04	8.857453E-05
4.002031E+03	4.853404E-04	8.843603E-05
4.011986E+03	4.903283E-04	8.828690E-05
4.021941E+03	4.953417E-04	8.812011E-05
4.031897E+03	5.004578E-04	8.794911E-05
4.041852E+03	5.056789E-04	8.777364E-05
4.051807E+03	5.109282E-04	8.757990E-05
4.061763E+03	5.162456E-04	8.737450E-05
4.071718E+03	5.216711E-04	8.716374E-05
4.081673E+03	5.271665E-04	8.694065E-05
4.091629E+03	5.326933E-04	8.669856E-05
4.101584E+03	5.383321E-04	8.645026E-05
4.111539E+03	5.440432E-04	8.618881E-05
4.121494E+03	5.498286E-04	8.591410E-05
4.131450E+03	5.556883E-04	8.562573E-05
4.141405E+03	5.616234E-04	8.532344E-05
4.151360E+03	5.676343E-04	8.500691E-05
4.161316E+03	5.737218E-04	8.467582E-05
4.171271E+03	5.798866E-04	8.432988E-05
4.181226E+03	5.861714E-04	8.397479E-05
4.191182E+03	5.924924E-04	8.359807E-05
4.201137E+03	5.988917E-04	8.320545E-05
4.211092E+03	6.053700E-04	8.279664E-05
4.221047E+03	6.119273E-04	8.237122E-05
4.231003E+03	6.185638E-04	8.192888E-05
4.240958E+03	6.252790E-04	8.146917E-05
4.250913E+03	6.320732E-04	8.099177E-05
4.260869E+03	6.389019E-04	8.049074E-05
4.270824E+03	6.458525E-04	7.997686E-05
4.280779E+03	6.528363E-04	7.943872E-05
4.290735E+03	6.599413E-04	7.888685E-05
4.300690E+03	6.670772E-04	7.831008E-05
4.310645E+03	6.742878E-04	7.771346E-05
4.320601E+03	6.815719E-04	7.709663E-05
4.330556E+03	6.889280E-04	7.645921E-05
4.340511E+03	6.963541E-04	7.580081E-05
4.350466E+03	7.038028E-04	7.511619E-05
4.360422E+03	7.113176E-04	7.441010E-05
4.370377E+03	7.188967E-04	7.368222E-05
4.380332E+03	7.265374E-04	7.293226E-05
4.390288E+03	7.342372E-04	7.215995E-05
4.400243E+03	7.419456E-04	7.136046E-05
4.410198E+03	7.497065E-04	7.053830E-05
4.420154E+03	7.575173E-04	6.969334E-05
4.430109E+03	7.653740E-04	6.882542E-05
4.440064E+03	7.732237E-04	6.793010E-05
4.450019E+03	7.811116E-04	6.701189E-05
4.459975E+03	7.890329E-04	6.607072E-05
4.469930E+03	7.969330E-04	6.510259E-05
4.479885E+03	8.048572E-04	6.411192E-05
4.489841E+03	8.128006E-04	6.309891E-05
4.499796E+03	8.207061E-04	6.205994E-05
4.509751E+03	8.286197E-04	6.099947E-05
4.519707E+03	8.365358E-04	5.991798E-05
4.529662E+03	8.443958E-04	5.881237E-05
4.539617E+03	8.522452E-04	5.768714E-05
4.549572E+03	8.600254E-04	5.653966E-05
4.559528E+03	8.677818E-04	5.537451E-05
4.569483E+03	8.755076E-04	5.419279E-05
4.579438E+03	8.831426E-04	5.299258E-05
4.589394E+03	8.907328E-04	5.177871E-05
4.599349E+03	8.982709E-04	5.055281E-05
4.609304E+03	9.056950E-04	4.931379E-05
4.619260E+03	9.129972E-04	4.806401E-05
4.629215E+03	9.202241E-04	4.680888E-05
4.639170E+03	9.273677E-04	4.555104E-05
4.649125E+03	9.343655E-04	4.429084E-05
4.659081E+03	9.412647E-04	4.303437E-05
4.669036E+03	9.480015E-04	4.178284E-05
4.678991E+03	9.546237E-04	4.054296E-05
4.688947E+03	9.610684E-04	3.931700E-05
4.698902E+03	9.673828E-04	3.811237E-05
4.708857E+03	9.735043E-04	3.693248E-05
4.718813E+03	9.794812E-04	3.578564E-05
4.728768E+03	9.852500E-04	3.467642E-05
4.738723E+03	9.908611E-04	3.361409E-05
4.748678E+03	9.962509E-04	3.260439E-05
4.758634E+03	1.001470E-03	3.165737E-05
4.768589E+03	1.006457E-03	3.077965E-05
4.778544E+03	1.011207E-03	2.998000E-05
4.788500E+03	1.015831E-03	2.927040E-05
4.798455E+03	1.020154E-03	2.865407E-05
4.808410E+03	1.024288E-03	2.814196E-05
4.818366E+03	1.028174E-03	2.773902E-05
4.828321E+03	1.031867E-03	2.745171E-05
4.838276E+03	1.035309E-03	2.727774E-05
4.848231E+03	1.038554E-03	2.721335E-05
4.858187E+03	1.041545E-03	2.725003E-05
4.868142E+03	1.044338E-03	2.738099E-05
4.878097E+03	1.046877E-03	2.759544E-05
4.888053E+03	1.049160E-03	2.788348E-05
4.898008E+03	1.051245E-03	2.823651E-05
4.907963E+03	1.053075E-03	2.864286E-05
4.917919E+03	1.054710E-03	2.909433E-05
4.927874E+03	1.056092E-03	2.957998E-05
4.937829E+03	1.057280E-03	3.009269E-05
4.947784E+03	1.058217E-03	3.062278E-05
4.957740E+03	1.058904E-03	3.116288E-05
4.967695E+03	1.059403E-03	3.170805E-05
4.977650E+03	1.059655E-03	3.225066E-05
4.987606E+03	1.059722E-03	3.278720E-05
4.997561E+03	1.059546E-03	3.331128E-05
5.007516E+03	1.059132E-03	3.381884E-05
5.017472E+03	1.058537E-03	3.430815E-05
5.027427E+03	1.057764E-03	3.477627E-05
5.037382E+03	1.056702E-03	3.521688E-05
5.047337E+03	1.055466E-03	3.563156E-05
5.057293E+03	1.054059E-03	3.601860E-05
5.067248E+03	1.052428E-03	3.637464E-05
5.077203E+03	1.050574E-03	3.669855E-05
5.087159E+03	1.048557E-03	3.699147E-05
5.097114E+03	1.046323E-03	3.725090E-05
5.107069E+03	1.043931E-03	3.747849E-05
5.117025E+03	1.041327E-03	3.767221E-05
5.126980E+03	1.038570E-03	3.783415E-05
5.136935E+03	1.035608E-03	3.796268E-05
5.146890E+03	1.032443E-03	3.805832E-05
5.156846E+03	1.029133E-03	3.812375E-05
5.166801E+03	1.025626E-03	3.815782E-05
5.176756E+03	1.021980E-03	3.816357E-05
5.186712E+03	1.018144E-03	3.814015E-05
5.196667E+03	1.014119E-03	3.808885E-05
5.206622E+03	1.009964E-03	3.801311E-05
5.216578E+03	1.005680E-03	3.791448E-05
5.226533E+03	1.001218E-03	3.779262E-05
5.236488E+03	9.965814E-04	3.764936E-05
5.246443E+03	9.918246E-04	3.748851E-05
5.256399E+03	9.868995E-04	3.731011E-05
5.266354E+03	9.818604E-04	3.711817E-05
5.276309E+03	9.766592E-04	3.691289E-05
5.286265E+03	9.712995E-04	3.669649E-05
5.296220E+03	9.658356E-04	3.647319E-05
5.306175E+03	9.602695E-04	3.624524E-05
5.316131E+03	9.545553E-04	3.601315E-05
5.326086E+03	9.487450E-04	3.578112E-05
5.336041E+03	9.427447E-04	3.554786E-05
5.345996E+03	9.367041E-04	3.532125E-05
5.355952E+03	9.305291E-04	3.509995E-05
5.365907E+03	9.242234E-04	3.488625E-05
5.375862E+03	9.178390E-04	3.468418E-05
5.385818E+03	9.113783E-04	3.449583E-05
5.395773E+03	9.047983E-04	3.432143E-05
5.405728E+03	8.981031E-04	3.416285E-05
5.415684E+03	8.913425E-04	3.402356E-05
5.425639E+03	8.844749E-04	3.390258E-05
5.435594E+03	8.775517E-04	3.380011E-05
5.445549E+03	8.705812E-04	3.371427E-05
5.455505E+03	8.635279E-04	3.364141E-05
5.465460E+03	8.564462E-04	3.358137E-05
5.475415E+03	8.493023E-04	3.353055E-05
5.485371E+03	8.421073E-04	3.348714E-05
5.495326E+03	8.349143E-04	3.345107E-05
5.505281E+03	8.277330E-04	3.342064E-05
5.515237E+03	8.205303E-04	3.339248E-05
5.525192E+03	8.133580E-04	3.336678E-05
5.535147E+03	8.062248E-04	3.334207E-05
5.545102E+03	7.990985E-04	3.331531E-05
5.555058E+03	7.919883E-04	3.328526E-05
5.565013E+03	7.849432E-04	3.325247E-05
5.574968E+03	7.779707E-04	3.321589E-05
5.584924E+03	7.710395E-04	3.317292E-05
5.594879E+03	7.641959E-04	3.312439E-05
5.604834E+03	7.574089E-04	3.306789E-05
5.614790E+03	7.507235E-04	3.300443E-05
5.624745E+03	7.441464E-04	3.293347E-05
5.634700E+03	7.376458E-04	3.285284E-05
5.644655E+03	7.312658E-04	3.276381E-05
5.654611E+03	7.249746E-04	3.266437E-05
5.664566E+03	7.188513E-04	3.255756E-05
5.674521E+03	7.127920E-04	3.243825E-05
5.684477E+03	7.069103E-04	3.231120E-05
5.694432E+03	7.011028E-04	3.217136E-05
5.704387E+03	6.954815E-04	3.202361E-05
5.714343E+03	6.899801E-04	3.186466E-05
5.724298E+03	6.846371E-04	3.169613E-05
5.734253E+03	6.794568E-04	3.151807E-05
5.744209E+03	6.744080E-04	3.132893E-05
5.754164E+03	6.695293E-04	3.113043E-05
5.764119E+03	6.647894E-04	3.092106E-05
5.774074E+03	6.602263E-04	3.070257E-05
5.784030E+03	6.558422E-04	3.047505E-05
5.793985E+03	6.516405E-04	3.023866E-05
5.803940E+03	6.475908E-04	2.999203E-05
5.813896E+03	6.437290E-04	2.973683E-05
5.823851E+03	6.400253E-04	2.947174E-05
5.833806E+03	6.365477E-04	2.919993E-05
5.843762E+03	6.332333E-04	2.891855E-05
5.853717E+03	6.300856E-04	2.862781E-05
5.863672E+03	6.271710E-04	2.833077E-05
5.873627E+03	6.244279E-04	2.802469E-05
5.883583E+03	6.218913E-04	2.771118E-05
5.893538E+03	6.195319E-04	2.738896E-05
5.903493E+03	6.174153E-04	2.706097E-05
5.913449E+03	6.154813E-04	2.672456E-05
5.923404E+03	6.137330E-04	2.637991E-05
5.933359E+03	6.122354E-04	2.602984E-05
5.943315E+03	6.109291E-04	2.567178E-05
5.953270E+03	6.098481E-04	2.530719E-05
5.963225E+03	6.089957E-04	2.493618E-05
5.973180E+03	6.083743E-04	2.455883E-05
5.983136E+03	6.079568E-04	2.417404E-05
5.993091E+03	6.077774E-04	2.378318E-05
6.003046E+03	6.078398E-04	2.338638E-05
6.013002E+03	6.081160E-04	2.298258E-05
6.022957E+03	6.086727E-04	2.257433E-05
6.032912E+03	6.094511E-04	2.215944E-05
6.042868E+03	6.104866E-04	2.173930E-05
6.052823E+03	6.117838E-04	2.131414E-05
6.062778E+03	6.133158E-04	2.088318E-05
6.072733E+03	6.151497E-04	2.044891E-05
6.082689E+03	6.172279E-04	2.000961E-05
6.092644E+03	6.195868E-04	1.956684E-05
6.102599E+03	6.222320E-04	1.912119E-05
6.112555E+03	6.251367E-04	1.867238E-05
6.122510E+03	6.283713E-04	1.822323E-05
6.132465E+03	6.318775E-04	1.777283E-05
6.142421E+03	6.356937E-04	1.732337E-05
6.152376E+03	6.398266E-04	1.687627E-05
6.162331E+03	6.442832E-04	1.643327E-05
6.172286E+03	6.490704E-04	1.599637E-05
6.182242E+03	6.541629E-04	1.556721E-05
6.192197E+03	6.596347E-04	1.515019E-05
6.202152E+03	6.654268E-04	1.474702E-05
6.212108E+03	6.715814E-04	1.436229E-05
6.222063E+03	6.781068E-04	1.400032E-05
6.232018E+03	6.850095E-04	1.366597E-05
6.241974E+03	6.922575E-04	1.336389E-05
6.251929E+03	6.999251E-04	1.310132E-05
6.261884E+03	7.079401E-04	1.288307E-05
6.271839E+03	7.163723E-04	1.271682E-05
6.281795E+03	7.251417E-04	1.260752E-05
6.291750E+03	7.342734E-04	1.256050E-05
6.301705E+03	7.437534E-04	1.257472E-05
6.311661E+03	7.535654E-04	1.264685E-05
6.321616E+03	7.636535E-04	1.277208E-05
6.331571E+03	7.740787E-04	1.294702E-05
6.341527E+03	7.847835E-04	1.316594E-05
6.351482E+03	7.957068E-04	1.342294E-05
6.361437E+03	8.069100E-04	1.371426E-05
6.371392E+03	8.182881E-04	1.403359E-05
6.381348E+03	8.298599E-04	1.437708E-05
6.391303E+03	8.416014E-04	1.474067E-05
6.401258E+03	8.534874E-04	1.512082E-05
6.411214E+03	8.654915E-04	1.551459E-05
6.421169E+03	8.775869E-04	1.591966E-05
6.431124E+03	8.897452E-04	1.633434E-05
6.441080E+03	9.019367E-04	1.675759E-05
6.451035E+03	9.141311E-04	1.718905E-05
6.460990E+03	9.262481E-04	1.762807E-05
6.470945E+03	9.383525E-04	1.807742E-05
6.480901E+03	9.503632E-04	1.853778E-05
6.490856E+03	9.621954E-04	1.901033E-05
6.500811E+03	9.739187E-04	1.949991E-05
6.510767E+03	9.854021E-04	2.000789E-05
6.520722E+03	9.967226E-04	2.054035E-05
6.530677E+03	1.007750E-03	2.109950E-05
6.540633E+03	1.018514E-03	2.169118E-05
6.550588E+03	1.029049E-03	2.232153E-05
6.560543E+03	1.039229E-03	2.299337E-05
6.570498E+03	1.049094E-03	2.371298E-05
6.580454E+03	1.058635E-03	2.448541E-05
6.590409E+03	1.067901E-03	2.531523E-05
6.600364E+03	1.076775E-03	2.619804E-05
6.610320E+03	1.085311E-03	2.713204E-05
6.620275E+03	1.093508E-03	2.811380E-05
6.630230E+03	1.101365E-03	2.913962E-05
6.640186E+03	1.108881E-03	3.020565E-05
6.650141E+03	1.116056E-03	3.130794E-05
6.660096E+03	1.122892E-03	3.244254E-05
6.670051E+03	1.129389E-03	3.360552E-05
6.680007E+03	1.135552E-03	3.479303E-05
6.689962E+03	1.141382E-03	3.600128E-05
6.699917E+03	1.146882E-03	3.722662E-05
6.709873E+03	1.152119E-03	3.846760E-05
6.719828E+03	1.156971E-03	3.971675E-05
6.729783E+03	1.161506E-03	4.097283E-05
6.739739E+03	1.165728E-03	4.223274E-05
6.749694E+03	1.169643E-03	4.349351E-05
6.759649E+03	1.173191E-03	4.474992E-05
6.769604E+03	1.176506E-03	4.600402E-05
6.779560E+03	1.179528E-03	4.725096E-05
6.789515E+03	1.182266E-03	4.848833E-05
6.799470E+03	1.184722E-03	4.971381E-05
6.809426E+03	1.186905E-03	5.092526E-05
6.819381E+03	1.188819E-03	5.212062E-05
6.829336E+03	1.190472E-03	5.329799E-05
6.839292E+03	1.191869E-03	5.445554E-05
6.849247E+03	1.193014E-03	5.559151E-05
6.859202E+03	1.193916E-03	5.670433E-05
6.869157E+03	1.194580E-03	5.779247E-05
6.879113E+03	1.195010E-03	5.885445E-05
6.889068E+03	1.195213E-03	5.988895E-05
6.899023E+03	1.195195E-03	6.089469E-05
6.908979E+03	1.194960E-03	6.187051E-05
6.918934E+03	1.194515E-03	6.281527E-05
6.928889E+03	1.193864E-03	6.372793E-05
6.938845E+03	1.193013E-03	6.460752E-05
6.948800E+03	1.191966E-03	6.545314E-05
6.958755E+03	1.190727E-03	6.626394E-05
6.968710E+03	1.189238E-03	6.703548E-05
6.978666E+03	1.187633E-03	6.777434E-05
6.988621E+03	1.185849E-03	6.847620E-05
6.998576E+03	1.183893E-03	6.914047E-05
7.008532E+03	1.181769E-03	6.976660E-05
7.018487E+03	1.179415E-03	7.035025E-05
7.028442E+03	1.176965E-03	7.089861E-05
7.038398E+03	1.174359E-03	7.140749E-05
7.048353E+03	1.171600E-03	7.187653E-05
7.058308E+03	1.168629E-03	7.230145E-05
7.068263E+03	1.165576E-03	7.268993E-05
7.078219E+03	1.162383E-03	7.303781E-05
7.088174E+03	1.158987E-03	7.334085E-05
7.098129E+03	1.155523E-03	7.360706E-05
7.108085E+03	1.151864E-03	7.382825E-05
7.118040E+03	1.148143E-03	7.401252E-05
7.127995E+03	1.144236E-03	7.415169E-05
7.137951E+03	1.140211E-03	7.425000E-05
7.147906E+03	1.136134E-03	7.431159E-05
7.157861E+03	1.131883E-03	7.432841E-05
7.167817E+03	1.127525E-03	7.430475E-05
7.177772E+03	1.123065E-03	7.424086E-05
7.187727E+03	1.118505E-03	7.413698E-05
7.197682E+03	1.113852E-03	7.399346E-05
7.207638E+03	1.109107E-03	7.381059E-05
7.217593E+03	1.104276E-03	7.358884E-05
7.227548E+03	1.099363E-03	7.332854E-05
7.237504E+03	1.094310E-03	7.302604E-05
7.247459E+03	1.089246E-03	7.269009E-05
7.257414E+03	1.084114E-03	7.231707E-05
7.267370E+03	1.078855E-03	7.190343E-05
7.277325E+03	1.073538E-03	7.145387E-05
7.287280E+03	1.068225E-03	7.097292E-05
7.297235E+03	1.062802E-03	7.045325E-05
7.307191E+03	1.057333E-03	6.989948E-05
7.317146E+03	1.051822E-03	6.931228E-05
7.327101E+03	1.046275E-03	6.869229E-05
7.337057E+03	1.040637E-03	6.803636E-05
7.347012E+03	1.035030E-03	6.735293E-05
7.356967E+03	1.029342E-03	6.663503E-05
7.366923E+03	1.023693E-03	6.589097E-05
7.376878E+03	1.017973E-03	6.511396E-05
7.386833E+03	1.012242E-03	6.430850E-05
7.396788E+03	1.006506E-03	6.347532E-05
7.406744E+03	1.000768E-03	6.261518E-05
7.416699E+03	9.950330E-04	6.172879E-05
7.426654E+03	9.892473E-04	6.081341E-05
7.436610E+03	9.835279E-04	5.987673E-05
7.446565E+03	9.777659E-04	5.891264E-05
7.456520E+03	9.720209E-04	5.792529E-05
7.466476E+03	9.662960E-04	5.691543E-05
7.476431E+03	9.605940E-04	5.588375E-05
7.486386E+03	9.549182E-04	5.483101E-05
7.496341E+03	9.492152E-04	5.375476E-05
7.506297E+03	9.435441E-04	5.265899E-05
7.516252E+03	9.379596E-04	5.154734E-05
7.526207E+03	9.323558E-04	5.041455E-05
7.536163E+03	9.267346E-04	4.926149E-05
7.546118E+03	9.212057E-04	4.809473E-05
7.556073E+03	9.157151E-04	4.691205E-05
7.566029E+03	9.102124E-04	4.571163E-05
7.575984E+03	9.047505E-04	4.449702E-05
7.585939E+03	8.993299E-04	4.326907E-05
7.595894E+03	8.939516E-04	4.202873E-05
7.605850E+03	8.885636E-04	4.077454E-05
7.615805E+03	8.832175E-04	3.951005E-05
7.625760E+03	8.779647E-04	3.823863E-05
7.635716E+03	8.726507E-04	3.695481E-05
7.645671E+03	8.674285E-04	3.566667E-05
7.655626E+03	8.622457E-04	3.437351E-05
7.665582E+03	8.570517E-04	3.307515E-05
7.675537E+03	8.518952E-04	3.177564E-05
7.685492E+03	8.467755E-04	3.047730E-05
7.695447E+03	8.416910E-04	2.918278E-05
7.705403E+03	8.365908E-04	2.789354E-05
7.715358E+03	8.315228E-04	2.661502E-05
7.725313E+03	8.264853E-04	2.535158E-05
