#wls	flux	fluxerr
1.592848E+03	4.562206E-05	1.895202E-05
1.632669E+03	4.697306E-05	1.937808E-05
1.672491E+03	4.836787E-05	1.981200E-05
1.712312E+03	4.981658E-05	2.025727E-05
1.752133E+03	5.130327E-05	2.070675E-05
1.791954E+03	5.285629E-05	2.117120E-05
1.831775E+03	5.445012E-05	2.163961E-05
1.871597E+03	5.610499E-05	2.211931E-05
1.911418E+03	5.782332E-05	2.261038E-05
1.951239E+03	5.959718E-05	2.310885E-05
1.991060E+03	6.142829E-05	2.361451E-05
2.030881E+03	6.332940E-05	2.413134E-05
2.070703E+03	6.529197E-05	2.465507E-05
2.110524E+03	6.732958E-05	2.518982E-05
2.150345E+03	6.943334E-05	2.573113E-05
2.190166E+03	7.160538E-05	2.627871E-05
2.229987E+03	7.386063E-05	2.683687E-05
2.269809E+03	7.620258E-05	2.740555E-05
2.309630E+03	7.862153E-05	2.797990E-05
2.349451E+03	8.112019E-05	2.855958E-05
2.389272E+03	8.371566E-05	2.914917E-05
2.429093E+03	8.641222E-05	2.974856E-05
2.468915E+03	8.919941E-05	3.035249E-05
2.508736E+03	9.209627E-05	3.096578E-05
2.548557E+03	9.509195E-05	3.158296E-05
2.588378E+03	9.820695E-05	3.220899E-05
2.628199E+03	1.014301E-04	3.283820E-05
2.668021E+03	1.047835E-04	3.347567E-05
2.707842E+03	1.082557E-04	3.411552E-05
2.747663E+03	1.118704E-04	3.476296E-05
2.787484E+03	1.156161E-04	3.541187E-05
2.827305E+03	1.195184E-04	3.606759E-05
2.867127E+03	1.235855E-04	3.672973E-05
2.906948E+03	1.278055E-04	3.739180E-05
2.946769E+03	1.322072E-04	3.805921E-05
2.986590E+03	1.367784E-04	3.872518E-05
2.996546E+03	1.379487E-04	3.889135E-05
3.006501E+03	1.391302E-04	3.905736E-05
3.016456E+03	1.403231E-04	3.922319E-05
3.026411E+03	1.415276E-04	3.938884E-05
3.036367E+03	1.427666E-04	3.956062E-05
3.046322E+03	1.439947E-04	3.972585E-05
3.056277E+03	1.452347E-04	3.989084E-05
3.066233E+03	1.465103E-04	4.006199E-05
3.076188E+03	1.477749E-04	4.022647E-05
3.086143E+03	1.490519E-04	4.039067E-05
3.096099E+03	1.503654E-04	4.056102E-05
3.106054E+03	1.516678E-04	4.072460E-05
3.116009E+03	1.530075E-04	4.089433E-05
3.125964E+03	1.543360E-04	4.105721E-05
3.135920E+03	1.557024E-04	4.122623E-05
3.145875E+03	1.570825E-04	4.139489E-05
3.155830E+03	1.584514E-04	4.155657E-05
3.165786E+03	1.598593E-04	4.172439E-05
3.175741E+03	1.612814E-04	4.189177E-05
3.185696E+03	1.626921E-04	4.205205E-05
3.195652E+03	1.641430E-04	4.221845E-05
3.205607E+03	1.656085E-04	4.238434E-05
3.215562E+03	1.670890E-04	4.254968E-05
3.225517E+03	1.685581E-04	4.270774E-05
3.235473E+03	1.700687E-04	4.287189E-05
3.245428E+03	1.715947E-04	4.303542E-05
3.255383E+03	1.731364E-04	4.319828E-05
3.265339E+03	1.746938E-04	4.336046E-05
3.275294E+03	1.762672E-04	4.352191E-05
3.285249E+03	1.778568E-04	4.368261E-05
3.295205E+03	1.794627E-04	4.384252E-05
3.305160E+03	1.810852E-04	4.400161E-05
3.315115E+03	1.827243E-04	4.415984E-05
3.325070E+03	1.843803E-04	4.431717E-05
3.335026E+03	1.860535E-04	4.447357E-05
3.344981E+03	1.877438E-04	4.462900E-05
3.354936E+03	1.894810E-04	4.479035E-05
3.364892E+03	1.912067E-04	4.494373E-05
3.374847E+03	1.929502E-04	4.509600E-05
3.384802E+03	1.947116E-04	4.524713E-05
3.394758E+03	1.965216E-04	4.540409E-05
3.404713E+03	1.983199E-04	4.555282E-05
3.414668E+03	2.001368E-04	4.570026E-05
3.424623E+03	2.019723E-04	4.584637E-05
3.434579E+03	2.038581E-04	4.599817E-05
3.444534E+03	2.057319E-04	4.614148E-05
3.454489E+03	2.076568E-04	4.629039E-05
3.464445E+03	2.095696E-04	4.643069E-05
3.474400E+03	2.115021E-04	4.656939E-05
3.484355E+03	2.134869E-04	4.671355E-05
3.494311E+03	2.154593E-04	4.684888E-05
3.504266E+03	2.174850E-04	4.698959E-05
3.514221E+03	2.194982E-04	4.712132E-05
3.524176E+03	2.215655E-04	4.725831E-05
3.534132E+03	2.236539E-04	4.739335E-05
3.544087E+03	2.257295E-04	4.751917E-05
3.554042E+03	2.278605E-04	4.765009E-05
3.563998E+03	2.299784E-04	4.777163E-05
3.573953E+03	2.321526E-04	4.789814E-05
3.583908E+03	2.343487E-04	4.802235E-05
3.593864E+03	2.365312E-04	4.813690E-05
3.603819E+03	2.387713E-04	4.825623E-05
3.613774E+03	2.409975E-04	4.836573E-05
3.623729E+03	2.432821E-04	4.847987E-05
3.633685E+03	2.455893E-04	4.859128E-05
3.643640E+03	2.479192E-04	4.869989E-05
3.653595E+03	2.502344E-04	4.879829E-05
3.663551E+03	2.526097E-04	4.890100E-05
3.673506E+03	2.550079E-04	4.900063E-05
3.683461E+03	2.574292E-04	4.909709E-05
3.693417E+03	2.598349E-04	4.918294E-05
3.703372E+03	2.623021E-04	4.927274E-05
3.713327E+03	2.647927E-04	4.935907E-05
3.723282E+03	2.673064E-04	4.944182E-05
3.733238E+03	2.698435E-04	4.952089E-05
3.743193E+03	2.723636E-04	4.958883E-05
3.753148E+03	2.749470E-04	4.966022E-05
3.763104E+03	2.775538E-04	4.972760E-05
3.773059E+03	2.801839E-04	4.979087E-05
3.783014E+03	2.828372E-04	4.984990E-05
3.792970E+03	2.854718E-04	4.989723E-05
3.802925E+03	2.881712E-04	4.994745E-05
3.812880E+03	2.908938E-04	4.999310E-05
3.822835E+03	2.936394E-04	5.003403E-05
3.832791E+03	2.964079E-04	5.007014E-05
3.842746E+03	2.991993E-04	5.010131E-05
3.852701E+03	3.020133E-04	5.012741E-05
3.862657E+03	3.048053E-04	5.014098E-05
3.872612E+03	3.076638E-04	5.015656E-05
3.882567E+03	3.105445E-04	5.016668E-05
3.892523E+03	3.134471E-04	5.017123E-05
3.902478E+03	3.163715E-04	5.017006E-05
3.912433E+03	3.193174E-04	5.016306E-05
3.922388E+03	3.222844E-04	5.015008E-05
3.932344E+03	3.252252E-04	5.012373E-05
3.942299E+03	3.282334E-04	5.009842E-05
3.952254E+03	3.312618E-04	5.006674E-05
3.962210E+03	3.343102E-04	5.002856E-05
3.972165E+03	3.373780E-04	4.998376E-05
3.982120E+03	3.404650E-04	4.993219E-05
3.992076E+03	3.435212E-04	4.986654E-05
4.002031E+03	3.466447E-04	4.980107E-05
4.011986E+03	3.497859E-04	4.972844E-05
4.021941E+03	3.529443E-04	4.964853E-05
4.031897E+03	3.561194E-04	4.956121E-05
4.041852E+03	3.592592E-04	4.945928E-05
4.051807E+03	3.624655E-04	4.935679E-05
4.061763E+03	3.656867E-04	4.924652E-05
4.071718E+03	3.689221E-04	4.912836E-05
4.081673E+03	3.721180E-04	4.899521E-05
4.091629E+03	3.753794E-04	4.886094E-05
4.101584E+03	3.786529E-04	4.871844E-05
4.111539E+03	3.818834E-04	4.856070E-05
4.121494E+03	3.851783E-04	4.840145E-05
4.131450E+03	3.884829E-04	4.823367E-05
4.141405E+03	3.917407E-04	4.805045E-05
4.151360E+03	3.950616E-04	4.786538E-05
4.161316E+03	3.983892E-04	4.767148E-05
4.171271E+03	4.016664E-04	4.746205E-05
4.181226E+03	4.050046E-04	4.725040E-05
4.191182E+03	4.082891E-04	4.702311E-05
4.201137E+03	4.116338E-04	4.679346E-05
4.211092E+03	4.149219E-04	4.654817E-05
4.221047E+03	4.182689E-04	4.630037E-05
4.231003E+03	4.215559E-04	4.603692E-05
4.240958E+03	4.248999E-04	4.577080E-05
4.250913E+03	4.281811E-04	4.548913E-05
4.260869E+03	4.315174E-04	4.520469E-05
4.270824E+03	4.347874E-04	4.490480E-05
4.280779E+03	4.380501E-04	4.459589E-05
4.290735E+03	4.413652E-04	4.428416E-05
4.300690E+03	4.446085E-04	4.395723E-05
4.310645E+03	4.478406E-04	4.362148E-05
4.320601E+03	4.510590E-04	4.327690E-05
4.330556E+03	4.543260E-04	4.292960E-05
4.340511E+03	4.575136E-04	4.256768E-05
4.350466E+03	4.606842E-04	4.219736E-05
4.360422E+03	4.638350E-04	4.181872E-05
4.370377E+03	4.669653E-04	4.143198E-05
4.380332E+03	4.700729E-04	4.103728E-05
4.390288E+03	4.731568E-04	4.063489E-05
4.400243E+03	4.762146E-04	4.022496E-05
4.410198E+03	4.792452E-04	3.980780E-05
4.420154E+03	4.822468E-04	3.938370E-05
4.430109E+03	4.852175E-04	3.895289E-05
4.440064E+03	4.881560E-04	3.851578E-05
4.450019E+03	4.910604E-04	3.807267E-05
4.459975E+03	4.939283E-04	3.762391E-05
4.469930E+03	4.967593E-04	3.717000E-05
4.479885E+03	4.994822E-04	3.670627E-05
4.489841E+03	5.022318E-04	3.624332E-05
4.499796E+03	5.049386E-04	3.577658E-05
4.509751E+03	5.076004E-04	3.530655E-05
4.519707E+03	5.101469E-04	3.482912E-05
4.529662E+03	5.127138E-04	3.435435E-05
4.539617E+03	5.151607E-04	3.387353E-05
4.549572E+03	5.176259E-04	3.339660E-05
4.559528E+03	5.199667E-04	3.291511E-05
4.569483E+03	5.223225E-04	3.243882E-05
4.579438E+03	5.245503E-04	3.195966E-05
4.589394E+03	5.267192E-04	3.148293E-05
4.599349E+03	5.288986E-04	3.101369E-05
4.609304E+03	5.309447E-04	3.054439E-05
4.619260E+03	5.329264E-04	3.008023E-05
4.629215E+03	5.348426E-04	2.962219E-05
4.639170E+03	5.367640E-04	2.917523E-05
4.649125E+03	5.385445E-04	2.873247E-05
4.659081E+03	5.402554E-04	2.829901E-05
4.669036E+03	5.418945E-04	2.787592E-05
4.678991E+03	5.434607E-04	2.746435E-05
4.688947E+03	5.449529E-04	2.706546E-05
4.698902E+03	5.463699E-04	2.668042E-05
4.708857E+03	5.477100E-04	2.631036E-05
4.718813E+03	5.488991E-04	2.595298E-05
4.728768E+03	5.500835E-04	2.561646E-05
4.738723E+03	5.511876E-04	2.529833E-05
4.748678E+03	5.522112E-04	2.499969E-05
4.758634E+03	5.530795E-04	2.471827E-05
4.768589E+03	5.539398E-04	2.446169E-05
4.778544E+03	5.546425E-04	2.422421E-05
4.788500E+03	5.553359E-04	2.401315E-05
4.798455E+03	5.558707E-04	2.382226E-05
4.808410E+03	5.563953E-04	2.365739E-05
4.818366E+03	5.567620E-04	2.351148E-05
4.828321E+03	5.570445E-04	2.338684E-05
4.838276E+03	5.573176E-04	2.328565E-05
4.848231E+03	5.574338E-04	2.320070E-05
4.858187E+03	5.574674E-04	2.313401E-05
4.868142E+03	5.574192E-04	2.308445E-05
4.878097E+03	5.572897E-04	2.305081E-05
4.888053E+03	5.570795E-04	2.303188E-05
4.898008E+03	5.567899E-04	2.302645E-05
4.907963E+03	5.564213E-04	2.303323E-05
4.917919E+03	5.559749E-04	2.305100E-05
4.927874E+03	5.554519E-04	2.307854E-05
4.937829E+03	5.548527E-04	2.311461E-05
4.947784E+03	5.541061E-04	2.315501E-05
4.957740E+03	5.533589E-04	2.320467E-05
4.967695E+03	5.525395E-04	2.325947E-05
4.977650E+03	5.515766E-04	2.331529E-05
4.987606E+03	5.506163E-04	2.337724E-05
4.997561E+03	5.495157E-04	2.343825E-05
5.007516E+03	5.484204E-04	2.350358E-05
5.017472E+03	5.471876E-04	2.356624E-05
5.027427E+03	5.459629E-04	2.363164E-05
5.037382E+03	5.446039E-04	2.369286E-05
5.047337E+03	5.431842E-04	2.375234E-05
5.057293E+03	5.417056E-04	2.380951E-05
5.067248E+03	5.402401E-04	2.386693E-05
5.077203E+03	5.386477E-04	2.391788E-05
5.087159E+03	5.370008E-04	2.396503E-05
5.097114E+03	5.353015E-04	2.400803E-05
5.107069E+03	5.335511E-04	2.404654E-05
5.117025E+03	5.317513E-04	2.408026E-05
5.126980E+03	5.298348E-04	2.410583E-05
5.136935E+03	5.279416E-04	2.412933E-05
5.146890E+03	5.260044E-04	2.414749E-05
5.156846E+03	5.240247E-04	2.416019E-05
5.166801E+03	5.219360E-04	2.416418E-05
5.176756E+03	5.198770E-04	2.416577E-05
5.186712E+03	5.177129E-04	2.415862E-05
5.196667E+03	5.155809E-04	2.414906E-05
5.206622E+03	5.133483E-04	2.413086E-05
5.216578E+03	5.111510E-04	2.411040E-05
5.226533E+03	5.088565E-04	2.408148E-05
5.236488E+03	5.066001E-04	2.405055E-05
5.246443E+03	5.042511E-04	2.401147E-05
5.256399E+03	5.018774E-04	2.396756E-05
5.266354E+03	4.994810E-04	2.391904E-05
5.276309E+03	4.970629E-04	2.386607E-05
5.286265E+03	4.946255E-04	2.380893E-05
5.296220E+03	4.921697E-04	2.374783E-05
5.306175E+03	4.896979E-04	2.368304E-05
5.316131E+03	4.872110E-04	2.361481E-05
5.326086E+03	4.847114E-04	2.354344E-05
5.336041E+03	4.821999E-04	2.346917E-05
5.345996E+03	4.796788E-04	2.339234E-05
5.355952E+03	4.770873E-04	2.331018E-05
5.365907E+03	4.745512E-04	2.322905E-05
5.375862E+03	4.720093E-04	2.314621E-05
5.385818E+03	4.694033E-04	2.305900E-05
5.395773E+03	4.668558E-04	2.297368E-05
5.405728E+03	4.642475E-04	2.288458E-05
5.415684E+03	4.617000E-04	2.279794E-05
5.425639E+03	4.590955E-04	2.270814E-05
5.435594E+03	4.565537E-04	2.262127E-05
5.445549E+03	4.539587E-04	2.253145E-05
5.455505E+03	4.513719E-04	2.244144E-05
5.465460E+03	4.487950E-04	2.235103E-05
5.475415E+03	4.462879E-04	2.226297E-05
5.485371E+03	4.437378E-04	2.217135E-05
5.495326E+03	4.412039E-04	2.207889E-05
5.505281E+03	4.386887E-04	2.198546E-05
5.515237E+03	4.361942E-04	2.189092E-05
5.525192E+03	4.337219E-04	2.179513E-05
5.535147E+03	4.312742E-04	2.169800E-05
5.545102E+03	4.287974E-04	2.159660E-05
5.555058E+03	4.264043E-04	2.149644E-05
5.565013E+03	4.240411E-04	2.139460E-05
5.574968E+03	4.217096E-04	2.129101E-05
5.584924E+03	4.193575E-04	2.118287E-05
5.594879E+03	4.170944E-04	2.107555E-05
5.604834E+03	4.148682E-04	2.096627E-05
5.614790E+03	4.126271E-04	2.085228E-05
5.624745E+03	4.104793E-04	2.073892E-05
5.634700E+03	4.083202E-04	2.062079E-05
5.644655E+03	4.062046E-04	2.050055E-05
5.654611E+03	4.041857E-04	2.038077E-05
5.664566E+03	4.021611E-04	2.025621E-05
5.674521E+03	4.001842E-04	2.012946E-05
5.684477E+03	3.983071E-04	2.000307E-05
5.694432E+03	3.964291E-04	1.987191E-05
5.704387E+03	3.946027E-04	1.973855E-05
5.714343E+03	3.928289E-04	1.960298E-05
5.724298E+03	3.911097E-04	1.946524E-05
5.734253E+03	3.894458E-04	1.932532E-05
5.744209E+03	3.878380E-04	1.918323E-05
5.754164E+03	3.862883E-04	1.903901E-05
5.764119E+03	3.847973E-04	1.889267E-05
5.774074E+03	3.833666E-04	1.874425E-05
5.784030E+03	3.819969E-04	1.859377E-05
5.793985E+03	3.806895E-04	1.844125E-05
5.803940E+03	3.794454E-04	1.828673E-05
5.813896E+03	3.782178E-04	1.812796E-05
5.823851E+03	3.771040E-04	1.796959E-05
5.833806E+03	3.760568E-04	1.780934E-05
5.843762E+03	3.750294E-04	1.764501E-05
5.853717E+03	3.741191E-04	1.748119E-05
5.863672E+03	3.732310E-04	1.731342E-05
5.873627E+03	3.724616E-04	1.714621E-05
5.883583E+03	3.717170E-04	1.697523E-05
5.893538E+03	3.710932E-04	1.680488E-05
5.903493E+03	3.704961E-04	1.663091E-05
5.913449E+03	3.700220E-04	1.645769E-05
5.923404E+03	3.695774E-04	1.628105E-05
5.933359E+03	3.692102E-04	1.610318E-05
5.943315E+03	3.689697E-04	1.592626E-05
5.953270E+03	3.687617E-04	1.574624E-05
5.963225E+03	3.686350E-04	1.556530E-05
5.973180E+03	3.685908E-04	1.538356E-05
5.983136E+03	3.686304E-04	1.520115E-05
5.993091E+03	3.687550E-04	1.501820E-05
6.003046E+03	3.690129E-04	1.483676E-05
6.013002E+03	3.693112E-04	1.465318E-05
6.022957E+03	3.696987E-04	1.446957E-05
6.032912E+03	3.701761E-04	1.428612E-05
6.042868E+03	3.707457E-04	1.410307E-05
6.052823E+03	3.713606E-04	1.391887E-05
6.062778E+03	3.721179E-04	1.373739E-05
6.072733E+03	3.729710E-04	1.355711E-05
6.082689E+03	3.739223E-04	1.337839E-05
6.092644E+03	3.749727E-04	1.320158E-05
6.102599E+03	3.761244E-04	1.302709E-05
6.112555E+03	3.773304E-04	1.285373E-05
6.122510E+03	3.786895E-04	1.268532E-05
6.132465E+03	3.801549E-04	1.252072E-05
6.142421E+03	3.816796E-04	1.235894E-05
6.152376E+03	3.833633E-04	1.220383E-05
6.162331E+03	3.851095E-04	1.205295E-05
6.172286E+03	3.870194E-04	1.191020E-05
6.182242E+03	3.890451E-04	1.177483E-05
6.192197E+03	3.911392E-04	1.164628E-05
6.202152E+03	3.934032E-04	1.152849E-05
6.212108E+03	3.957383E-04	1.141952E-05
6.222063E+03	3.981967E-04	1.132195E-05
6.232018E+03	4.008312E-04	1.123835E-05
6.241974E+03	4.035404E-04	1.116700E-05
6.251929E+03	4.063763E-04	1.111054E-05
6.261884E+03	4.093890E-04	1.107154E-05
6.271839E+03	4.124725E-04	1.104824E-05
6.281795E+03	4.156740E-04	1.104235E-05
6.291750E+03	4.190429E-04	1.105514E-05
6.301705E+03	4.224680E-04	1.108359E-05
6.311661E+03	4.259975E-04	1.112887E-05
6.321616E+03	4.296265E-04	1.119072E-05
6.331571E+03	4.333497E-04	1.126882E-05
6.341527E+03	4.371622E-04	1.136286E-05
6.351482E+03	4.410581E-04	1.147249E-05
6.361437E+03	4.450892E-04	1.159885E-05
6.371392E+03	4.491358E-04	1.173864E-05
6.381348E+03	4.532486E-04	1.189298E-05
6.391303E+03	4.574214E-04	1.206154E-05
6.401258E+03	4.616473E-04	1.224397E-05
6.411214E+03	4.658607E-04	1.243840E-05
6.421169E+03	4.701732E-04	1.264769E-05
6.431124E+03	4.745186E-04	1.287002E-05
6.441080E+03	4.788896E-04	1.310515E-05
6.451035E+03	4.832793E-04	1.335291E-05
6.460990E+03	4.876802E-04	1.361311E-05
6.470945E+03	4.920839E-04	1.388560E-05
6.480901E+03	4.964191E-04	1.416846E-05
6.490856E+03	5.008047E-04	1.446519E-05
6.500811E+03	5.051695E-04	1.477394E-05
6.510767E+03	5.095052E-04	1.509467E-05
6.520722E+03	5.137378E-04	1.542536E-05
6.530677E+03	5.179904E-04	1.576992E-05
6.540633E+03	5.221914E-04	1.612646E-05
6.550588E+03	5.262662E-04	1.649289E-05
6.560543E+03	5.303447E-04	1.687351E-05
6.570498E+03	5.343555E-04	1.726636E-05
6.580454E+03	5.382266E-04	1.766890E-05
6.590409E+03	5.420934E-04	1.808480E-05
6.600364E+03	5.458150E-04	1.850858E-05
6.610320E+03	5.495296E-04	1.894406E-05
6.620275E+03	5.530938E-04	1.938547E-05
6.630230E+03	5.566481E-04	1.983687E-05
6.640186E+03	5.600474E-04	2.029225E-05
6.650141E+03	5.634341E-04	2.075589E-05
6.660096E+03	5.666624E-04	2.122160E-05
6.670051E+03	5.698024E-04	2.169108E-05
6.680007E+03	5.729267E-04	2.216632E-05
6.689962E+03	5.758873E-04	2.264080E-05
6.699917E+03	5.787559E-04	2.311646E-05
6.709873E+03	5.816066E-04	2.359549E-05
6.719828E+03	5.842888E-04	2.407108E-05
6.729783E+03	5.868766E-04	2.454540E-05
6.739739E+03	5.894452E-04	2.502091E-05
6.749694E+03	5.918421E-04	2.549045E-05
6.759649E+03	5.941423E-04	2.595645E-05
6.769604E+03	5.963455E-04	2.641821E-05
6.779560E+03	5.984510E-04	2.687503E-05
6.789515E+03	6.004590E-04	2.732624E-05
6.799470E+03	6.024465E-04	2.777477E-05
6.809426E+03	6.042585E-04	2.821290E-05
6.819381E+03	6.059723E-04	2.864354E-05
6.829336E+03	6.075878E-04	2.906611E-05
6.839292E+03	6.091050E-04	2.948004E-05
6.849247E+03	6.105242E-04	2.988481E-05
6.859202E+03	6.118459E-04	3.027990E-05
6.869157E+03	6.130701E-04	3.066482E-05
6.879113E+03	6.141973E-04	3.103909E-05
6.889068E+03	6.152276E-04	3.140225E-05
6.899023E+03	6.161621E-04	3.175390E-05
6.908979E+03	6.170012E-04	3.209363E-05
6.918934E+03	6.177453E-04	3.242103E-05
6.928889E+03	6.183950E-04	3.273574E-05
6.938845E+03	6.189515E-04	3.303743E-05
6.948800E+03	6.193348E-04	3.332145E-05
6.958755E+03	6.197069E-04	3.359613E-05
6.968710E+03	6.199881E-04	3.385687E-05
6.978666E+03	6.201791E-04	3.410342E-05
6.988621E+03	6.202813E-04	3.433554E-05
6.998576E+03	6.202151E-04	3.454853E-05
7.008532E+03	6.201427E-04	3.475113E-05
7.018487E+03	6.199846E-04	3.493870E-05
7.028442E+03	6.197418E-04	3.511106E-05
7.038398E+03	6.193350E-04	3.526349E-05
7.048353E+03	6.189270E-04	3.540503E-05
7.058308E+03	6.184381E-04	3.553100E-05
7.068263E+03	6.177890E-04	3.563666E-05
7.078219E+03	6.171420E-04	3.573120E-05
7.088174E+03	6.164180E-04	3.580994E-05
7.098129E+03	6.155381E-04	3.586816E-05
7.108085E+03	6.146642E-04	3.591520E-05
7.118040E+03	6.136374E-04	3.594168E-05
7.127995E+03	6.126194E-04	3.595699E-05
7.137951E+03	6.114512E-04	3.595176E-05
7.147906E+03	6.102945E-04	3.593545E-05
7.157861E+03	6.089904E-04	3.589866E-05
7.167817E+03	6.077005E-04	3.585092E-05
7.177772E+03	6.062669E-04	3.578290E-05
7.187727E+03	6.047702E-04	3.569937E-05
7.197682E+03	6.032916E-04	3.560515E-05
7.207638E+03	6.016740E-04	3.549100E-05
7.217593E+03	5.999982E-04	3.536175E-05
7.227548E+03	5.983434E-04	3.522214E-05
7.237504E+03	5.965548E-04	3.506310E-05
7.247459E+03	5.947124E-04	3.488945E-05
7.257414E+03	5.928947E-04	3.470588E-05
7.267370E+03	5.909482E-04	3.450352E-05
7.277325E+03	5.889521E-04	3.428713E-05
7.287280E+03	5.869077E-04	3.405693E-05
7.297235E+03	5.848161E-04	3.381314E-05
7.307191E+03	5.827552E-04	3.356039E-05
7.317146E+03	5.805739E-04	3.329014E-05
7.327101E+03	5.783495E-04	3.300704E-05
7.337057E+03	5.760837E-04	3.271140E-05
7.347012E+03	5.737777E-04	3.240348E-05
7.356967E+03	5.714328E-04	3.208357E-05
7.366923E+03	5.690505E-04	3.175200E-05
7.376878E+03	5.666316E-04	3.140904E-05
7.386833E+03	5.641778E-04	3.105506E-05
7.396788E+03	5.616902E-04	3.069037E-05
7.406744E+03	5.591704E-04	3.031536E-05
7.416699E+03	5.566187E-04	2.993033E-05
7.426654E+03	5.540373E-04	2.953570E-05
7.436610E+03	5.514262E-04	2.913181E-05
7.446565E+03	5.487881E-04	2.871912E-05
7.456520E+03	5.461227E-04	2.829799E-05
7.466476E+03	5.433599E-04	2.786518E-05
7.476431E+03	5.406448E-04	2.742857E-05
7.486386E+03	5.379059E-04	2.698486E-05
7.496341E+03	5.351450E-04	2.653457E-05
7.506297E+03	5.322921E-04	2.607471E-05
7.516252E+03	5.294891E-04	2.561276E-05
7.526207E+03	5.266671E-04	2.514579E-05
7.536163E+03	5.238266E-04	2.467435E-05
7.546118E+03	5.208994E-04	2.419583E-05
7.556073E+03	5.180249E-04	2.371734E-05
7.566029E+03	5.150660E-04	2.323317E-05
7.575984E+03	5.121609E-04	2.275026E-05
7.585939E+03	5.092421E-04	2.226622E-05
7.595894E+03	5.062425E-04	2.177891E-05
7.605850E+03	5.032982E-04	2.129502E-05
7.615805E+03	5.002759E-04	2.080972E-05
7.625760E+03	4.973095E-04	2.032952E-05
7.635716E+03	4.942672E-04	1.984995E-05
7.645671E+03	4.912162E-04	1.937486E-05
7.655626E+03	4.882222E-04	1.890790E-05
7.665582E+03	4.851557E-04	1.844519E-05
7.675537E+03	4.821466E-04	1.799299E-05
7.685492E+03	4.790671E-04	1.754786E-05
7.695447E+03	4.759824E-04	1.711373E-05
7.705403E+03	4.728929E-04	1.669216E-05
7.715358E+03	4.698621E-04	1.628701E-05
7.725313E+03	4.667648E-04	1.589564E-05
