#wls	flux	fluxerr
1.592848E+03	3.357850E-05	1.272108E-05
1.632669E+03	3.456686E-05	1.300826E-05
1.672491E+03	3.559095E-05	1.330230E-05
1.712312E+03	3.665865E-05	1.360570E-05
1.752133E+03	3.775863E-05	1.391378E-05
1.791954E+03	3.890567E-05	1.423154E-05
1.831775E+03	4.009486E-05	1.455664E-05
1.871597E+03	4.132798E-05	1.488919E-05
1.911418E+03	4.260677E-05	1.522928E-05
1.951239E+03	4.393317E-05	1.557700E-05
1.991060E+03	4.531712E-05	1.593523E-05
2.030881E+03	4.674498E-05	1.629849E-05
2.070703E+03	4.823517E-05	1.667256E-05
2.110524E+03	4.978203E-05	1.705468E-05
2.150345E+03	5.138799E-05	1.744491E-05
2.190166E+03	5.306493E-05	1.784645E-05
2.229987E+03	5.479719E-05	1.825314E-05
2.269809E+03	5.660659E-05	1.867137E-05
2.309630E+03	5.848680E-05	1.909803E-05
2.349451E+03	6.044102E-05	1.953313E-05
2.389272E+03	6.247254E-05	1.997668E-05
2.429093E+03	6.459618E-05	2.043224E-05
2.468915E+03	6.680507E-05	2.089636E-05
2.508736E+03	6.910314E-05	2.136899E-05
2.548557E+03	7.149450E-05	2.185006E-05
2.588378E+03	7.398345E-05	2.233946E-05
2.628199E+03	7.658780E-05	2.284103E-05
2.668021E+03	7.928624E-05	2.334677E-05
2.707842E+03	8.211071E-05	2.386446E-05
2.747663E+03	8.505321E-05	2.438990E-05
2.787484E+03	8.811920E-05	2.492277E-05
2.827305E+03	9.133010E-05	2.546710E-05
2.867127E+03	9.466097E-05	2.601377E-05
2.906948E+03	9.814995E-05	2.657112E-05
2.946769E+03	1.017878E-04	2.713417E-05
2.986590E+03	1.055810E-04	2.770224E-05
2.996546E+03	1.065635E-04	2.784732E-05
3.006501E+03	1.075381E-04	2.798790E-05
3.016456E+03	1.085413E-04	2.813349E-05
3.026411E+03	1.095365E-04	2.827450E-05
3.036367E+03	1.105610E-04	2.842054E-05
3.046322E+03	1.115963E-04	2.856679E-05
3.056277E+03	1.126233E-04	2.870835E-05
3.066233E+03	1.136805E-04	2.885495E-05
3.076188E+03	1.147293E-04	2.899678E-05
3.086143E+03	1.158088E-04	2.914368E-05
3.096099E+03	1.168997E-04	2.929069E-05
3.106054E+03	1.179821E-04	2.943280E-05
3.116009E+03	1.190959E-04	2.957998E-05
3.125964E+03	1.202216E-04	2.972723E-05
3.135920E+03	1.213385E-04	2.986944E-05
3.145875E+03	1.224878E-04	3.001674E-05
3.155830E+03	1.236491E-04	3.016402E-05
3.165786E+03	1.248016E-04	3.030615E-05
3.175741E+03	1.259873E-04	3.045334E-05
3.185696E+03	1.271855E-04	3.060046E-05
3.195652E+03	1.283962E-04	3.074749E-05
3.205607E+03	1.295976E-04	3.088916E-05
3.215562E+03	1.308336E-04	3.103589E-05
3.225517E+03	1.320824E-04	3.118243E-05
3.235473E+03	1.333443E-04	3.132877E-05
3.245428E+03	1.345965E-04	3.146956E-05
3.255383E+03	1.358844E-04	3.161537E-05
3.265339E+03	1.371857E-04	3.176088E-05
3.275294E+03	1.385004E-04	3.190606E-05
3.285249E+03	1.398051E-04	3.204546E-05
3.295205E+03	1.411468E-04	3.218986E-05
3.305160E+03	1.425022E-04	3.233382E-05
3.315115E+03	1.438715E-04	3.247730E-05
3.325070E+03	1.452547E-04	3.262029E-05
3.335026E+03	1.466520E-04	3.276272E-05
3.344981E+03	1.480385E-04	3.289904E-05
3.354936E+03	1.494640E-04	3.304025E-05
3.364892E+03	1.509038E-04	3.318079E-05
3.374847E+03	1.523580E-04	3.332061E-05
3.384802E+03	1.538267E-04	3.345970E-05
3.394758E+03	1.553100E-04	3.359798E-05
3.404713E+03	1.568080E-04	3.373543E-05
3.414668E+03	1.582943E-04	3.386632E-05
3.424623E+03	1.598217E-04	3.400192E-05
3.434579E+03	1.613640E-04	3.413654E-05
3.444534E+03	1.629213E-04	3.427013E-05
3.454489E+03	1.644937E-04	3.440263E-05
3.464445E+03	1.660811E-04	3.453399E-05
3.474400E+03	1.676838E-04	3.466417E-05
3.484355E+03	1.693017E-04	3.479310E-05
3.494311E+03	1.709349E-04	3.492072E-05
3.504266E+03	1.725834E-04	3.504699E-05
3.514221E+03	1.742183E-04	3.516598E-05
3.524176E+03	1.758974E-04	3.528935E-05
3.534132E+03	1.775919E-04	3.541117E-05
3.544087E+03	1.793019E-04	3.553139E-05
3.554042E+03	1.810274E-04	3.564996E-05
3.563998E+03	1.827684E-04	3.576679E-05
3.573953E+03	1.845250E-04	3.588184E-05
3.583908E+03	1.862970E-04	3.599502E-05
3.593864E+03	1.880847E-04	3.610628E-05
3.603819E+03	1.898878E-04	3.621554E-05
3.613774E+03	1.917064E-04	3.632274E-05
3.623729E+03	1.935405E-04	3.642779E-05
3.633685E+03	1.953900E-04	3.653064E-05
3.643640E+03	1.972550E-04	3.663120E-05
3.653595E+03	1.991353E-04	3.672940E-05
3.663551E+03	2.010309E-04	3.682516E-05
3.673506E+03	2.029418E-04	3.691841E-05
3.683461E+03	2.048678E-04	3.700906E-05
3.693417E+03	2.068089E-04	3.709704E-05
3.703372E+03	2.087650E-04	3.718227E-05
3.713327E+03	2.107360E-04	3.726467E-05
3.723282E+03	2.127217E-04	3.734414E-05
3.733238E+03	2.147221E-04	3.742062E-05
3.743193E+03	2.167370E-04	3.749401E-05
3.753148E+03	2.187302E-04	3.755804E-05
3.763104E+03	2.207734E-04	3.762499E-05
3.773059E+03	2.228306E-04	3.768860E-05
3.783014E+03	2.249017E-04	3.774878E-05
3.792970E+03	2.269865E-04	3.780545E-05
3.802925E+03	2.290847E-04	3.785851E-05
3.812880E+03	2.311962E-04	3.790787E-05
3.822835E+03	2.333207E-04	3.795344E-05
3.832791E+03	2.354579E-04	3.799515E-05
3.842746E+03	2.376077E-04	3.803288E-05
3.852701E+03	2.397697E-04	3.806656E-05
3.862657E+03	2.419436E-04	3.809610E-05
3.872612E+03	2.441292E-04	3.812139E-05
3.882567E+03	2.463262E-04	3.814237E-05
3.892523E+03	2.485341E-04	3.815892E-05
3.902478E+03	2.507527E-04	3.817097E-05
3.912433E+03	2.529816E-04	3.817842E-05
3.922388E+03	2.552203E-04	3.818119E-05
3.932344E+03	2.574686E-04	3.817918E-05
3.942299E+03	2.597260E-04	3.817232E-05
3.952254E+03	2.619920E-04	3.816050E-05
3.962210E+03	2.642662E-04	3.814366E-05
3.972165E+03	2.665482E-04	3.812169E-05
3.982120E+03	2.687936E-04	3.808832E-05
3.992076E+03	2.710892E-04	3.805588E-05
4.002031E+03	2.733911E-04	3.801809E-05
4.011986E+03	2.756987E-04	3.797486E-05
4.021941E+03	2.780114E-04	3.792611E-05
4.031897E+03	2.803287E-04	3.787177E-05
4.041852E+03	2.826499E-04	3.781178E-05
4.051807E+03	2.849746E-04	3.774606E-05
4.061763E+03	2.873019E-04	3.767454E-05
4.071718E+03	2.896314E-04	3.759718E-05
4.081673E+03	2.919149E-04	3.750781E-05
4.091629E+03	2.942462E-04	3.741857E-05
4.101584E+03	2.965774E-04	3.732330E-05
4.111539E+03	2.989080E-04	3.722196E-05
4.121494E+03	3.012371E-04	3.711451E-05
4.131450E+03	3.035640E-04	3.700090E-05
4.141405E+03	3.058879E-04	3.688109E-05
4.151360E+03	3.081582E-04	3.674912E-05
4.161316E+03	3.104734E-04	3.661687E-05
4.171271E+03	3.127832E-04	3.647835E-05
4.181226E+03	3.150866E-04	3.633355E-05
4.191182E+03	3.173830E-04	3.618246E-05
4.201137E+03	3.196196E-04	3.601926E-05
4.211092E+03	3.218986E-04	3.585561E-05
4.221047E+03	3.241677E-04	3.568569E-05
4.231003E+03	3.264261E-04	3.550950E-05
4.240958E+03	3.286726E-04	3.532709E-05
4.250913E+03	3.308532E-04	3.513282E-05
4.260869E+03	3.330731E-04	3.493809E-05
4.270824E+03	3.352783E-04	3.473724E-05
4.280779E+03	3.374136E-04	3.452481E-05
4.290735E+03	3.395861E-04	3.431198E-05
4.300690E+03	3.417409E-04	3.409325E-05
4.310645E+03	3.438769E-04	3.386871E-05
4.320601E+03	3.459377E-04	3.363307E-05
4.330556E+03	3.480328E-04	3.339725E-05
4.340511E+03	3.501060E-04	3.315594E-05
4.350466E+03	3.520998E-04	3.290402E-05
4.360422E+03	3.541258E-04	3.265219E-05
4.370377E+03	3.561266E-04	3.239531E-05
4.380332E+03	3.580440E-04	3.212839E-05
4.390288E+03	3.599911E-04	3.186195E-05
4.400243E+03	3.618521E-04	3.158593E-05
4.410198E+03	3.637412E-04	3.131070E-05
4.420154E+03	3.655999E-04	3.103138E-05
4.430109E+03	3.673685E-04	3.074328E-05
4.440064E+03	3.691628E-04	3.045653E-05
4.450019E+03	3.708643E-04	3.016161E-05
4.459975E+03	3.725901E-04	2.986847E-05
4.469930E+03	3.742206E-04	2.956784E-05
4.479885E+03	3.758737E-04	2.926950E-05
4.489841E+03	3.774291E-04	2.896439E-05
4.499796E+03	3.790056E-04	2.866213E-05
4.509751E+03	3.804820E-04	2.835390E-05
4.519707E+03	3.819781E-04	2.804913E-05
4.529662E+03	3.833718E-04	2.773926E-05
4.539617E+03	3.847838E-04	2.743354E-05
4.549572E+03	3.860913E-04	2.712362E-05
4.559528E+03	3.873542E-04	2.681436E-05
4.569483E+03	3.886337E-04	2.651039E-05
4.579438E+03	3.898056E-04	2.620373E-05
4.589394E+03	3.909928E-04	2.590320E-05
4.599349E+03	3.920708E-04	2.560104E-05
4.609304E+03	3.931007E-04	2.530190E-05
4.619260E+03	3.941444E-04	2.501026E-05
4.629215E+03	3.950766E-04	2.471865E-05
4.639170E+03	3.959591E-04	2.443164E-05
4.649125E+03	3.967914E-04	2.414975E-05
4.659081E+03	3.976360E-04	2.387731E-05
4.669036E+03	3.983668E-04	2.360726E-05
4.678991E+03	3.990464E-04	2.334397E-05
4.688947E+03	3.996744E-04	2.308800E-05
4.698902E+03	4.003140E-04	2.284348E-05
4.708857E+03	4.008386E-04	2.260370E-05
4.718813E+03	4.013113E-04	2.237284E-05
4.728768E+03	4.017320E-04	2.215140E-05
4.738723E+03	4.021008E-04	2.193988E-05
4.748678E+03	4.024812E-04	2.174217E-05
4.758634E+03	4.027462E-04	2.155182E-05
4.768589E+03	4.029589E-04	2.137268E-05
4.778544E+03	4.031191E-04	2.120511E-05
4.788500E+03	4.032264E-04	2.104915E-05
4.798455E+03	4.032808E-04	2.090453E-05
4.808410E+03	4.032823E-04	2.077091E-05
4.818366E+03	4.032310E-04	2.064793E-05
4.828321E+03	4.031270E-04	2.053519E-05
4.838276E+03	4.029705E-04	2.043227E-05
4.848231E+03	4.027618E-04	2.033871E-05
4.858187E+03	4.025012E-04	2.025405E-05
4.868142E+03	4.021891E-04	2.017780E-05
4.878097E+03	4.018259E-04	2.010946E-05
4.888053E+03	4.014121E-04	2.004852E-05
4.898008E+03	4.009483E-04	1.999446E-05
4.907963E+03	4.004350E-04	1.994675E-05
4.917919E+03	3.998729E-04	1.990488E-05
4.927874E+03	3.992001E-04	1.986519E-05
4.937829E+03	3.985427E-04	1.983342E-05
4.947784E+03	3.978387E-04	1.980594E-05
4.957740E+03	3.970888E-04	1.978223E-05
4.967695E+03	3.962941E-04	1.976183E-05
4.977650E+03	3.953935E-04	1.974116E-05
4.987606E+03	3.945118E-04	1.972596E-05
4.997561E+03	3.935880E-04	1.971270E-05
5.007516E+03	3.926230E-04	1.970095E-05
5.017472E+03	3.915567E-04	1.968724E-05
5.027427E+03	3.905127E-04	1.967735E-05
5.037382E+03	3.894307E-04	1.966785E-05
5.047337E+03	3.882512E-04	1.965532E-05
5.057293E+03	3.870967E-04	1.964560E-05
5.067248E+03	3.859076E-04	1.963533E-05
5.077203E+03	3.846249E-04	1.962117E-05
5.087159E+03	3.833702E-04	1.960902E-05
5.097114E+03	3.820247E-04	1.959250E-05
5.107069E+03	3.807092E-04	1.957756E-05
5.117025E+03	3.793649E-04	1.956095E-05
5.126980E+03	3.779341E-04	1.953944E-05
5.136935E+03	3.765363E-04	1.951901E-05
5.146890E+03	3.750549E-04	1.949343E-05
5.156846E+03	3.736083E-04	1.946870E-05
5.166801E+03	3.720812E-04	1.943865E-05
5.176756E+03	3.705332E-04	1.940625E-05
5.186712E+03	3.690232E-04	1.937447E-05
5.196667E+03	3.674370E-04	1.933724E-05
5.206622E+03	3.658906E-04	1.930056E-05
5.216578E+03	3.642711E-04	1.925842E-05
5.226533E+03	3.626370E-04	1.921383E-05
5.236488E+03	3.610456E-04	1.916979E-05
5.246443E+03	3.593856E-04	1.912037E-05
5.256399E+03	3.577145E-04	1.906861E-05
5.266354E+03	3.560890E-04	1.901751E-05
5.276309E+03	3.543993E-04	1.896122E-05
5.286265E+03	3.527022E-04	1.890277E-05
5.296220E+03	3.509989E-04	1.884226E-05
5.306175E+03	3.493448E-04	1.878270E-05
5.316131E+03	3.476322E-04	1.871832E-05
5.326086E+03	3.459169E-04	1.865217E-05
5.336041E+03	3.441999E-04	1.858435E-05
5.345996E+03	3.424825E-04	1.851499E-05
5.355952E+03	3.407657E-04	1.844419E-05
5.365907E+03	3.391031E-04	1.837494E-05
5.375862E+03	3.373905E-04	1.830165E-05
5.385818E+03	3.356817E-04	1.822732E-05
5.395773E+03	3.339779E-04	1.815206E-05
5.405728E+03	3.322801E-04	1.807603E-05
5.415684E+03	3.305894E-04	1.799934E-05
5.425639E+03	3.289067E-04	1.792214E-05
5.435594E+03	3.272332E-04	1.784457E-05
5.445549E+03	3.255699E-04	1.776664E-05
5.455505E+03	3.239180E-04	1.768830E-05
5.465460E+03	3.222787E-04	1.760949E-05
5.475415E+03	3.206531E-04	1.753014E-05
5.485371E+03	3.190423E-04	1.745018E-05
5.495326E+03	3.174472E-04	1.736955E-05
5.505281E+03	3.158687E-04	1.728819E-05
5.515237E+03	3.142590E-04	1.720338E-05
5.525192E+03	3.127165E-04	1.712041E-05
5.535147E+03	3.111934E-04	1.703654E-05
5.545102E+03	3.096903E-04	1.695175E-05
5.555058E+03	3.082083E-04	1.686597E-05
5.565013E+03	3.067480E-04	1.677919E-05
5.574968E+03	3.052631E-04	1.668878E-05
5.584924E+03	3.038492E-04	1.659989E-05
5.594879E+03	3.024596E-04	1.650992E-05
5.604834E+03	3.010951E-04	1.641882E-05
5.614790E+03	2.997101E-04	1.632407E-05
5.624745E+03	2.983984E-04	1.623072E-05
5.634700E+03	2.971141E-04	1.613622E-05
5.644655E+03	2.958124E-04	1.603807E-05
5.654611E+03	2.945856E-04	1.594127E-05
5.664566E+03	2.933885E-04	1.584330E-05
5.674521E+03	2.921767E-04	1.574173E-05
5.684477E+03	2.910415E-04	1.564147E-05
5.694432E+03	2.898934E-04	1.553766E-05
5.704387E+03	2.888230E-04	1.543513E-05
5.714343E+03	2.877859E-04	1.533149E-05
5.724298E+03	2.867386E-04	1.522439E-05
5.734253E+03	2.857706E-04	1.511858E-05
5.744209E+03	2.847941E-04	1.500939E-05
5.754164E+03	2.838978E-04	1.490150E-05
5.764119E+03	2.829947E-04	1.479030E-05
5.774074E+03	2.821730E-04	1.468043E-05
5.784030E+03	2.813461E-04	1.456735E-05
5.793985E+03	2.806017E-04	1.445561E-05
5.803940E+03	2.798538E-04	1.434077E-05
5.813896E+03	2.791463E-04	1.422511E-05
5.823851E+03	2.785231E-04	1.411086E-05
5.833806E+03	2.778987E-04	1.399367E-05
5.843762E+03	2.773597E-04	1.387794E-05
5.853717E+03	2.768210E-04	1.375940E-05
5.863672E+03	2.763263E-04	1.364026E-05
5.873627E+03	2.759188E-04	1.352267E-05
5.883583E+03	2.755141E-04	1.340249E-05
5.893538E+03	2.751554E-04	1.328188E-05
5.903493E+03	2.748435E-04	1.316092E-05
5.913449E+03	2.746216E-04	1.304166E-05
5.923404E+03	2.744055E-04	1.292016E-05
5.933359E+03	2.742384E-04	1.279850E-05
5.943315E+03	2.741635E-04	1.267874E-05
5.953270E+03	2.740967E-04	1.255703E-05
5.963225E+03	2.740813E-04	1.243544E-05
5.973180E+03	2.741181E-04	1.231406E-05
5.983136E+03	2.742077E-04	1.219302E-05
5.993091E+03	2.743512E-04	1.207242E-05
6.003046E+03	2.745916E-04	1.195424E-05
6.013002E+03	2.748451E-04	1.183490E-05
6.022957E+03	2.751549E-04	1.171643E-05
6.032912E+03	2.755219E-04	1.159897E-05
6.042868E+03	2.759471E-04	1.148271E-05
6.052823E+03	2.764312E-04	1.136782E-05
6.062778E+03	2.769752E-04	1.125451E-05
6.072733E+03	2.775802E-04	1.114300E-05
6.082689E+03	2.782469E-04	1.103353E-05
6.092644E+03	2.789765E-04	1.092634E-05
6.102599E+03	2.797698E-04	1.082173E-05
6.112555E+03	2.806280E-04	1.071997E-05
6.122510E+03	2.815521E-04	1.062140E-05
6.132465E+03	2.825431E-04	1.052636E-05
6.142421E+03	2.836021E-04	1.043521E-05
6.152376E+03	2.847301E-04	1.034836E-05
6.162331E+03	2.859285E-04	1.026623E-05
6.172286E+03	2.871983E-04	1.018927E-05
6.182242E+03	2.885407E-04	1.011795E-05
6.192197E+03	2.899569E-04	1.005279E-05
6.202152E+03	2.914480E-04	9.994302E-06
6.212108E+03	2.930151E-04	9.943048E-06
6.222063E+03	2.946588E-04	9.899589E-06
6.232018E+03	2.963796E-04	9.864504E-06
6.241974E+03	2.981781E-04	9.838388E-06
6.251929E+03	3.000077E-04	9.820311E-06
6.261884E+03	3.019597E-04	9.813880E-06
6.271839E+03	3.039859E-04	9.817999E-06
6.281795E+03	3.060840E-04	9.832691E-06
6.291750E+03	3.082510E-04	9.857891E-06
6.301705E+03	3.104364E-04	9.891997E-06
6.311661E+03	3.127328E-04	9.937964E-06
6.321616E+03	3.150895E-04	9.994166E-06
6.331571E+03	3.175037E-04	1.006049E-05
6.341527E+03	3.199228E-04	1.013524E-05
6.351482E+03	3.224420E-04	1.022141E-05
6.361437E+03	3.250089E-04	1.031729E-05
6.371392E+03	3.276201E-04	1.042275E-05
6.381348E+03	3.302213E-04	1.053599E-05
6.391303E+03	3.329102E-04	1.066010E-05
6.401258E+03	3.356327E-04	1.079332E-05
6.411214E+03	3.383326E-04	1.093378E-05
6.421169E+03	3.411103E-04	1.108470E-05
6.431124E+03	3.439099E-04	1.124424E-05
6.441080E+03	3.466739E-04	1.141049E-05
6.451035E+03	3.495048E-04	1.158679E-05
6.460990E+03	3.523454E-04	1.177127E-05
6.470945E+03	3.551366E-04	1.196193E-05
6.480901E+03	3.579836E-04	1.216229E-05
6.490856E+03	3.607718E-04	1.236850E-05
6.500811E+03	3.636079E-04	1.258419E-05
6.510767E+03	3.664321E-04	1.280736E-05
6.520722E+03	3.691824E-04	1.303584E-05
6.530677E+03	3.719680E-04	1.327348E-05
6.540633E+03	3.746696E-04	1.351608E-05
6.550588E+03	3.773989E-04	1.376767E-05
6.560543E+03	3.800361E-04	1.402392E-05
6.570498E+03	3.826958E-04	1.428904E-05
6.580454E+03	3.852579E-04	1.455831E-05
6.590409E+03	3.878398E-04	1.483568E-05
6.600364E+03	3.903202E-04	1.511610E-05
6.610320E+03	3.928178E-04	1.540365E-05
6.620275E+03	3.952102E-04	1.569310E-05
6.630230E+03	3.976177E-04	1.598873E-05
6.640186E+03	3.999165E-04	1.628509E-05
6.650141E+03	4.021664E-04	1.658411E-05
6.660096E+03	4.044287E-04	1.688786E-05
6.670051E+03	4.065777E-04	1.719065E-05
6.680007E+03	4.087376E-04	1.749725E-05
6.689962E+03	4.107809E-04	1.780177E-05
6.699917E+03	4.127701E-04	1.810640E-05
6.709873E+03	4.147685E-04	1.841350E-05
6.719828E+03	4.166467E-04	1.871693E-05
6.729783E+03	4.184679E-04	1.901902E-05
6.739739E+03	4.202967E-04	1.932232E-05
6.749694E+03	4.220023E-04	1.962045E-05
6.759649E+03	4.236489E-04	1.991591E-05
6.769604E+03	4.253019E-04	2.021141E-05
6.779560E+03	4.268294E-04	2.050033E-05
6.789515E+03	4.282959E-04	2.078533E-05
6.799470E+03	4.297686E-04	2.106934E-05
6.809426E+03	4.311133E-04	2.134544E-05
6.819381E+03	4.323961E-04	2.161650E-05
6.829336E+03	4.336846E-04	2.188559E-05
6.839292E+03	4.348439E-04	2.214561E-05
6.849247E+03	4.359409E-04	2.239959E-05
6.859202E+03	4.369753E-04	2.264719E-05
6.869157E+03	4.379474E-04	2.288814E-05
6.879113E+03	4.389248E-04	2.312572E-05
6.889068E+03	4.397718E-04	2.335252E-05
6.899023E+03	4.405564E-04	2.357183E-05
6.908979E+03	4.412782E-04	2.378337E-05
6.918934E+03	4.419377E-04	2.398693E-05
6.928889E+03	4.426041E-04	2.418605E-05
6.938845E+03	4.431395E-04	2.437300E-05
6.948800E+03	4.436136E-04	2.455133E-05
6.958755E+03	4.440259E-04	2.472082E-05
6.968710E+03	4.443772E-04	2.488132E-05
6.978666E+03	4.446678E-04	2.503267E-05
6.988621E+03	4.448976E-04	2.517467E-05
6.998576E+03	4.451368E-04	2.531115E-05
7.008532E+03	4.452470E-04	2.543413E-05
7.018487E+03	4.452985E-04	2.554741E-05
7.028442E+03	4.452907E-04	2.565085E-05
7.038398E+03	4.452254E-04	2.574441E-05
7.048353E+03	4.451021E-04	2.582795E-05
7.058308E+03	4.449217E-04	2.590143E-05
7.068263E+03	4.446850E-04	2.596479E-05
7.078219E+03	4.443921E-04	2.601796E-05
7.088174E+03	4.440443E-04	2.606093E-05
7.098129E+03	4.436414E-04	2.609363E-05
7.108085E+03	4.431849E-04	2.611609E-05
7.118040E+03	4.426751E-04	2.612829E-05
7.127995E+03	4.421127E-04	2.613022E-05
7.137951E+03	4.414985E-04	2.612191E-05
7.147906E+03	4.408332E-04	2.610339E-05
7.157861E+03	4.401176E-04	2.607467E-05
7.167817E+03	4.393519E-04	2.603580E-05
7.177772E+03	4.385374E-04	2.598684E-05
7.187727E+03	4.376753E-04	2.592789E-05
7.197682E+03	4.367655E-04	2.585897E-05
7.207638E+03	4.358092E-04	2.578019E-05
7.217593E+03	4.348071E-04	2.569163E-05
7.227548E+03	4.337602E-04	2.559341E-05
7.237504E+03	4.326015E-04	2.548163E-05
7.247459E+03	4.314675E-04	2.536444E-05
7.257414E+03	4.302906E-04	2.523791E-05
7.267370E+03	4.290724E-04	2.510223E-05
7.277325E+03	4.278133E-04	2.495751E-05
7.287280E+03	4.265144E-04	2.480394E-05
7.297235E+03	4.251763E-04	2.464165E-05
7.307191E+03	4.237999E-04	2.447083E-05
7.317146E+03	4.223201E-04	2.428787E-05
7.327101E+03	4.208698E-04	2.410057E-05
7.337057E+03	4.193838E-04	2.390530E-05
7.347012E+03	4.178629E-04	2.370228E-05
7.356967E+03	4.163080E-04	2.349172E-05
7.366923E+03	4.146550E-04	2.327021E-05
7.376878E+03	4.130346E-04	2.304529E-05
7.386833E+03	4.113827E-04	2.281354E-05
7.396788E+03	4.097001E-04	2.257521E-05
7.406744E+03	4.079239E-04	2.232706E-05
7.416699E+03	4.061825E-04	2.207639E-05
7.426654E+03	4.044130E-04	2.181995E-05
7.436610E+03	4.026161E-04	2.155804E-05
7.446565E+03	4.007298E-04	2.128763E-05
7.456520E+03	3.988807E-04	2.101573E-05
7.466476E+03	3.970066E-04	2.073929E-05
7.476431E+03	3.950465E-04	2.045546E-05
7.486386E+03	3.931252E-04	2.017103E-05
7.496341E+03	3.911812E-04	1.988312E-05
7.506297E+03	3.891544E-04	1.958903E-05
7.516252E+03	3.871679E-04	1.929535E-05
7.526207E+03	3.851611E-04	1.899936E-05
7.536163E+03	3.830748E-04	1.869855E-05
7.546118E+03	3.810301E-04	1.839928E-05
7.556073E+03	3.789674E-04	1.809902E-05
7.566029E+03	3.768283E-04	1.779547E-05
7.575984E+03	3.747321E-04	1.749474E-05
7.585939E+03	3.725618E-04	1.719183E-05
7.595894E+03	3.704351E-04	1.689271E-05
7.605850E+03	3.682364E-04	1.659259E-05
7.615805E+03	3.660822E-04	1.629733E-05
7.625760E+03	3.639152E-04	1.600487E-05
7.635716E+03	3.616791E-04	1.571340E-05
7.645671E+03	3.594888E-04	1.542855E-05
7.655626E+03	3.572314E-04	1.514613E-05
7.665582E+03	3.550205E-04	1.487166E-05
7.675537E+03	3.527447E-04	1.460115E-05
7.685492E+03	3.505160E-04	1.434001E-05
7.695447E+03	3.482244E-04	1.408449E-05
7.705403E+03	3.459805E-04	1.383986E-05
7.715358E+03	3.436758E-04	1.360255E-05
7.725313E+03	3.414195E-04	1.337775E-05
