#wls	flux	fluxerr
1.592848E+03	2.887794E-05	8.857455E-06
1.632669E+03	2.966589E-05	9.044683E-06
1.672491E+03	3.048253E-05	9.236706E-06
1.712312E+03	3.133468E-05	9.435323E-06
1.752133E+03	3.221251E-05	9.637289E-06
1.791954E+03	3.312879E-05	9.846148E-06
1.831775E+03	3.407316E-05	1.005851E-05
1.871597E+03	3.505918E-05	1.027805E-05
1.911418E+03	3.608242E-05	1.050313E-05
1.951239E+03	3.713791E-05	1.073194E-05
1.991060E+03	3.824038E-05	1.096837E-05
2.030881E+03	3.938522E-05	1.121067E-05
2.070703E+03	4.057429E-05	1.145894E-05
2.110524E+03	4.181699E-05	1.171539E-05
2.150345E+03	4.310072E-05	1.197597E-05
2.190166E+03	4.443489E-05	1.224284E-05
2.229987E+03	4.582174E-05	1.251608E-05
2.269809E+03	4.727208E-05	1.279807E-05
2.309630E+03	4.877183E-05	1.308437E-05
2.349451E+03	5.034067E-05	1.337966E-05
2.389272E+03	5.197299E-05	1.368174E-05
2.429093E+03	5.367166E-05	1.399065E-05
2.468915E+03	5.542984E-05	1.430390E-05
2.508736E+03	5.727002E-05	1.462653E-05
2.548557E+03	5.918593E-05	1.495604E-05
2.588378E+03	6.119184E-05	1.529515E-05
2.628199E+03	6.326995E-05	1.563843E-05
2.668021E+03	6.543445E-05	1.598848E-05
2.707842E+03	6.768913E-05	1.634519E-05
2.747663E+03	7.005023E-05	1.671135E-05
2.787484E+03	7.249759E-05	1.708097E-05
2.827305E+03	7.506051E-05	1.745977E-05
2.867127E+03	7.771728E-05	1.784139E-05
2.906948E+03	8.049920E-05	1.823171E-05
2.946769E+03	8.339756E-05	1.862726E-05
2.986590E+03	8.641691E-05	1.902758E-05
2.996546E+03	8.718737E-05	1.912750E-05
3.006501E+03	8.796565E-05	1.922766E-05
3.016456E+03	8.875189E-05	1.932806E-05
3.026411E+03	8.956184E-05	1.943211E-05
3.036367E+03	9.036425E-05	1.953296E-05
3.046322E+03	9.117483E-05	1.963403E-05
3.056277E+03	9.199361E-05	1.973530E-05
3.066233E+03	9.283696E-05	1.984022E-05
3.076188E+03	9.367252E-05	1.994186E-05
3.086143E+03	9.451648E-05	2.004365E-05
3.096099E+03	9.536896E-05	2.014559E-05
3.106054E+03	9.624684E-05	2.025120E-05
3.116009E+03	9.711665E-05	2.035341E-05
3.125964E+03	9.799516E-05	2.045572E-05
3.135920E+03	9.888245E-05	2.055813E-05
3.145875E+03	9.979602E-05	2.066423E-05
3.155830E+03	1.007012E-04	2.076679E-05
3.165786E+03	1.016154E-04	2.086940E-05
3.175741E+03	1.025565E-04	2.097570E-05
3.185696E+03	1.034889E-04	2.107837E-05
3.195652E+03	1.044305E-04	2.118102E-05
3.205607E+03	1.053814E-04	2.128367E-05
3.215562E+03	1.063601E-04	2.139000E-05
3.225517E+03	1.073298E-04	2.149257E-05
3.235473E+03	1.083088E-04	2.159505E-05
3.245428E+03	1.093165E-04	2.170122E-05
3.255383E+03	1.103147E-04	2.180350E-05
3.265339E+03	1.113226E-04	2.190565E-05
3.275294E+03	1.123597E-04	2.201147E-05
3.285249E+03	1.133871E-04	2.211330E-05
3.295205E+03	1.144242E-04	2.221491E-05
3.305160E+03	1.154712E-04	2.231630E-05
3.315115E+03	1.165483E-04	2.242136E-05
3.325070E+03	1.176152E-04	2.252224E-05
3.335026E+03	1.186921E-04	2.262282E-05
3.344981E+03	1.197998E-04	2.272705E-05
3.354936E+03	1.208969E-04	2.282698E-05
3.364892E+03	1.220041E-04	2.292653E-05
3.374847E+03	1.231428E-04	2.302968E-05
3.384802E+03	1.242704E-04	2.312842E-05
3.394758E+03	1.254083E-04	2.322669E-05
3.404713E+03	1.265783E-04	2.332853E-05
3.414668E+03	1.277368E-04	2.342582E-05
3.424623E+03	1.289056E-04	2.352256E-05
3.434579E+03	1.301073E-04	2.362282E-05
3.444534E+03	1.312969E-04	2.371838E-05
3.454489E+03	1.324969E-04	2.381330E-05
3.464445E+03	1.337304E-04	2.391169E-05
3.474400E+03	1.349513E-04	2.400524E-05
3.484355E+03	1.362062E-04	2.410223E-05
3.494311E+03	1.374480E-04	2.419428E-05
3.504266E+03	1.387002E-04	2.428551E-05
3.514221E+03	1.399871E-04	2.438012E-05
3.524176E+03	1.412603E-04	2.446963E-05
3.534132E+03	1.425438E-04	2.455822E-05
3.544087E+03	1.438626E-04	2.465012E-05
3.554042E+03	1.451671E-04	2.473677E-05
3.563998E+03	1.464818E-04	2.482237E-05
3.573953E+03	1.478323E-04	2.491121E-05
3.583908E+03	1.491678E-04	2.499463E-05
3.593864E+03	1.505135E-04	2.507690E-05
3.603819E+03	1.518955E-04	2.516231E-05
3.613774E+03	1.532617E-04	2.524214E-05
3.623729E+03	1.546646E-04	2.532507E-05
3.633685E+03	1.560510E-04	2.540230E-05
3.643640E+03	1.574474E-04	2.547815E-05
3.653595E+03	1.588810E-04	2.555701E-05
3.663551E+03	1.602973E-04	2.563000E-05
3.673506E+03	1.617232E-04	2.570148E-05
3.683461E+03	1.631869E-04	2.577586E-05
3.693417E+03	1.646322E-04	2.584420E-05
3.703372E+03	1.660869E-04	2.591090E-05
3.713327E+03	1.675798E-04	2.598038E-05
3.723282E+03	1.690533E-04	2.604365E-05
3.733238E+03	1.705652E-04	2.610963E-05
3.743193E+03	1.720569E-04	2.616929E-05
3.753148E+03	1.735574E-04	2.622706E-05
3.763104E+03	1.750968E-04	2.628743E-05
3.773059E+03	1.766146E-04	2.634128E-05
3.783014E+03	1.781409E-04	2.639311E-05
3.792970E+03	1.797063E-04	2.644742E-05
3.802925E+03	1.812490E-04	2.649504E-05
3.812880E+03	1.827995E-04	2.654049E-05
3.822835E+03	1.843893E-04	2.658828E-05
3.832791E+03	1.859551E-04	2.662922E-05
3.842746E+03	1.875281E-04	2.666783E-05
3.852701E+03	1.891406E-04	2.670866E-05
3.862657E+03	1.907276E-04	2.674247E-05
3.872612E+03	1.923542E-04	2.677840E-05
3.882567E+03	1.939542E-04	2.680721E-05
3.892523E+03	1.955603E-04	2.683345E-05
3.902478E+03	1.972060E-04	2.686168E-05
3.912433E+03	1.988235E-04	2.688263E-05
3.922388E+03	2.004462E-04	2.690086E-05
3.932344E+03	2.021086E-04	2.692094E-05
3.942299E+03	2.037410E-04	2.693360E-05
3.952254E+03	2.053777E-04	2.694340E-05
3.962210E+03	2.070539E-04	2.695492E-05
3.972165E+03	2.086984E-04	2.695888E-05
3.982120E+03	2.103462E-04	2.695984E-05
3.992076E+03	2.120332E-04	2.696240E-05
4.002031E+03	2.136866E-04	2.695727E-05
4.011986E+03	2.153421E-04	2.694903E-05
4.021941E+03	2.170366E-04	2.694225E-05
4.031897E+03	2.186955E-04	2.692768E-05
4.041852E+03	2.203554E-04	2.690988E-05
4.051807E+03	2.220537E-04	2.689343E-05
4.061763E+03	2.237143E-04	2.686909E-05
4.071718E+03	2.253746E-04	2.684143E-05
4.081673E+03	2.270340E-04	2.681042E-05
4.091629E+03	2.287313E-04	2.678062E-05
4.101584E+03	2.303879E-04	2.674284E-05
4.111539E+03	2.320421E-04	2.670163E-05
4.121494E+03	2.337336E-04	2.666155E-05
4.131450E+03	2.353820E-04	2.661344E-05
4.141405E+03	2.370267E-04	2.656185E-05
4.151360E+03	2.387077E-04	2.651132E-05
4.161316E+03	2.403434E-04	2.645274E-05
4.171271E+03	2.419735E-04	2.639065E-05
4.181226E+03	2.435976E-04	2.632507E-05
4.191182E+03	2.452570E-04	2.626045E-05
4.201137E+03	2.468675E-04	2.618783E-05
4.211092E+03	2.484703E-04	2.611171E-05
4.221047E+03	2.500646E-04	2.603209E-05
4.231003E+03	2.516929E-04	2.595342E-05
4.240958E+03	2.532688E-04	2.586684E-05
4.250913E+03	2.548344E-04	2.577682E-05
4.260869E+03	2.563891E-04	2.568338E-05
4.270824E+03	2.579762E-04	2.559090E-05
4.280779E+03	2.595072E-04	2.549068E-05
4.290735E+03	2.610254E-04	2.538714E-05
4.300690E+03	2.625300E-04	2.528032E-05
4.310645E+03	2.640653E-04	2.517454E-05
4.320601E+03	2.655408E-04	2.506128E-05
4.330556E+03	2.670007E-04	2.494487E-05
4.340511E+03	2.684442E-04	2.482540E-05
4.350466E+03	2.698705E-04	2.470291E-05
4.360422E+03	2.713252E-04	2.458167E-05
4.370377E+03	2.727154E-04	2.445337E-05
4.380332E+03	2.740864E-04	2.432228E-05
4.390288E+03	2.754373E-04	2.418849E-05
4.400243E+03	2.767675E-04	2.405210E-05
4.410198E+03	2.781235E-04	2.391727E-05
4.420154E+03	2.794103E-04	2.377594E-05
4.430109E+03	2.806740E-04	2.363231E-05
4.440064E+03	2.819139E-04	2.348650E-05
4.450019E+03	2.831294E-04	2.333863E-05
4.459975E+03	2.843197E-04	2.318881E-05
4.469930E+03	2.855324E-04	2.304109E-05
4.479885E+03	2.866701E-04	2.288777E-05
4.489841E+03	2.877803E-04	2.273291E-05
4.499796E+03	2.888622E-04	2.257666E-05
4.509751E+03	2.899151E-04	2.241918E-05
4.519707E+03	2.909382E-04	2.226063E-05
4.529662E+03	2.919307E-04	2.210116E-05
4.539617E+03	2.928919E-04	2.194095E-05
4.549572E+03	2.938709E-04	2.178386E-05
4.559528E+03	2.947674E-04	2.162265E-05
4.569483E+03	2.956303E-04	2.146122E-05
4.579438E+03	2.964588E-04	2.129976E-05
4.589394E+03	2.972523E-04	2.113846E-05
4.599349E+03	2.980099E-04	2.097751E-05
4.609304E+03	2.987310E-04	2.081710E-05
4.619260E+03	2.994146E-04	2.065742E-05
4.629215E+03	3.000601E-04	2.049868E-05
4.639170E+03	3.006668E-04	2.034107E-05
4.649125E+03	3.012338E-04	2.018479E-05
4.659081E+03	3.017605E-04	2.003004E-05
4.669036E+03	3.022461E-04	1.987703E-05
4.678991E+03	3.026898E-04	1.972594E-05
4.688947E+03	3.030910E-04	1.957697E-05
4.698902E+03	3.034490E-04	1.943032E-05
4.708857E+03	3.037630E-04	1.928618E-05
4.718813E+03	3.040325E-04	1.914474E-05
4.728768E+03	3.042570E-04	1.900618E-05
4.738723E+03	3.044358E-04	1.887069E-05
4.748678E+03	3.045686E-04	1.873846E-05
4.758634E+03	3.046552E-04	1.860965E-05
4.768589E+03	3.046954E-04	1.848444E-05
4.778544E+03	3.046893E-04	1.836299E-05
4.788500E+03	3.046370E-04	1.824529E-05
4.798455E+03	3.045393E-04	1.813127E-05
4.808410E+03	3.043968E-04	1.802087E-05
4.818366E+03	3.042104E-04	1.791400E-05
4.828321E+03	3.039810E-04	1.781059E-05
4.838276E+03	3.037095E-04	1.771053E-05
4.848231E+03	3.033968E-04	1.761372E-05
4.858187E+03	3.030439E-04	1.752007E-05
4.868142E+03	3.026518E-04	1.742943E-05
4.878097E+03	3.022214E-04	1.734171E-05
4.888053E+03	3.017537E-04	1.725676E-05
4.898008E+03	3.011990E-04	1.717155E-05
4.907963E+03	3.006599E-04	1.709176E-05
4.917919E+03	3.000865E-04	1.701434E-05
4.927874E+03	2.994798E-04	1.693914E-05
4.937829E+03	2.988408E-04	1.686602E-05
4.947784E+03	2.981705E-04	1.679483E-05
4.957740E+03	2.974698E-04	1.672543E-05
4.967695E+03	2.966898E-04	1.665487E-05
4.977650E+03	2.959316E-04	1.658863E-05
4.987606E+03	2.951460E-04	1.652375E-05
4.997561E+03	2.943339E-04	1.646011E-05
5.007516E+03	2.934965E-04	1.639755E-05
5.017472E+03	2.925854E-04	1.633322E-05
5.027427E+03	2.917001E-04	1.627248E-05
5.037382E+03	2.907924E-04	1.621246E-05
5.047337E+03	2.898631E-04	1.615304E-05
5.057293E+03	2.889133E-04	1.609411E-05
5.067248E+03	2.878954E-04	1.603287E-05
5.077203E+03	2.869075E-04	1.597463E-05
5.087159E+03	2.859019E-04	1.591657E-05
5.097114E+03	2.848795E-04	1.585863E-05
5.107069E+03	2.837935E-04	1.579804E-05
5.117025E+03	2.827406E-04	1.574007E-05
5.126980E+03	2.816737E-04	1.568198E-05
5.136935E+03	2.805938E-04	1.562370E-05
5.146890E+03	2.794549E-04	1.556256E-05
5.156846E+03	2.783518E-04	1.550375E-05
5.166801E+03	2.772385E-04	1.544460E-05
5.176756E+03	2.760694E-04	1.538249E-05
5.186712E+03	2.749384E-04	1.532255E-05
5.196667E+03	2.737997E-04	1.526217E-05
5.206622E+03	2.726085E-04	1.519877E-05
5.216578E+03	2.714574E-04	1.513745E-05
5.226533E+03	2.703012E-04	1.507563E-05
5.236488E+03	2.690956E-04	1.501079E-05
5.246443E+03	2.679320E-04	1.494796E-05
5.256399E+03	2.667659E-04	1.488463E-05
5.266354E+03	2.655534E-04	1.481831E-05
5.276309E+03	2.643848E-04	1.475399E-05
5.286265E+03	2.631718E-04	1.468673E-05
5.296220E+03	2.620038E-04	1.462148E-05
5.306175E+03	2.608371E-04	1.455579E-05
5.316131E+03	2.596291E-04	1.448725E-05
5.326086E+03	2.584676E-04	1.442076E-05
5.336041E+03	2.572666E-04	1.435150E-05
5.345996E+03	2.561132E-04	1.428433E-05
5.355952E+03	2.549220E-04	1.421447E-05
5.365907E+03	2.537793E-04	1.414675E-05
5.375862E+03	2.526431E-04	1.407881E-05
5.385818E+03	2.514716E-04	1.400834E-05
5.395773E+03	2.503501E-04	1.394008E-05
5.405728E+03	2.491950E-04	1.386940E-05
5.415684E+03	2.480907E-04	1.380100E-05
5.425639E+03	2.469545E-04	1.373028E-05
5.435594E+03	2.458699E-04	1.366191E-05
5.445549E+03	2.447548E-04	1.359132E-05
5.455505E+03	2.436921E-04	1.352306E-05
5.465460E+03	2.426004E-04	1.345254E-05
5.475415E+03	2.415618E-04	1.338425E-05
5.485371E+03	2.404956E-04	1.331368E-05
5.495326E+03	2.394430E-04	1.324304E-05
5.505281E+03	2.384444E-04	1.317452E-05
5.515237E+03	2.374203E-04	1.310368E-05
5.525192E+03	2.364509E-04	1.303488E-05
5.535147E+03	2.354571E-04	1.296373E-05
5.545102E+03	2.345186E-04	1.289458E-05
5.555058E+03	2.335572E-04	1.282307E-05
5.565013E+03	2.326126E-04	1.275137E-05
5.574968E+03	2.317240E-04	1.268157E-05
5.584924E+03	2.308142E-04	1.260943E-05
5.594879E+03	2.299610E-04	1.253915E-05
5.604834E+03	2.290877E-04	1.246653E-05
5.614790E+03	2.282333E-04	1.239367E-05
5.624745E+03	2.274363E-04	1.232263E-05
5.634700E+03	2.266208E-04	1.224927E-05
5.644655E+03	2.258253E-04	1.217567E-05
5.654611E+03	2.250880E-04	1.210385E-05
5.664566E+03	2.243337E-04	1.202975E-05
5.674521E+03	2.236006E-04	1.195542E-05
5.684477E+03	2.229262E-04	1.188285E-05
5.694432E+03	2.222365E-04	1.180806E-05
5.704387E+03	2.215690E-04	1.173306E-05
5.714343E+03	2.209611E-04	1.165982E-05
5.724298E+03	2.203392E-04	1.158443E-05
5.734253E+03	2.197406E-04	1.150887E-05
5.744209E+03	2.191658E-04	1.143316E-05
5.754164E+03	2.186517E-04	1.135922E-05
5.764119E+03	2.181253E-04	1.128325E-05
5.774074E+03	2.176239E-04	1.120719E-05
5.784030E+03	2.171840E-04	1.113292E-05
5.793985E+03	2.167333E-04	1.105674E-05
5.803940E+03	2.163086E-04	1.098054E-05
5.813896E+03	2.159103E-04	1.090436E-05
5.823851E+03	2.155388E-04	1.082822E-05
5.833806E+03	2.152304E-04	1.075396E-05
5.843762E+03	2.149136E-04	1.067801E-05
5.853717E+03	2.146247E-04	1.060221E-05
5.863672E+03	2.143643E-04	1.052660E-05
5.873627E+03	2.141327E-04	1.045123E-05
5.883583E+03	2.139661E-04	1.037788E-05
5.893538E+03	2.137935E-04	1.030311E-05
5.903493E+03	2.136510E-04	1.022872E-05
5.913449E+03	2.135391E-04	1.015477E-05
5.923404E+03	2.134583E-04	1.008132E-05
5.933359E+03	2.134090E-04	1.000842E-05
5.943315E+03	2.134274E-04	9.937797E-06
5.953270E+03	2.134427E-04	9.866197E-06
5.963225E+03	2.134911E-04	9.795361E-06
5.973180E+03	2.135730E-04	9.725363E-06
5.983136E+03	2.136890E-04	9.656292E-06
5.993091E+03	2.138396E-04	9.588231E-06
6.003046E+03	2.140255E-04	9.521273E-06
6.013002E+03	2.142470E-04	9.455517E-06
6.022957E+03	2.145407E-04	9.392634E-06
6.032912E+03	2.148354E-04	9.329588E-06
6.042868E+03	2.151677E-04	9.268075E-06
6.052823E+03	2.155381E-04	9.208218E-06
6.062778E+03	2.159471E-04	9.150146E-06
6.072733E+03	2.163955E-04	9.094000E-06
6.082689E+03	2.168838E-04	9.039920E-06
6.092644E+03	2.174126E-04	8.988065E-06
6.102599E+03	2.179827E-04	8.938592E-06
6.112555E+03	2.185945E-04	8.891671E-06
6.122510E+03	2.192489E-04	8.847483E-06
6.132465E+03	2.199463E-04	8.806211E-06
6.142421E+03	2.206875E-04	8.768053E-06
6.152376E+03	2.214729E-04	8.733207E-06
6.162331E+03	2.223032E-04	8.701889E-06
6.172286E+03	2.231791E-04	8.674316E-06
6.182242E+03	2.241009E-04	8.650714E-06
6.192197E+03	2.250691E-04	8.631316E-06
6.202152E+03	2.260842E-04	8.616360E-06
6.212108E+03	2.271464E-04	8.606086E-06
6.222063E+03	2.282558E-04	8.600739E-06
6.232018E+03	2.294127E-04	8.600565E-06
6.241974E+03	2.306167E-04	8.605809E-06
6.251929E+03	2.318677E-04	8.616713E-06
6.261884E+03	2.331644E-04	8.633464E-06
6.271839E+03	2.345052E-04	8.656080E-06
6.281795E+03	2.358885E-04	8.684513E-06
6.291750E+03	2.373125E-04	8.718707E-06
6.301705E+03	2.387751E-04	8.758602E-06
6.311661E+03	2.402746E-04	8.804131E-06
6.321616E+03	2.418087E-04	8.855220E-06
6.331571E+03	2.433753E-04	8.911795E-06
6.341527E+03	2.449314E-04	8.972271E-06
6.351482E+03	2.465562E-04	9.039547E-06
6.361437E+03	2.482065E-04	9.112041E-06
6.371392E+03	2.498801E-04	9.189655E-06
6.381348E+03	2.515743E-04	9.272285E-06
6.391303E+03	2.532865E-04	9.359825E-06
6.401258E+03	2.550140E-04	9.452160E-06
6.411214E+03	2.567540E-04	9.549173E-06
6.421169E+03	2.584606E-04	9.649132E-06
6.431124E+03	2.602169E-04	9.755116E-06
6.441080E+03	2.619769E-04	9.865402E-06
6.451035E+03	2.637379E-04	9.979858E-06
6.460990E+03	2.654966E-04	1.009835E-05
6.470945E+03	2.672501E-04	1.022073E-05
6.480901E+03	2.689953E-04	1.034687E-05
6.490856E+03	2.706842E-04	1.047489E-05
6.500811E+03	2.724041E-04	1.060811E-05
6.510767E+03	2.741073E-04	1.074468E-05
6.520722E+03	2.757913E-04	1.088448E-05
6.530677E+03	2.774537E-04	1.102737E-05
6.540633E+03	2.790459E-04	1.117137E-05
6.550588E+03	2.806591E-04	1.132009E-05
6.560543E+03	2.822459E-04	1.147159E-05
6.570498E+03	2.838054E-04	1.162568E-05
6.580454E+03	2.853371E-04	1.178213E-05
6.590409E+03	2.867926E-04	1.193869E-05
6.600364E+03	2.882668E-04	1.209907E-05
6.610320E+03	2.897117E-04	1.226106E-05
6.620275E+03	2.911268E-04	1.242441E-05
6.630230E+03	2.924628E-04	1.258678E-05
6.640186E+03	2.938167E-04	1.275208E-05
6.650141E+03	2.951396E-04	1.291801E-05
6.660096E+03	2.964311E-04	1.308432E-05
6.670051E+03	2.976411E-04	1.324856E-05
6.680007E+03	2.988685E-04	1.341489E-05
6.689962E+03	3.000634E-04	1.358089E-05
6.699917E+03	3.012256E-04	1.374633E-05
6.709873E+03	3.023042E-04	1.390866E-05
6.719828E+03	3.033999E-04	1.407228E-05
6.729783E+03	3.044620E-04	1.423468E-05
6.739739E+03	3.054392E-04	1.439324E-05
6.749694E+03	3.064333E-04	1.455254E-05
6.759649E+03	3.073932E-04	1.470999E-05
6.769604E+03	3.082670E-04	1.486292E-05
6.779560E+03	3.091578E-04	1.501607E-05
6.789515E+03	3.100138E-04	1.516680E-05
6.799470E+03	3.107830E-04	1.531237E-05
6.809426E+03	3.115690E-04	1.545770E-05
6.819381E+03	3.123200E-04	1.560009E-05
6.829336E+03	3.129835E-04	1.573674E-05
6.839292E+03	3.136641E-04	1.587273E-05
6.849247E+03	3.143094E-04	1.600529E-05
6.859202E+03	3.148667E-04	1.613160E-05
6.869157E+03	3.154414E-04	1.625688E-05
6.879113E+03	3.159807E-04	1.637831E-05
6.889068E+03	3.164319E-04	1.649302E-05
6.899023E+03	3.169008E-04	1.660637E-05
6.908979E+03	3.173345E-04	1.671552E-05
6.918934E+03	3.176799E-04	1.681753E-05
6.928889E+03	3.180435E-04	1.691792E-05
6.938845E+03	3.183189E-04	1.701093E-05
6.948800E+03	3.186127E-04	1.710216E-05
6.958755E+03	3.188719E-04	1.718868E-05
6.968710E+03	3.190432E-04	1.726752E-05
6.978666E+03	3.192335E-04	1.734438E-05
6.988621E+03	3.193362E-04	1.741339E-05
6.998576E+03	3.194584E-04	1.748031E-05
7.008532E+03	3.194932E-04	1.753923E-05
7.018487E+03	3.195479E-04	1.759597E-05
7.028442E+03	3.195694E-04	1.764756E-05
7.038398E+03	3.195041E-04	1.769098E-05
7.048353E+03	3.194595E-04	1.773213E-05
7.058308E+03	3.193287E-04	1.776504E-05
7.068263E+03	3.192190E-04	1.779563E-05
7.078219E+03	3.190239E-04	1.781792E-05
7.088174E+03	3.188503E-04	1.783788E-05
7.098129E+03	3.185919E-04	1.784951E-05
7.108085E+03	3.183556E-04	1.785879E-05
7.118040E+03	3.180351E-04	1.785975E-05
7.127995E+03	3.177374E-04	1.785838E-05
7.137951E+03	3.173562E-04	1.784870E-05
7.147906E+03	3.169983E-04	1.783672E-05
7.157861E+03	3.165577E-04	1.781648E-05
7.167817E+03	3.161410E-04	1.779398E-05
7.177772E+03	3.156424E-04	1.776330E-05
7.187727E+03	3.151683E-04	1.773043E-05
7.197682E+03	3.146132E-04	1.768945E-05
7.207638E+03	3.140832E-04	1.764638E-05
7.217593E+03	3.134730E-04	1.759532E-05
7.227548E+03	3.128885E-04	1.754225E-05
7.237504E+03	3.122250E-04	1.748134E-05
7.247459E+03	3.115876E-04	1.741853E-05
7.257414E+03	3.108720E-04	1.734804E-05
7.267370E+03	3.101832E-04	1.727579E-05
7.277325E+03	3.094174E-04	1.719605E-05
7.287280E+03	3.086788E-04	1.711468E-05
7.297235E+03	3.078643E-04	1.702603E-05
7.307191E+03	3.070776E-04	1.693593E-05
7.317146E+03	3.062159E-04	1.683877E-05
7.327101E+03	3.053314E-04	1.673752E-05
7.337057E+03	3.044756E-04	1.663510E-05
7.347012E+03	3.035465E-04	1.652601E-05
7.356967E+03	3.026466E-04	1.641594E-05
7.366923E+03	3.016746E-04	1.629950E-05
7.376878E+03	3.006817E-04	1.617958E-05
7.386833E+03	2.997189E-04	1.605904E-05
7.396788E+03	2.986856E-04	1.593259E-05
7.406744E+03	2.976829E-04	1.580576E-05
7.416699E+03	2.966108E-04	1.567337E-05
7.426654E+03	2.955201E-04	1.553825E-05
7.436610E+03	2.944607E-04	1.540318E-05
7.446565E+03	2.933337E-04	1.526310E-05
7.456520E+03	2.922384E-04	1.512336E-05
7.466476E+03	2.910768E-04	1.497903E-05
7.476431E+03	2.898986E-04	1.483285E-05
7.486386E+03	2.887529E-04	1.468752E-05
7.496341E+03	2.875425E-04	1.453824E-05
7.506297E+03	2.863168E-04	1.438773E-05
7.516252E+03	2.851242E-04	1.423860E-05
7.526207E+03	2.838688E-04	1.408624E-05
7.536163E+03	2.825993E-04	1.393332E-05
7.546118E+03	2.813634E-04	1.378237E-05
7.556073E+03	2.800666E-04	1.362898E-05
7.566029E+03	2.787568E-04	1.347574E-05
7.575984E+03	2.774813E-04	1.332514E-05
7.585939E+03	2.761466E-04	1.317294E-05
7.595894E+03	2.748002E-04	1.302166E-05
7.605850E+03	2.734885E-04	1.287375E-05
7.615805E+03	2.721195E-04	1.272514E-05
7.625760E+03	2.707398E-04	1.257829E-05
7.635716E+03	2.693954E-04	1.243559E-05
7.645671E+03	2.679954E-04	1.229314E-05
7.655626E+03	2.665860E-04	1.215334E-05
7.665582E+03	2.651674E-04	1.201651E-05
7.675537E+03	2.637846E-04	1.188497E-05
7.685492E+03	2.623487E-04	1.175498E-05
7.695447E+03	2.609047E-04	1.162890E-05
7.705403E+03	2.594968E-04	1.150899E-05
7.715358E+03	2.580375E-04	1.139165E-05
7.725313E+03	2.565713E-04	1.127916E-05
