#wls	flux	fluxerr
1.592848E+03	2.992483E-05	8.018862E-06
1.632669E+03	3.066741E-05	8.173559E-06
1.672491E+03	3.144162E-05	8.333610E-06
1.712312E+03	3.223735E-05	8.496131E-06
1.752133E+03	3.306718E-05	8.664241E-06
1.791954E+03	3.392662E-05	8.836527E-06
1.831775E+03	3.481693E-05	9.013086E-06
1.871597E+03	3.573939E-05	9.194005E-06
1.911418E+03	3.669534E-05	9.379373E-06
1.951239E+03	3.768627E-05	9.569297E-06
1.991060E+03	3.871358E-05	9.763842E-06
2.030881E+03	3.977888E-05	9.963118E-06
2.070703E+03	4.088378E-05	1.016721E-05
2.110524E+03	4.202999E-05	1.037619E-05
2.150345E+03	4.321927E-05	1.059014E-05
2.190166E+03	4.445345E-05	1.080915E-05
2.229987E+03	4.574273E-05	1.103526E-05
2.269809E+03	4.707292E-05	1.126463E-05
2.309630E+03	4.846280E-05	1.150131E-05
2.349451E+03	4.989748E-05	1.174128E-05
2.389272E+03	5.139684E-05	1.198874E-05
2.429093E+03	5.294519E-05	1.223949E-05
2.468915E+03	5.456362E-05	1.249786E-05
2.508736E+03	5.624561E-05	1.276175E-05
2.548557E+03	5.798348E-05	1.302880E-05
2.588378E+03	5.980034E-05	1.330359E-05
2.628199E+03	6.168910E-05	1.358381E-05
2.668021E+03	6.365268E-05	1.386936E-05
2.707842E+03	6.569414E-05	1.416017E-05
2.747663E+03	6.781660E-05	1.445609E-05
2.787484E+03	7.002326E-05	1.475697E-05
2.827305E+03	7.231740E-05	1.506262E-05
2.867127E+03	7.470226E-05	1.537278E-05
2.906948E+03	7.719494E-05	1.568995E-05
2.946769E+03	7.977183E-05	1.600830E-05
2.986590E+03	8.244962E-05	1.633016E-05
2.996546E+03	8.313889E-05	1.641185E-05
3.006501E+03	8.383478E-05	1.649373E-05
3.016456E+03	8.452241E-05	1.657286E-05
3.026411E+03	8.523159E-05	1.665508E-05
3.036367E+03	8.594754E-05	1.673747E-05
3.046322E+03	8.667034E-05	1.682002E-05
3.056277E+03	8.740003E-05	1.690272E-05
3.066233E+03	8.813667E-05	1.698556E-05
3.076188E+03	8.886455E-05	1.706550E-05
3.086143E+03	8.961506E-05	1.714858E-05
3.096099E+03	9.037266E-05	1.723176E-05
3.106054E+03	9.113742E-05	1.731505E-05
3.116009E+03	9.190932E-05	1.739842E-05
3.125964E+03	9.268850E-05	1.748187E-05
3.135920E+03	9.347492E-05	1.756539E-05
3.145875E+03	9.425203E-05	1.764584E-05
3.155830E+03	9.505302E-05	1.772944E-05
3.165786E+03	9.586145E-05	1.781307E-05
3.175741E+03	9.667736E-05	1.789673E-05
3.185696E+03	9.750076E-05	1.798038E-05
3.195652E+03	9.833170E-05	1.806403E-05
3.205607E+03	9.917023E-05	1.814765E-05
3.215562E+03	9.999875E-05	1.822802E-05
3.225517E+03	1.008525E-04	1.831154E-05
3.235473E+03	1.017139E-04	1.839500E-05
3.245428E+03	1.025830E-04	1.847837E-05
3.255383E+03	1.034600E-04	1.856165E-05
3.265339E+03	1.043448E-04	1.864481E-05
3.275294E+03	1.052375E-04	1.872785E-05
3.285249E+03	1.061380E-04	1.881074E-05
3.295205E+03	1.070276E-04	1.889013E-05
3.305160E+03	1.079438E-04	1.897266E-05
3.315115E+03	1.088681E-04	1.905500E-05
3.325070E+03	1.098004E-04	1.913711E-05
3.335026E+03	1.107407E-04	1.921899E-05
3.344981E+03	1.116890E-04	1.930061E-05
3.354936E+03	1.126454E-04	1.938196E-05
3.364892E+03	1.136100E-04	1.946301E-05
3.374847E+03	1.145625E-04	1.954031E-05
3.384802E+03	1.155431E-04	1.962070E-05
3.394758E+03	1.165318E-04	1.970072E-05
3.404713E+03	1.175288E-04	1.978038E-05
3.414668E+03	1.185339E-04	1.985963E-05
3.424623E+03	1.195472E-04	1.993845E-05
3.434579E+03	1.205686E-04	2.001682E-05
3.444534E+03	1.215983E-04	2.009473E-05
3.454489E+03	1.226361E-04	2.017213E-05
3.464445E+03	1.236821E-04	2.024902E-05
3.474400E+03	1.247144E-04	2.032179E-05
3.484355E+03	1.257765E-04	2.039755E-05
3.494311E+03	1.268469E-04	2.047272E-05
3.504266E+03	1.279253E-04	2.054726E-05
3.514221E+03	1.290119E-04	2.062115E-05
3.524176E+03	1.301066E-04	2.069437E-05
3.534132E+03	1.312094E-04	2.076689E-05
3.544087E+03	1.323202E-04	2.083868E-05
3.554042E+03	1.334390E-04	2.090971E-05
3.563998E+03	1.345658E-04	2.097995E-05
3.573953E+03	1.356768E-04	2.104568E-05
3.583908E+03	1.368193E-04	2.111426E-05
3.593864E+03	1.379696E-04	2.118195E-05
3.603819E+03	1.391277E-04	2.124874E-05
3.613774E+03	1.402936E-04	2.131459E-05
3.623729E+03	1.414672E-04	2.137948E-05
3.633685E+03	1.426484E-04	2.144337E-05
3.643640E+03	1.438371E-04	2.150623E-05
3.653595E+03	1.450334E-04	2.156802E-05
3.663551E+03	1.462371E-04	2.162873E-05
3.673506E+03	1.474222E-04	2.168451E-05
3.683461E+03	1.486403E-04	2.174292E-05
3.693417E+03	1.498655E-04	2.180014E-05
3.703372E+03	1.510977E-04	2.185614E-05
3.713327E+03	1.523369E-04	2.191088E-05
3.723282E+03	1.535830E-04	2.196432E-05
3.733238E+03	1.548358E-04	2.201644E-05
3.743193E+03	1.560952E-04	2.206721E-05
3.753148E+03	1.573611E-04	2.211658E-05
3.763104E+03	1.586334E-04	2.216452E-05
3.773059E+03	1.598839E-04	2.220711E-05
3.783014E+03	1.611683E-04	2.225208E-05
3.792970E+03	1.624586E-04	2.229552E-05
3.802925E+03	1.637547E-04	2.233740E-05
3.812880E+03	1.650565E-04	2.237767E-05
3.822835E+03	1.663637E-04	2.241632E-05
3.832791E+03	1.676762E-04	2.245329E-05
3.842746E+03	1.689939E-04	2.248856E-05
3.852701E+03	1.703164E-04	2.252208E-05
3.862657E+03	1.716437E-04	2.255384E-05
3.872612E+03	1.729453E-04	2.257984E-05
3.882567E+03	1.742812E-04	2.260795E-05
3.892523E+03	1.756213E-04	2.263418E-05
3.902478E+03	1.769652E-04	2.265851E-05
3.912433E+03	1.783128E-04	2.268090E-05
3.922388E+03	1.796639E-04	2.270132E-05
3.932344E+03	1.810181E-04	2.271973E-05
3.942299E+03	1.823753E-04	2.273611E-05
3.952254E+03	1.837352E-04	2.275042E-05
3.962210E+03	1.850652E-04	2.275867E-05
3.972165E+03	1.864294E-04	2.276876E-05
3.982120E+03	1.877955E-04	2.277670E-05
3.992076E+03	1.891632E-04	2.278245E-05
4.002031E+03	1.905321E-04	2.278599E-05
4.011986E+03	1.919020E-04	2.278729E-05
4.021941E+03	1.932727E-04	2.278634E-05
4.031897E+03	1.946436E-04	2.278309E-05
4.041852E+03	1.959804E-04	2.277356E-05
4.051807E+03	1.973509E-04	2.276567E-05
4.061763E+03	1.987207E-04	2.275543E-05
4.071718E+03	2.000894E-04	2.274280E-05
4.081673E+03	2.014568E-04	2.272778E-05
4.091629E+03	2.028225E-04	2.271034E-05
4.101584E+03	2.041861E-04	2.269048E-05
4.111539E+03	2.055113E-04	2.266422E-05
4.121494E+03	2.068693E-04	2.263946E-05
4.131450E+03	2.082239E-04	2.261222E-05
4.141405E+03	2.095749E-04	2.258249E-05
4.151360E+03	2.109218E-04	2.255028E-05
4.161316E+03	2.122641E-04	2.251557E-05
4.171271E+03	2.136014E-04	2.247835E-05
4.181226E+03	2.148960E-04	2.243472E-05
4.191182E+03	2.162218E-04	2.239250E-05
4.201137E+03	2.175414E-04	2.234777E-05
4.211092E+03	2.188541E-04	2.230052E-05
4.221047E+03	2.201597E-04	2.225078E-05
4.231003E+03	2.214575E-04	2.219855E-05
4.240958E+03	2.227084E-04	2.213999E-05
4.250913E+03	2.239890E-04	2.208280E-05
4.260869E+03	2.252605E-04	2.202317E-05
4.270824E+03	2.265223E-04	2.196109E-05
4.280779E+03	2.277737E-04	2.189658E-05
4.290735E+03	2.289747E-04	2.182588E-05
4.300690E+03	2.302040E-04	2.175661E-05
4.310645E+03	2.314214E-04	2.168499E-05
4.320601E+03	2.326265E-04	2.161106E-05
4.330556E+03	2.338187E-04	2.153483E-05
4.340511E+03	2.349974E-04	2.145636E-05
4.350466E+03	2.361210E-04	2.137196E-05
4.360422E+03	2.372709E-04	2.128912E-05
4.370377E+03	2.384055E-04	2.120414E-05
4.380332E+03	2.395244E-04	2.111709E-05
4.390288E+03	2.405852E-04	2.102437E-05
4.400243E+03	2.416706E-04	2.093333E-05
4.410198E+03	2.427384E-04	2.084037E-05
4.420154E+03	2.437881E-04	2.074555E-05
4.430109E+03	2.448190E-04	2.064894E-05
4.440064E+03	2.457879E-04	2.054704E-05
4.450019E+03	2.467792E-04	2.044705E-05
4.459975E+03	2.477499E-04	2.034548E-05
4.469930E+03	2.486993E-04	2.024239E-05
4.479885E+03	2.495836E-04	2.013438E-05
4.489841E+03	2.504883E-04	2.002852E-05
4.499796E+03	2.513699E-04	1.992138E-05
4.509751E+03	2.522276E-04	1.981307E-05
4.519707E+03	2.530169E-04	1.970024E-05
4.529662E+03	2.538247E-04	1.958984E-05
4.539617E+03	2.546067E-04	1.947853E-05
4.549572E+03	2.553621E-04	1.936640E-05
4.559528E+03	2.560460E-04	1.925023E-05
4.569483E+03	2.567461E-04	1.913679E-05
4.579438E+03	2.574177E-04	1.902284E-05
4.589394E+03	2.580601E-04	1.890849E-05
4.599349E+03	2.586277E-04	1.879058E-05
4.609304E+03	2.592093E-04	1.867574E-05
4.619260E+03	2.597595E-04	1.856082E-05
4.629215E+03	2.602328E-04	1.844273E-05
4.639170E+03	2.607181E-04	1.832798E-05
4.649125E+03	2.611701E-04	1.821348E-05
4.659081E+03	2.615428E-04	1.809620E-05
4.669036E+03	2.619259E-04	1.798253E-05
4.678991E+03	2.622735E-04	1.786944E-05
4.688947E+03	2.625397E-04	1.775396E-05
4.698902E+03	2.628146E-04	1.764237E-05
4.708857E+03	2.630522E-04	1.753168E-05
4.718813E+03	2.632066E-04	1.741901E-05
4.728768E+03	2.633683E-04	1.731049E-05
4.738723E+03	2.634913E-04	1.720322E-05
4.748678E+03	2.635300E-04	1.709435E-05
4.758634E+03	2.635750E-04	1.698992E-05
4.768589E+03	2.635810E-04	1.688709E-05
4.778544E+03	2.635023E-04	1.678304E-05
4.788500E+03	2.634304E-04	1.668359E-05
4.798455E+03	2.633202E-04	1.658579E-05
4.808410E+03	2.631271E-04	1.648680E-05
4.818366E+03	2.629425E-04	1.639228E-05
4.828321E+03	2.627220E-04	1.629937E-05
4.838276E+03	2.624210E-04	1.620523E-05
4.848231E+03	2.621310E-04	1.611545E-05
4.858187E+03	2.617624E-04	1.602442E-05
4.868142E+03	2.614066E-04	1.593765E-05
4.878097E+03	2.610192E-04	1.585231E-05
4.888053E+03	2.605564E-04	1.576565E-05
4.898008E+03	2.601088E-04	1.568307E-05
4.907963E+03	2.595878E-04	1.559910E-05
4.917919E+03	2.590839E-04	1.551908E-05
4.927874E+03	2.585531E-04	1.544026E-05
4.937829E+03	2.579521E-04	1.535993E-05
4.947784E+03	2.573706E-04	1.528335E-05
4.957740E+03	2.567208E-04	1.520519E-05
4.967695E+03	2.560923E-04	1.513062E-05
4.977650E+03	2.553976E-04	1.505438E-05
4.987606E+03	2.547257E-04	1.498160E-05
4.997561E+03	2.539897E-04	1.490706E-05
5.007516E+03	2.532780E-04	1.483584E-05
5.017472E+03	2.525477E-04	1.476531E-05
5.027427E+03	2.517563E-04	1.469289E-05
5.037382E+03	2.509914E-04	1.462359E-05
5.047337E+03	2.501675E-04	1.455232E-05
5.057293E+03	2.493716E-04	1.448405E-05
5.067248E+03	2.485185E-04	1.441373E-05
5.077203E+03	2.476948E-04	1.434629E-05
5.087159E+03	2.468159E-04	1.427674E-05
5.097114E+03	2.459678E-04	1.420997E-05
5.107069E+03	2.450663E-04	1.414102E-05
5.117025E+03	2.441967E-04	1.407475E-05
5.126980E+03	2.432758E-04	1.400627E-05
5.136935E+03	2.423880E-04	1.394038E-05
5.146890E+03	2.414507E-04	1.387223E-05
5.156846E+03	2.405477E-04	1.380659E-05
5.166801E+03	2.395969E-04	1.373868E-05
5.176756E+03	2.386816E-04	1.367320E-05
5.186712E+03	2.377203E-04	1.360544E-05
5.196667E+03	2.367549E-04	1.353773E-05
5.206622E+03	2.358265E-04	1.347238E-05
5.216578E+03	2.348547E-04	1.340474E-05
5.226533E+03	2.339210E-04	1.333941E-05
5.236488E+03	2.329455E-04	1.327180E-05
5.246443E+03	2.320090E-04	1.320647E-05
5.256399E+03	2.310323E-04	1.313888E-05
5.266354E+03	2.300561E-04	1.307130E-05
5.276309E+03	2.291202E-04	1.300598E-05
5.286265E+03	2.281466E-04	1.293843E-05
5.296220E+03	2.272141E-04	1.287313E-05
5.306175E+03	2.262453E-04	1.280564E-05
5.316131E+03	2.253185E-04	1.274039E-05
5.326086E+03	2.243568E-04	1.267300E-05
5.336041E+03	2.233995E-04	1.260569E-05
5.345996E+03	2.224854E-04	1.254062E-05
5.355952E+03	2.215384E-04	1.247350E-05
5.365907E+03	2.205975E-04	1.240650E-05
5.375862E+03	2.197007E-04	1.234176E-05
5.385818E+03	2.187730E-04	1.227506E-05
5.395773E+03	2.178901E-04	1.221064E-05
5.405728E+03	2.169776E-04	1.214432E-05
5.415684E+03	2.160734E-04	1.207823E-05
5.425639E+03	2.152149E-04	1.201446E-05
5.435594E+03	2.143286E-04	1.194890E-05
5.445549E+03	2.134519E-04	1.188363E-05
5.455505E+03	2.126219E-04	1.182068E-05
5.465460E+03	2.117656E-04	1.175595E-05
5.475415E+03	2.109202E-04	1.169146E-05
5.485371E+03	2.101220E-04	1.162920E-05
5.495326E+03	2.092992E-04	1.156513E-05
5.505281E+03	2.084884E-04	1.150125E-05
5.515237E+03	2.076899E-04	1.143754E-05
5.525192E+03	2.069396E-04	1.137594E-05
5.535147E+03	2.061667E-04	1.131252E-05
5.545102E+03	2.054071E-04	1.124924E-05
5.555058E+03	2.046965E-04	1.118801E-05
5.565013E+03	2.039647E-04	1.112497E-05
5.574968E+03	2.032474E-04	1.106204E-05
5.584924E+03	2.025449E-04	1.099922E-05
5.594879E+03	2.018921E-04	1.093837E-05
5.604834E+03	2.012200E-04	1.087574E-05
5.614790E+03	2.005636E-04	1.081321E-05
5.624745E+03	1.999234E-04	1.075078E-05
5.634700E+03	1.993337E-04	1.069027E-05
5.644655E+03	1.987264E-04	1.062802E-05
5.654611E+03	1.981360E-04	1.056588E-05
5.664566E+03	1.975630E-04	1.050384E-05
5.674521E+03	1.970412E-04	1.044370E-05
5.684477E+03	1.965035E-04	1.038188E-05
5.694432E+03	1.959840E-04	1.032018E-05
5.704387E+03	1.954828E-04	1.025862E-05
5.714343E+03	1.950337E-04	1.019895E-05
5.724298E+03	1.945702E-04	1.013767E-05
5.734253E+03	1.941259E-04	1.007656E-05
5.744209E+03	1.937012E-04	1.001564E-05
5.754164E+03	1.932962E-04	9.954904E-06
5.764119E+03	1.929445E-04	9.896079E-06
5.774074E+03	1.925799E-04	9.835776E-06
5.784030E+03	1.922361E-04	9.775723E-06
5.793985E+03	1.919131E-04	9.715937E-06
5.803940E+03	1.916114E-04	9.656443E-06
5.813896E+03	1.913311E-04	9.597261E-06
5.823851E+03	1.911053E-04	9.540051E-06
5.833806E+03	1.908688E-04	9.481563E-06
5.843762E+03	1.906547E-04	9.423467E-06
5.853717E+03	1.904632E-04	9.365796E-06
5.863672E+03	1.902945E-04	9.308579E-06
5.873627E+03	1.901491E-04	9.251852E-06
5.883583E+03	1.900272E-04	9.195648E-06
5.893538E+03	1.899616E-04	9.141573E-06
5.903493E+03	1.898875E-04	9.086524E-06
5.913449E+03	1.898378E-04	9.032120E-06
5.923404E+03	1.898128E-04	8.978406E-06
5.933359E+03	1.898128E-04	8.925429E-06
5.943315E+03	1.898380E-04	8.873237E-06
5.953270E+03	1.898889E-04	8.821884E-06
5.963225E+03	1.899658E-04	8.771426E-06
5.973180E+03	1.900688E-04	8.721920E-06
5.983136E+03	1.902310E-04	8.674912E-06
5.993091E+03	1.903875E-04	8.627490E-06
6.003046E+03	1.905712E-04	8.581215E-06
6.013002E+03	1.907824E-04	8.536160E-06
6.022957E+03	1.910215E-04	8.492396E-06
6.032912E+03	1.912887E-04	8.450006E-06
6.042868E+03	1.915843E-04	8.409071E-06
6.052823E+03	1.919088E-04	8.369678E-06
6.062778E+03	1.922623E-04	8.331918E-06
6.072733E+03	1.926453E-04	8.295887E-06
6.082689E+03	1.930580E-04	8.261684E-06
6.092644E+03	1.935007E-04	8.229413E-06
6.102599E+03	1.939736E-04	8.199180E-06
6.112555E+03	1.944773E-04	8.171101E-06
6.122510E+03	1.950117E-04	8.145289E-06
6.132465E+03	1.955773E-04	8.121868E-06
6.142421E+03	1.961743E-04	8.100962E-06
6.152376E+03	1.968029E-04	8.082699E-06
6.162331E+03	1.974633E-04	8.067215E-06
6.172286E+03	1.981557E-04	8.054643E-06
6.182242E+03	1.988801E-04	8.045122E-06
6.192197E+03	1.996369E-04	8.038797E-06
6.202152E+03	2.004258E-04	8.035809E-06
6.212108E+03	2.012471E-04	8.036306E-06
6.222063E+03	2.021006E-04	8.040432E-06
6.232018E+03	2.029863E-04	8.048337E-06
6.241974E+03	2.039039E-04	8.060166E-06
6.251929E+03	2.048528E-04	8.076047E-06
6.261884E+03	2.058322E-04	8.096021E-06
6.271839E+03	2.068407E-04	8.120045E-06
6.281795E+03	2.078770E-04	8.148072E-06
6.291750E+03	2.089399E-04	8.180051E-06
6.301705E+03	2.100280E-04	8.215927E-06
6.311661E+03	2.111397E-04	8.255641E-06
6.321616E+03	2.122736E-04	8.299133E-06
6.331571E+03	2.134282E-04	8.346334E-06
6.341527E+03	2.146017E-04	8.397177E-06
6.351482E+03	2.157926E-04	8.451587E-06
6.361437E+03	2.169991E-04	8.509491E-06
6.371392E+03	2.182194E-04	8.570806E-06
6.381348E+03	2.194517E-04	8.635452E-06
6.391303E+03	2.206941E-04	8.703342E-06
6.401258E+03	2.219447E-04	8.774388E-06
6.411214E+03	2.232016E-04	8.848496E-06
6.421169E+03	2.244242E-04	8.924043E-06
6.431124E+03	2.256873E-04	9.003978E-06
6.441080E+03	2.269505E-04	9.086685E-06
6.451035E+03	2.282119E-04	9.172061E-06
6.460990E+03	2.294693E-04	9.260005E-06
6.470945E+03	2.307207E-04	9.350412E-06
6.480901E+03	2.319640E-04	9.443178E-06
6.490856E+03	2.331974E-04	9.538203E-06
6.500811E+03	2.344190E-04	9.635381E-06
6.510767E+03	2.356269E-04	9.734611E-06
6.520722E+03	2.367788E-04	9.834110E-06
6.530677E+03	2.379541E-04	9.937135E-06
6.540633E+03	2.391110E-04	1.004193E-05
6.550588E+03	2.402487E-04	1.014842E-05
6.560543E+03	2.413664E-04	1.025649E-05
6.570498E+03	2.424638E-04	1.036598E-05
6.580454E+03	2.435405E-04	1.047672E-05
6.590409E+03	2.445541E-04	1.058674E-05
6.600364E+03	2.455881E-04	1.069950E-05
6.610320E+03	2.466003E-04	1.081303E-05
6.620275E+03	2.475904E-04	1.092718E-05
6.630230E+03	2.485584E-04	1.104179E-05
6.640186E+03	2.495037E-04	1.115670E-05
6.650141E+03	2.503835E-04	1.126984E-05
6.660096E+03	2.512830E-04	1.138489E-05
6.670051E+03	2.521595E-04	1.149978E-05
6.680007E+03	2.530126E-04	1.161436E-05
6.689962E+03	2.538422E-04	1.172850E-05
6.699917E+03	2.546483E-04	1.184205E-05
6.709873E+03	2.553867E-04	1.195281E-05
6.719828E+03	2.561450E-04	1.206472E-05
6.729783E+03	2.568792E-04	1.217563E-05
6.739739E+03	2.575893E-04	1.228539E-05
6.749694E+03	2.582751E-04	1.239388E-05
6.759649E+03	2.588923E-04	1.249883E-05
6.769604E+03	2.595293E-04	1.260438E-05
6.779560E+03	2.601418E-04	1.270829E-05
6.789515E+03	2.607298E-04	1.281043E-05
6.799470E+03	2.612932E-04	1.291071E-05
6.809426E+03	2.617871E-04	1.300677E-05
6.819381E+03	2.623012E-04	1.310295E-05
6.829336E+03	2.627905E-04	1.319695E-05
6.839292E+03	2.632552E-04	1.328865E-05
6.849247E+03	2.636499E-04	1.337568E-05
6.859202E+03	2.640651E-04	1.346251E-05
6.869157E+03	2.644556E-04	1.354677E-05
6.879113E+03	2.648214E-04	1.362838E-05
6.889068E+03	2.651171E-04	1.370492E-05
6.899023E+03	2.654337E-04	1.378098E-05
6.908979E+03	2.657257E-04	1.385417E-05
6.918934E+03	2.659932E-04	1.392441E-05
6.928889E+03	2.661906E-04	1.398923E-05
6.938845E+03	2.664093E-04	1.405337E-05
6.948800E+03	2.666037E-04	1.411438E-05
6.958755E+03	2.667739E-04	1.417220E-05
6.968710E+03	2.668742E-04	1.422434E-05
6.978666E+03	2.669964E-04	1.427562E-05
6.988621E+03	2.670946E-04	1.432358E-05
6.998576E+03	2.671233E-04	1.436570E-05
7.008532E+03	2.671742E-04	1.440688E-05
7.018487E+03	2.672016E-04	1.444463E-05
7.028442E+03	2.672057E-04	1.447891E-05
7.038398E+03	2.671407E-04	1.450721E-05
7.048353E+03	2.670985E-04	1.453449E-05
7.058308E+03	2.670334E-04	1.455824E-05
7.068263E+03	2.668999E-04	1.457594E-05
7.078219E+03	2.667896E-04	1.459260E-05
7.088174E+03	2.666569E-04	1.460569E-05
7.098129E+03	2.664563E-04	1.461271E-05
7.108085E+03	2.662796E-04	1.461868E-05
7.118040E+03	2.660809E-04	1.462109E-05
7.127995E+03	2.658608E-04	1.461995E-05
7.137951E+03	2.655736E-04	1.461275E-05
7.147906E+03	2.653109E-04	1.460454E-05
7.157861E+03	2.650272E-04	1.459282E-05
7.167817E+03	2.646774E-04	1.457511E-05
7.177772E+03	2.643525E-04	1.455644E-05
7.187727E+03	2.639620E-04	1.453183E-05
7.197682E+03	2.635968E-04	1.450632E-05
7.207638E+03	2.632117E-04	1.447743E-05
7.217593E+03	2.627620E-04	1.444273E-05
7.227548E+03	2.623381E-04	1.440723E-05
7.237504E+03	2.618951E-04	1.436847E-05
7.247459E+03	2.613883E-04	1.432405E-05
7.257414E+03	2.609078E-04	1.427895E-05
7.267370E+03	2.604091E-04	1.423075E-05
7.277325E+03	2.598475E-04	1.417707E-05
7.287280E+03	2.593128E-04	1.412287E-05
7.297235E+03	2.587605E-04	1.406574E-05
7.307191E+03	2.581465E-04	1.400337E-05
7.317146E+03	2.575599E-04	1.394063E-05
7.327101E+03	2.569123E-04	1.387281E-05
7.337057E+03	2.562924E-04	1.380476E-05
7.347012E+03	2.556562E-04	1.373417E-05
7.356967E+03	2.549601E-04	1.365877E-05
7.366923E+03	2.542922E-04	1.358336E-05
7.376878E+03	2.535652E-04	1.350334E-05
7.386833E+03	2.528666E-04	1.342348E-05
7.396788E+03	2.521531E-04	1.334152E-05
7.406744E+03	2.513816E-04	1.325530E-05
7.416699E+03	2.506391E-04	1.316949E-05
7.426654E+03	2.498394E-04	1.307965E-05
7.436610E+03	2.490688E-04	1.299042E-05
7.446565E+03	2.482419E-04	1.289742E-05
7.456520E+03	2.474444E-04	1.280523E-05
7.466476E+03	2.466339E-04	1.271173E-05
7.476431E+03	2.457682E-04	1.261488E-05
7.486386E+03	2.449322E-04	1.251917E-05
7.496341E+03	2.440419E-04	1.242041E-05
7.506297E+03	2.431817E-04	1.232302E-05
7.516252E+03	2.422679E-04	1.222289E-05
7.526207E+03	2.413844E-04	1.212439E-05
7.536163E+03	2.404895E-04	1.202554E-05
7.546118E+03	2.395423E-04	1.192444E-05
7.556073E+03	2.386256E-04	1.182537E-05
7.566029E+03	2.376574E-04	1.172441E-05
7.575984E+03	2.367199E-04	1.162577E-05
7.585939E+03	2.357317E-04	1.152558E-05
7.595894E+03	2.347743E-04	1.142801E-05
7.605850E+03	2.337670E-04	1.132928E-05
7.615805E+03	2.327907E-04	1.123348E-05
7.625760E+03	2.317652E-04	1.113689E-05
7.635716E+03	2.307707E-04	1.104356E-05
7.645671E+03	2.297280E-04	1.094984E-05
7.655626E+03	2.287163E-04	1.085970E-05
7.665582E+03	2.276571E-04	1.076956E-05
7.675537E+03	2.266290E-04	1.068335E-05
7.685492E+03	2.255930E-04	1.059937E-05
7.695447E+03	2.245104E-04	1.051600E-05
7.705403E+03	2.234591E-04	1.043706E-05
7.715358E+03	2.223620E-04	1.035912E-05
7.725313E+03	2.212961E-04	1.028595E-05
