#wls	flux	fluxerr
1.592848E+03	2.885720E-05	8.519711E-06
1.632669E+03	2.963064E-05	8.696927E-06
1.672491E+03	3.043207E-05	8.878675E-06
1.712312E+03	3.126827E-05	9.066693E-06
1.752133E+03	3.212941E-05	9.257861E-06
1.791954E+03	3.302223E-05	9.453876E-06
1.831775E+03	3.394807E-05	9.654842E-06
1.871597E+03	3.491465E-05	9.862645E-06
1.911418E+03	3.591106E-05	1.007388E-05
1.951239E+03	3.695162E-05	1.029223E-05
1.991060E+03	3.803172E-05	1.051605E-05
2.030881E+03	3.914606E-05	1.074351E-05
2.070703E+03	4.031027E-05	1.097851E-05
2.110524E+03	4.151947E-05	1.121929E-05
2.150345E+03	4.277565E-05	1.146594E-05
2.190166E+03	4.408092E-05	1.171856E-05
2.229987E+03	4.543744E-05	1.197724E-05
2.269809E+03	4.684754E-05	1.224206E-05
2.309630E+03	4.831362E-05	1.251311E-05
2.349451E+03	4.984706E-05	1.279273E-05
2.389272E+03	5.143299E-05	1.307647E-05
2.429093E+03	5.309223E-05	1.336899E-05
2.468915E+03	5.480906E-05	1.366562E-05
2.508736E+03	5.660564E-05	1.397119E-05
2.548557E+03	5.846533E-05	1.428079E-05
2.588378E+03	6.041178E-05	1.459943E-05
2.628199E+03	6.243833E-05	1.492457E-05
2.668021E+03	6.454850E-05	1.525615E-05
2.707842E+03	6.674590E-05	1.559408E-05
2.747663E+03	6.903431E-05	1.593822E-05
2.787484E+03	7.141758E-05	1.628841E-05
2.827305E+03	7.389966E-05	1.664444E-05
2.867127E+03	7.648456E-05	1.700602E-05
2.906948E+03	7.917647E-05	1.737287E-05
2.946769E+03	8.199401E-05	1.774773E-05
2.986590E+03	8.491303E-05	1.812397E-05
2.996546E+03	8.566131E-05	1.821867E-05
3.006501E+03	8.641715E-05	1.831360E-05
3.016456E+03	8.719594E-05	1.841200E-05
3.026411E+03	8.796722E-05	1.850740E-05
3.036367E+03	8.874621E-05	1.860300E-05
3.046322E+03	8.953306E-05	1.869881E-05
3.056277E+03	9.032777E-05	1.879481E-05
3.066233E+03	9.113043E-05	1.889099E-05
3.076188E+03	9.194107E-05	1.898732E-05
3.086143E+03	9.275981E-05	1.908382E-05
3.096099E+03	9.360316E-05	1.918383E-05
3.106054E+03	9.443838E-05	1.928062E-05
3.116009E+03	9.528189E-05	1.937752E-05
3.125964E+03	9.613374E-05	1.947454E-05
3.135920E+03	9.699398E-05	1.957165E-05
3.145875E+03	9.786267E-05	1.966883E-05
3.155830E+03	9.873992E-05	1.976608E-05
3.165786E+03	9.964322E-05	1.986687E-05
3.175741E+03	1.005378E-04	1.996423E-05
3.185696E+03	1.014411E-04	2.006160E-05
3.195652E+03	1.023533E-04	2.015898E-05
3.205607E+03	1.032742E-04	2.025634E-05
3.215562E+03	1.042039E-04	2.035367E-05
3.225517E+03	1.051611E-04	2.045454E-05
3.235473E+03	1.061090E-04	2.055179E-05
3.245428E+03	1.070660E-04	2.064895E-05
3.255383E+03	1.080320E-04	2.074600E-05
3.265339E+03	1.090072E-04	2.084294E-05
3.275294E+03	1.099916E-04	2.093973E-05
3.285249E+03	1.110047E-04	2.104005E-05
3.295205E+03	1.120078E-04	2.113652E-05
3.305160E+03	1.130203E-04	2.123279E-05
3.315115E+03	1.140422E-04	2.132883E-05
3.325070E+03	1.150735E-04	2.142463E-05
3.335026E+03	1.161346E-04	2.152392E-05
3.344981E+03	1.171851E-04	2.161917E-05
3.354936E+03	1.182452E-04	2.171410E-05
3.364892E+03	1.193148E-04	2.180870E-05
3.374847E+03	1.203941E-04	2.190293E-05
3.384802E+03	1.215043E-04	2.200060E-05
3.394758E+03	1.226031E-04	2.209403E-05
3.404713E+03	1.237116E-04	2.218702E-05
3.414668E+03	1.248299E-04	2.227953E-05
3.424623E+03	1.259579E-04	2.237154E-05
3.434579E+03	1.271179E-04	2.246695E-05
3.444534E+03	1.282657E-04	2.255789E-05
3.454489E+03	1.294232E-04	2.264825E-05
3.464445E+03	1.305907E-04	2.273798E-05
3.474400E+03	1.317909E-04	2.283106E-05
3.484355E+03	1.329781E-04	2.291948E-05
3.494311E+03	1.341752E-04	2.300719E-05
3.504266E+03	1.353822E-04	2.309416E-05
3.514221E+03	1.365989E-04	2.318035E-05
3.524176E+03	1.378495E-04	2.326979E-05
3.534132E+03	1.390860E-04	2.335433E-05
3.544087E+03	1.403324E-04	2.343800E-05
3.554042E+03	1.415885E-04	2.352076E-05
3.563998E+03	1.428791E-04	2.360666E-05
3.573953E+03	1.441549E-04	2.368749E-05
3.583908E+03	1.454403E-04	2.376729E-05
3.593864E+03	1.467353E-04	2.384604E-05
3.603819E+03	1.480399E-04	2.392368E-05
3.613774E+03	1.493800E-04	2.400435E-05
3.623729E+03	1.507038E-04	2.407969E-05
3.633685E+03	1.520371E-04	2.415380E-05
3.643640E+03	1.533797E-04	2.422666E-05
3.653595E+03	1.547584E-04	2.430244E-05
3.663551E+03	1.561198E-04	2.437268E-05
3.673506E+03	1.574902E-04	2.444153E-05
3.683461E+03	1.588697E-04	2.450896E-05
3.693417E+03	1.602859E-04	2.457918E-05
3.703372E+03	1.616834E-04	2.464365E-05
3.713327E+03	1.630896E-04	2.470657E-05
3.723282E+03	1.645045E-04	2.476789E-05
3.733238E+03	1.659279E-04	2.482758E-05
3.743193E+03	1.673886E-04	2.488989E-05
3.753148E+03	1.688288E-04	2.494618E-05
3.763104E+03	1.702772E-04	2.500070E-05
3.773059E+03	1.717335E-04	2.505340E-05
3.783014E+03	1.732275E-04	2.510858E-05
3.792970E+03	1.746996E-04	2.515753E-05
3.802925E+03	1.761790E-04	2.520453E-05
3.812880E+03	1.776658E-04	2.524953E-05
3.822835E+03	1.791597E-04	2.529249E-05
3.832791E+03	1.806917E-04	2.533775E-05
3.842746E+03	1.821995E-04	2.537650E-05
3.852701E+03	1.837137E-04	2.541308E-05
3.862657E+03	1.852343E-04	2.544744E-05
3.872612E+03	1.867932E-04	2.548394E-05
3.882567E+03	1.883259E-04	2.551372E-05
3.892523E+03	1.898642E-04	2.554116E-05
3.902478E+03	1.914078E-04	2.556620E-05
3.912433E+03	1.929565E-04	2.558881E-05
3.922388E+03	1.945435E-04	2.561335E-05
3.932344E+03	1.961018E-04	2.563095E-05
3.942299E+03	1.976642E-04	2.564598E-05
3.952254E+03	1.992306E-04	2.565840E-05
3.962210E+03	2.008007E-04	2.566818E-05
3.972165E+03	2.024088E-04	2.567969E-05
3.982120E+03	2.039854E-04	2.568405E-05
3.992076E+03	2.055645E-04	2.568565E-05
4.002031E+03	2.071459E-04	2.568445E-05
4.011986E+03	2.087293E-04	2.568041E-05
4.021941E+03	2.103504E-04	2.567792E-05
4.031897E+03	2.119367E-04	2.566810E-05
4.041852E+03	2.135238E-04	2.565535E-05
4.051807E+03	2.151113E-04	2.563962E-05
4.061763E+03	2.166988E-04	2.562090E-05
4.071718E+03	2.183234E-04	2.560356E-05
4.081673E+03	2.199098E-04	2.557876E-05
4.091629E+03	2.214948E-04	2.555089E-05
4.101584E+03	2.230782E-04	2.551991E-05
4.111539E+03	2.246592E-04	2.548582E-05
4.121494E+03	2.262376E-04	2.544860E-05
4.131450E+03	2.278520E-04	2.541259E-05
4.141405E+03	2.294238E-04	2.536903E-05
4.151360E+03	2.309914E-04	2.532230E-05
4.161316E+03	2.325543E-04	2.527238E-05
4.171271E+03	2.341121E-04	2.521926E-05
4.181226E+03	2.356640E-04	2.516294E-05
4.191182E+03	2.372098E-04	2.510343E-05
4.201137E+03	2.387897E-04	2.504502E-05
4.211092E+03	2.403214E-04	2.497909E-05
4.221047E+03	2.418453E-04	2.490999E-05
4.231003E+03	2.433605E-04	2.483770E-05
4.240958E+03	2.448667E-04	2.476226E-05
4.250913E+03	2.463632E-04	2.468366E-05
4.260869E+03	2.478494E-04	2.460194E-05
4.270824E+03	2.493674E-04	2.452133E-05
4.280779E+03	2.508313E-04	2.443342E-05
4.290735E+03	2.522831E-04	2.434247E-05
4.300690E+03	2.537221E-04	2.424852E-05
4.310645E+03	2.551476E-04	2.415160E-05
4.320601E+03	2.565591E-04	2.405176E-05
4.330556E+03	2.579558E-04	2.394905E-05
4.340511E+03	2.593370E-04	2.384351E-05
4.350466E+03	2.607023E-04	2.373521E-05
4.360422E+03	2.620507E-04	2.362421E-05
4.370377E+03	2.634268E-04	2.351458E-05
4.380332E+03	2.647399E-04	2.339835E-05
4.390288E+03	2.660342E-04	2.327963E-05
4.400243E+03	2.673090E-04	2.315848E-05
4.410198E+03	2.685636E-04	2.303501E-05
4.420154E+03	2.697972E-04	2.290929E-05
4.430109E+03	2.710093E-04	2.278143E-05
4.440064E+03	2.721990E-04	2.265151E-05
4.450019E+03	2.733657E-04	2.251965E-05
4.459975E+03	2.745085E-04	2.238595E-05
4.469930E+03	2.756269E-04	2.225052E-05
4.479885E+03	2.767201E-04	2.211348E-05
4.489841E+03	2.777873E-04	2.197496E-05
4.499796E+03	2.788278E-04	2.183507E-05
4.509751E+03	2.798409E-04	2.169395E-05
4.519707E+03	2.808259E-04	2.155174E-05
4.529662E+03	2.817819E-04	2.140857E-05
4.539617E+03	2.827083E-04	2.126459E-05
4.549572E+03	2.836044E-04	2.111994E-05
4.559528E+03	2.844693E-04	2.097478E-05
4.569483E+03	2.853022E-04	2.082925E-05
4.579438E+03	2.861026E-04	2.068353E-05
4.589394E+03	2.868696E-04	2.053775E-05
4.599349E+03	2.876024E-04	2.039210E-05
4.609304E+03	2.883002E-04	2.024672E-05
4.619260E+03	2.889624E-04	2.010180E-05
4.629215E+03	2.895880E-04	1.995748E-05
4.639170E+03	2.901764E-04	1.981395E-05
4.649125E+03	2.907267E-04	1.967136E-05
4.659081E+03	2.912382E-04	1.952989E-05
4.669036E+03	2.917100E-04	1.938970E-05
4.678991E+03	2.921413E-04	1.925095E-05
4.688947E+03	2.925313E-04	1.911381E-05
4.698902E+03	2.928793E-04	1.897843E-05
4.708857E+03	2.931346E-04	1.884178E-05
4.718813E+03	2.933960E-04	1.871043E-05
4.728768E+03	2.936130E-04	1.858130E-05
4.738723E+03	2.937849E-04	1.845455E-05
4.748678E+03	2.939111E-04	1.833032E-05
4.758634E+03	2.939913E-04	1.820877E-05
4.768589E+03	2.940253E-04	1.809005E-05
4.778544E+03	2.940131E-04	1.797430E-05
4.788500E+03	2.939552E-04	1.786154E-05
4.798455E+03	2.938026E-04	1.774871E-05
4.808410E+03	2.936560E-04	1.764182E-05
4.818366E+03	2.934665E-04	1.753780E-05
4.828321E+03	2.932350E-04	1.743659E-05
4.838276E+03	2.929628E-04	1.733813E-05
4.848231E+03	2.926507E-04	1.724235E-05
4.858187E+03	2.922503E-04	1.714626E-05
4.868142E+03	2.918619E-04	1.705562E-05
4.878097E+03	2.914369E-04	1.696741E-05
4.888053E+03	2.909763E-04	1.688153E-05
4.898008E+03	2.904812E-04	1.679788E-05
4.907963E+03	2.899033E-04	1.671352E-05
4.917919E+03	2.893422E-04	1.663403E-05
4.927874E+03	2.887496E-04	1.655645E-05
4.937829E+03	2.881265E-04	1.648066E-05
4.947784E+03	2.874740E-04	1.640655E-05
4.957740E+03	2.867443E-04	1.633124E-05
4.967695E+03	2.860358E-04	1.626015E-05
4.977650E+03	2.853008E-04	1.619041E-05
4.987606E+03	2.845402E-04	1.612190E-05
4.997561E+03	2.837069E-04	1.605178E-05
5.007516E+03	2.828983E-04	1.598541E-05
5.017472E+03	2.820669E-04	1.591993E-05
5.027427E+03	2.812138E-04	1.585526E-05
5.037382E+03	2.802925E-04	1.578862E-05
5.047337E+03	2.793990E-04	1.572527E-05
5.057293E+03	2.784865E-04	1.566243E-05
5.067248E+03	2.775091E-04	1.559739E-05
5.077203E+03	2.765618E-04	1.553534E-05
5.087159E+03	2.755983E-04	1.547356E-05
5.097114E+03	2.745731E-04	1.540937E-05
5.107069E+03	2.735802E-04	1.534792E-05
5.117025E+03	2.725738E-04	1.528654E-05
5.126980E+03	2.715090E-04	1.522258E-05
5.136935E+03	2.704786E-04	1.516117E-05
5.146890E+03	2.694374E-04	1.509965E-05
5.156846E+03	2.683409E-04	1.503545E-05
5.166801E+03	2.672808E-04	1.497362E-05
5.176756E+03	2.662124E-04	1.491157E-05
5.186712E+03	2.650919E-04	1.484677E-05
5.196667E+03	2.640097E-04	1.478422E-05
5.206622E+03	2.628773E-04	1.471888E-05
5.216578E+03	2.617846E-04	1.465574E-05
5.226533E+03	2.606878E-04	1.459227E-05
5.236488E+03	2.595436E-04	1.452601E-05
5.246443E+03	2.584409E-04	1.446189E-05
5.256399E+03	2.572929E-04	1.439500E-05
5.266354E+03	2.561875E-04	1.433023E-05
5.276309E+03	2.550386E-04	1.426272E-05
5.286265E+03	2.539334E-04	1.419731E-05
5.296220E+03	2.527865E-04	1.412921E-05
5.306175E+03	2.516844E-04	1.406322E-05
5.316131E+03	2.505847E-04	1.399696E-05
5.326086E+03	2.494461E-04	1.392811E-05
5.336041E+03	2.483535E-04	1.386139E-05
5.345996E+03	2.472238E-04	1.379214E-05
5.355952E+03	2.461410E-04	1.372506E-05
5.365907E+03	2.450226E-04	1.365553E-05
5.375862E+03	2.439521E-04	1.358820E-05
5.385818E+03	2.428476E-04	1.351851E-05
5.395773E+03	2.417916E-04	1.345107E-05
5.405728E+03	2.407032E-04	1.338135E-05
5.415684E+03	2.396237E-04	1.331169E-05
5.425639E+03	2.385939E-04	1.324433E-05
5.435594E+03	2.375338E-04	1.317485E-05
5.445549E+03	2.365240E-04	1.310772E-05
5.455505E+03	2.354851E-04	1.303849E-05
5.465460E+03	2.344973E-04	1.297153E-05
5.475415E+03	2.334818E-04	1.290243E-05
5.485371E+03	2.325179E-04	1.283553E-05
5.495326E+03	2.315275E-04	1.276646E-05
5.505281E+03	2.305505E-04	1.269739E-05
5.515237E+03	2.296261E-04	1.263041E-05
5.525192E+03	2.286772E-04	1.256124E-05
5.535147E+03	2.277815E-04	1.249412E-05
5.545102E+03	2.268625E-04	1.242481E-05
5.555058E+03	2.259592E-04	1.235541E-05
5.565013E+03	2.251099E-04	1.228797E-05
5.574968E+03	2.242391E-04	1.221835E-05
5.584924E+03	2.233853E-04	1.214860E-05
5.594879E+03	2.225862E-04	1.208077E-05
5.604834E+03	2.217672E-04	1.201076E-05
5.614790E+03	2.209663E-04	1.194062E-05
5.624745E+03	2.202210E-04	1.187234E-05
5.634700E+03	2.194572E-04	1.180192E-05
5.644655E+03	2.187127E-04	1.173136E-05
5.654611E+03	2.180244E-04	1.166263E-05
5.664566E+03	2.173192E-04	1.159180E-05
5.674521E+03	2.166342E-04	1.152084E-05
5.684477E+03	2.160061E-04	1.145169E-05
5.694432E+03	2.153625E-04	1.138050E-05
5.704387E+03	2.147402E-04	1.130920E-05
5.714343E+03	2.141395E-04	1.123782E-05
5.724298E+03	2.135967E-04	1.116825E-05
5.734253E+03	2.130401E-04	1.109672E-05
5.744209E+03	2.125062E-04	1.102515E-05
5.754164E+03	2.119952E-04	1.095355E-05
5.764119E+03	2.115432E-04	1.088378E-05
5.774074E+03	2.110792E-04	1.081217E-05
5.784030E+03	2.106392E-04	1.074060E-05
5.793985E+03	2.102235E-04	1.066909E-05
5.803940E+03	2.098679E-04	1.059945E-05
5.813896E+03	2.095020E-04	1.052813E-05
5.823851E+03	2.091615E-04	1.045695E-05
5.833806E+03	2.088469E-04	1.038595E-05
5.843762E+03	2.085584E-04	1.031516E-05
5.853717E+03	2.083316E-04	1.024633E-05
5.863672E+03	2.080966E-04	1.017605E-05
5.873627E+03	2.078889E-04	1.010610E-05
5.883583E+03	2.077090E-04	1.003651E-05
5.893538E+03	2.075572E-04	9.967341E-06
5.903493E+03	2.074339E-04	9.898627E-06
5.913449E+03	2.073745E-04	9.832080E-06
5.923404E+03	2.073096E-04	9.764435E-06
5.933359E+03	2.072745E-04	9.697415E-06
5.943315E+03	2.072696E-04	9.631080E-06
5.953270E+03	2.072954E-04	9.565496E-06
5.963225E+03	2.073524E-04	9.500730E-06
5.973180E+03	2.074410E-04	9.436857E-06
5.983136E+03	2.075967E-04	9.375528E-06
5.993091E+03	2.077499E-04	9.313659E-06
6.003046E+03	2.079363E-04	9.252928E-06
6.013002E+03	2.081562E-04	9.193421E-06
6.022957E+03	2.084102E-04	9.135238E-06
6.032912E+03	2.086988E-04	9.078478E-06
6.042868E+03	2.090224E-04	9.023249E-06
6.052823E+03	2.093817E-04	8.969664E-06
6.062778E+03	2.097771E-04	8.917841E-06
6.072733E+03	2.102092E-04	8.867906E-06
6.082689E+03	2.106785E-04	8.819993E-06
6.092644E+03	2.111856E-04	8.774238E-06
6.102599E+03	2.117310E-04	8.730790E-06
6.112555E+03	2.123153E-04	8.689801E-06
6.122510E+03	2.129747E-04	8.652884E-06
6.132465E+03	2.136384E-04	8.617291E-06
6.142421E+03	2.143426E-04	8.584660E-06
6.152376E+03	2.150878E-04	8.555171E-06
6.162331E+03	2.158745E-04	8.529013E-06
6.172286E+03	2.167032E-04	8.506379E-06
6.182242E+03	2.175743E-04	8.487471E-06
6.192197E+03	2.184882E-04	8.472494E-06
6.202152E+03	2.194453E-04	8.461658E-06
6.212108E+03	2.204456E-04	8.455173E-06
6.222063E+03	2.214895E-04	8.453256E-06
6.232018E+03	2.225769E-04	8.456117E-06
6.241974E+03	2.236699E-04	8.462550E-06
6.251929E+03	2.248432E-04	8.475601E-06
6.261884E+03	2.260582E-04	8.493993E-06
6.271839E+03	2.273135E-04	8.517717E-06
6.281795E+03	2.286073E-04	8.546721E-06
6.291750E+03	2.299381E-04	8.580951E-06
6.301705E+03	2.313039E-04	8.620347E-06
6.311661E+03	2.327030E-04	8.664844E-06
6.321616E+03	2.341334E-04	8.714371E-06
6.331571E+03	2.355932E-04	8.768854E-06
6.341527E+03	2.370802E-04	8.828213E-06
6.351482E+03	2.385923E-04	8.892365E-06
6.361437E+03	2.401273E-04	8.961221E-06
6.371392E+03	2.416829E-04	9.034685E-06
6.381348E+03	2.432567E-04	9.112661E-06
6.391303E+03	2.448051E-04	9.193498E-06
6.401258E+03	2.464076E-04	9.280168E-06
6.411214E+03	2.480207E-04	9.371024E-06
6.421169E+03	2.496418E-04	9.465952E-06
6.431124E+03	2.512680E-04	9.564830E-06
6.441080E+03	2.528966E-04	9.667532E-06
6.451035E+03	2.545247E-04	9.773929E-06
6.460990E+03	2.561493E-04	9.883889E-06
6.470945E+03	2.577243E-04	9.995597E-06
6.480901E+03	2.593331E-04	1.011226E-05
6.490856E+03	2.609299E-04	1.023207E-05
6.500811E+03	2.625120E-04	1.035491E-05
6.510767E+03	2.640769E-04	1.048065E-05
6.520722E+03	2.656223E-04	1.060916E-05
6.530677E+03	2.671014E-04	1.073852E-05
6.540633E+03	2.686019E-04	1.087223E-05
6.550588E+03	2.700780E-04	1.100840E-05
6.560543E+03	2.715287E-04	1.114695E-05
6.570498E+03	2.729536E-04	1.128769E-05
6.580454E+03	2.743060E-04	1.142848E-05
6.590409E+03	2.756777E-04	1.157293E-05
6.600364E+03	2.770223E-04	1.171892E-05
6.610320E+03	2.783395E-04	1.186624E-05
6.620275E+03	2.796289E-04	1.201466E-05
6.630230E+03	2.808430E-04	1.216192E-05
6.640186E+03	2.820757E-04	1.231188E-05
6.650141E+03	2.832796E-04	1.246229E-05
6.660096E+03	2.844545E-04	1.261294E-05
6.670051E+03	2.855520E-04	1.276148E-05
6.680007E+03	2.866679E-04	1.291196E-05
6.689962E+03	2.877539E-04	1.306206E-05
6.699917E+03	2.888098E-04	1.321157E-05
6.709873E+03	2.897865E-04	1.335806E-05
6.719828E+03	2.907814E-04	1.350579E-05
6.729783E+03	2.917456E-04	1.365234E-05
6.739739E+03	2.926788E-04	1.379755E-05
6.749694E+03	2.935314E-04	1.393886E-05
6.759649E+03	2.944021E-04	1.408078E-05
6.769604E+03	2.952414E-04	1.422081E-05
6.779560E+03	2.960491E-04	1.435878E-05
6.789515E+03	2.967751E-04	1.449208E-05
6.799470E+03	2.975192E-04	1.462541E-05
6.809426E+03	2.982314E-04	1.475621E-05
6.819381E+03	2.988614E-04	1.488181E-05
6.829336E+03	2.995095E-04	1.500706E-05
6.839292E+03	3.001256E-04	1.512934E-05
6.849247E+03	3.006590E-04	1.524594E-05
6.859202E+03	3.012108E-04	1.536186E-05
6.869157E+03	3.017305E-04	1.547441E-05
6.879113E+03	3.021672E-04	1.558086E-05
6.889068E+03	3.026226E-04	1.568633E-05
6.899023E+03	3.030459E-04	1.578809E-05
6.908979E+03	3.033862E-04	1.588337E-05
6.918934E+03	3.037456E-04	1.597741E-05
6.928889E+03	3.040731E-04	1.606746E-05
6.938845E+03	3.043176E-04	1.615070E-05
6.948800E+03	3.045816E-04	1.623248E-05
6.958755E+03	3.048141E-04	1.631002E-05
6.968710E+03	3.049638E-04	1.638049E-05
6.978666E+03	3.051336E-04	1.644933E-05
6.988621E+03	3.052207E-04	1.651093E-05
6.998576E+03	3.053284E-04	1.657082E-05
7.008532E+03	3.054052E-04	1.662615E-05
7.018487E+03	3.053999E-04	1.667408E-05
7.028442E+03	3.054158E-04	1.672017E-05
7.038398E+03	3.054014E-04	1.676158E-05
7.048353E+03	3.053055E-04	1.679546E-05
7.058308E+03	3.052313E-04	1.682743E-05
7.068263E+03	3.050761E-04	1.685181E-05
7.078219E+03	3.049430E-04	1.687425E-05
7.088174E+03	3.047295E-04	1.688907E-05
7.098129E+03	3.045386E-04	1.690194E-05
7.108085E+03	3.043192E-04	1.691002E-05
7.118040E+03	3.040202E-04	1.691045E-05
7.127995E+03	3.037446E-04	1.690896E-05
7.137951E+03	3.033901E-04	1.689985E-05
7.147906E+03	3.030594E-04	1.688884E-05
7.157861E+03	3.026505E-04	1.687025E-05
7.167817E+03	3.022659E-04	1.684980E-05
7.177772E+03	3.018549E-04	1.682468E-05
7.187727E+03	3.013668E-04	1.679209E-05
7.197682E+03	3.009038E-04	1.675774E-05
7.207638E+03	3.003645E-04	1.671600E-05
7.217593E+03	2.998508E-04	1.667259E-05
7.227548E+03	2.992617E-04	1.662192E-05
7.237504E+03	2.986987E-04	1.656966E-05
7.247459E+03	2.980612E-04	1.651028E-05
7.257414E+03	2.974503E-04	1.644944E-05
7.267370E+03	2.967657E-04	1.638162E-05
7.277325E+03	2.961083E-04	1.631246E-05
7.287280E+03	2.953781E-04	1.623652E-05
7.297235E+03	2.946756E-04	1.615938E-05
7.307191E+03	2.939013E-04	1.607564E-05
7.317146E+03	2.931551E-04	1.599086E-05
7.327101E+03	2.923381E-04	1.589971E-05
7.337057E+03	2.915497E-04	1.580769E-05
7.347012E+03	2.906915E-04	1.570954E-05
7.356967E+03	2.898624E-04	1.561071E-05
7.366923E+03	2.889645E-04	1.550600E-05
7.376878E+03	2.880961E-04	1.540081E-05
7.386833E+03	2.871600E-04	1.529004E-05
7.396788E+03	2.862054E-04	1.517643E-05
7.406744E+03	2.852810E-04	1.506267E-05
7.416699E+03	2.842904E-04	1.494379E-05
7.426654E+03	2.833304E-04	1.482501E-05
7.436610E+03	2.823054E-04	1.470143E-05
7.446565E+03	2.813114E-04	1.457821E-05
7.456520E+03	2.802534E-04	1.445056E-05
7.466476E+03	2.792268E-04	1.432355E-05
7.476431E+03	2.781373E-04	1.419248E-05
7.486386E+03	2.770327E-04	1.405998E-05
7.496341E+03	2.759601E-04	1.392858E-05
7.506297E+03	2.748262E-04	1.379373E-05
7.516252E+03	2.737247E-04	1.366031E-05
7.526207E+03	2.725630E-04	1.352388E-05
7.536163E+03	2.713880E-04	1.338697E-05
7.546118E+03	2.702459E-04	1.325204E-05
7.556073E+03	2.690453E-04	1.311479E-05
7.566029E+03	2.678778E-04	1.297990E-05
7.575984E+03	2.666529E-04	1.284318E-05
7.585939E+03	2.654166E-04	1.270709E-05
7.595894E+03	2.642138E-04	1.257398E-05
7.605850E+03	2.629553E-04	1.243982E-05
7.615805E+03	2.616863E-04	1.230701E-05
7.625760E+03	2.604514E-04	1.217786E-05
7.635716E+03	2.591623E-04	1.204848E-05
7.645671E+03	2.579075E-04	1.192324E-05
7.655626E+03	2.565996E-04	1.179833E-05
7.665582E+03	2.552830E-04	1.167608E-05
7.675537E+03	2.540009E-04	1.155869E-05
7.685492E+03	2.526673E-04	1.144252E-05
7.695447E+03	2.513259E-04	1.132980E-05
7.705403E+03	2.500194E-04	1.122273E-05
7.715358E+03	2.486630E-04	1.111773E-05
7.725313E+03	2.472996E-04	1.101701E-05
