#wls	flux	fluxerr
1.584409E+03	6.945044E-18	2.229463E-18
1.624020E+03	7.236372E-18	2.314593E-18
1.663630E+03	7.526653E-18	2.398538E-18
1.703240E+03	7.813834E-18	2.480628E-18
1.742850E+03	8.096088E-18	2.560273E-18
1.782461E+03	8.369022E-18	2.636084E-18
1.822071E+03	8.622535E-18	2.704907E-18
1.861681E+03	8.847723E-18	2.764010E-18
1.901291E+03	9.031764E-18	2.809498E-18
1.940902E+03	9.162173E-18	2.837650E-18
1.980512E+03	9.231368E-18	2.846334E-18
2.020122E+03	9.247301E-18	2.838235E-18
2.059732E+03	9.242884E-18	2.823629E-18
2.099342E+03	9.280312E-18	2.821510E-18
2.138953E+03	9.438644E-18	2.855609E-18
2.178563E+03	9.775885E-18	2.942829E-18
2.218173E+03	1.030330E-17	3.085704E-18
2.257783E+03	1.098572E-17	3.272826E-18
2.297394E+03	1.176542E-17	3.486302E-18
2.337004E+03	1.258811E-17	3.709598E-18
2.376614E+03	1.341495E-17	3.931045E-18
2.416224E+03	1.422314E-17	4.143913E-18
2.455835E+03	1.500385E-17	4.345660E-18
2.495445E+03	1.575373E-17	4.535393E-18
2.535055E+03	1.647446E-17	4.713687E-18
2.574665E+03	1.716733E-17	4.880999E-18
2.614276E+03	1.783457E-17	5.038045E-18
2.653886E+03	1.847680E-17	5.185076E-18
2.693496E+03	1.909407E-17	5.322194E-18
2.733106E+03	1.968585E-17	5.449333E-18
2.772716E+03	2.025038E-17	5.566105E-18
2.812327E+03	2.078545E-17	5.672017E-18
2.851937E+03	2.128959E-17	5.766800E-18
2.891547E+03	2.175984E-17	5.849800E-18
2.931157E+03	2.219568E-17	5.921053E-18
2.970768E+03	2.259465E-17	5.980086E-18
2.980670E+03	2.268908E-17	5.993077E-18
2.990573E+03	2.278077E-17	6.005203E-18
3.000475E+03	2.286962E-17	6.016446E-18
3.010378E+03	2.295662E-17	6.027066E-18
3.020280E+03	2.304113E-17	6.036902E-18
3.030183E+03	2.312310E-17	6.045939E-18
3.040086E+03	2.320320E-17	6.054360E-18
3.049988E+03	2.328180E-17	6.062263E-18
3.059891E+03	2.335976E-17	6.069873E-18
3.069793E+03	2.343765E-17	6.077339E-18
3.079696E+03	2.351413E-17	6.084313E-18
3.089598E+03	2.358932E-17	6.090833E-18
3.099501E+03	2.366245E-17	6.096696E-18
3.109403E+03	2.373462E-17	6.102193E-18
3.119306E+03	2.380413E-17	6.106884E-18
3.129209E+03	2.387121E-17	6.110835E-18
3.139111E+03	2.393604E-17	6.114098E-18
3.149014E+03	2.399842E-17	6.116624E-18
3.158916E+03	2.405721E-17	6.118128E-18
3.168819E+03	2.411358E-17	6.118910E-18
3.178721E+03	2.416647E-17	6.118706E-18
3.188624E+03	2.421612E-17	6.117585E-18
3.198526E+03	2.426195E-17	6.115407E-18
3.208429E+03	2.430428E-17	6.112254E-18
3.218332E+03	2.434294E-17	6.108096E-18
3.228234E+03	2.437785E-17	6.102912E-18
3.238137E+03	2.440845E-17	6.096574E-18
3.248039E+03	2.443508E-17	6.089173E-18
3.257942E+03	2.445765E-17	6.080694E-18
3.267844E+03	2.447567E-17	6.071023E-18
3.277747E+03	2.448949E-17	6.060251E-18
3.287650E+03	2.449864E-17	6.048274E-18
3.297552E+03	2.450347E-17	6.035187E-18
3.307455E+03	2.450357E-17	6.020891E-18
3.317357E+03	2.449889E-17	6.005390E-18
3.327260E+03	2.448941E-17	5.988684E-18
3.337162E+03	2.447514E-17	5.970783E-18
3.347065E+03	2.445603E-17	5.951688E-18
3.356967E+03	2.443176E-17	5.931324E-18
3.366870E+03	2.440267E-17	5.909792E-18
3.376773E+03	2.436810E-17	5.886933E-18
3.386675E+03	2.432875E-17	5.862931E-18
3.396578E+03	2.428397E-17	5.837636E-18
3.406480E+03	2.423382E-17	5.811073E-18
3.416383E+03	2.417833E-17	5.783265E-18
3.426285E+03	2.411726E-17	5.754156E-18
3.436188E+03	2.405097E-17	5.723850E-18
3.446090E+03	2.397924E-17	5.692301E-18
3.455993E+03	2.390181E-17	5.659460E-18
3.465896E+03	2.381879E-17	5.625362E-18
3.475798E+03	2.372998E-17	5.589974E-18
3.485701E+03	2.363578E-17	5.553398E-18
3.495603E+03	2.353542E-17	5.515466E-18
3.505506E+03	2.342934E-17	5.476292E-18
3.515408E+03	2.331737E-17	5.435850E-18
3.525311E+03	2.319968E-17	5.394188E-18
3.535213E+03	2.307585E-17	5.351222E-18
3.545116E+03	2.294578E-17	5.306941E-18
3.555019E+03	2.280993E-17	5.261466E-18
3.564921E+03	2.266770E-17	5.214666E-18
3.574824E+03	2.251955E-17	5.166662E-18
3.584726E+03	2.236543E-17	5.117453E-18
3.594629E+03	2.220504E-17	5.066985E-18
3.604531E+03	2.203838E-17	5.015271E-18
3.614434E+03	2.186570E-17	4.962377E-18
3.624337E+03	2.168677E-17	4.908267E-18
3.634239E+03	2.150209E-17	4.853063E-18
3.644142E+03	2.131122E-17	4.796681E-18
3.654044E+03	2.111444E-17	4.739196E-18
3.663947E+03	2.091183E-17	4.680637E-18
3.673849E+03	2.070367E-17	4.621078E-18
3.683752E+03	2.048982E-17	4.560500E-18
3.693654E+03	2.027059E-17	4.498984E-18
3.703557E+03	2.004608E-17	4.436564E-18
3.713460E+03	1.981658E-17	4.373314E-18
3.723362E+03	1.958222E-17	4.309274E-18
3.733265E+03	1.934329E-17	4.244516E-18
3.743167E+03	1.909990E-17	4.179078E-18
3.753070E+03	1.885220E-17	4.112995E-18
3.762972E+03	1.860085E-17	4.046425E-18
3.772875E+03	1.834559E-17	3.979320E-18
3.782777E+03	1.808692E-17	3.911795E-18
3.792680E+03	1.782531E-17	3.843957E-18
3.802583E+03	1.756069E-17	3.775799E-18
3.812485E+03	1.729336E-17	3.707394E-18
3.822388E+03	1.702378E-17	3.638841E-18
3.832290E+03	1.675219E-17	3.570202E-18
3.842193E+03	1.647887E-17	3.501538E-18
3.852095E+03	1.620393E-17	3.432877E-18
3.861998E+03	1.592777E-17	3.364306E-18
3.871900E+03	1.565063E-17	3.295881E-18
3.881803E+03	1.537275E-17	3.227652E-18
3.891706E+03	1.509436E-17	3.159672E-18
3.901608E+03	1.481569E-17	3.091989E-18
3.911511E+03	1.453707E-17	3.024673E-18
3.921413E+03	1.425872E-17	2.957770E-18
3.931316E+03	1.398070E-17	2.891292E-18
3.941218E+03	1.370347E-17	2.825333E-18
3.951121E+03	1.342707E-17	2.759900E-18
3.961024E+03	1.315179E-17	2.695055E-18
3.970926E+03	1.287780E-17	2.630826E-18
3.980829E+03	1.260515E-17	2.567221E-18
3.990731E+03	1.233421E-17	2.504316E-18
4.000634E+03	1.206501E-17	2.442113E-18
4.010536E+03	1.179780E-17	2.380658E-18
4.020439E+03	1.153270E-17	2.319971E-18
4.030341E+03	1.126983E-17	2.260075E-18
4.040244E+03	1.100931E-17	2.200987E-18
4.050147E+03	1.075135E-17	2.142744E-18
4.060049E+03	1.049594E-17	2.085342E-18
4.069952E+03	1.024320E-17	2.028796E-18
4.079854E+03	9.993381E-18	1.973152E-18
4.089757E+03	9.746407E-18	1.918390E-18
4.099659E+03	9.502425E-18	1.864533E-18
4.109562E+03	9.261537E-18	1.811592E-18
4.119464E+03	9.023800E-18	1.759572E-18
4.129367E+03	8.789298E-18	1.708482E-18
4.139270E+03	8.558113E-18	1.658330E-18
4.149172E+03	8.330302E-18	1.609120E-18
4.159075E+03	8.105930E-18	1.560857E-18
4.168977E+03	7.885062E-18	1.513547E-18
4.178880E+03	7.667735E-18	1.467188E-18
4.188782E+03	7.453939E-18	1.421772E-18
4.198685E+03	7.243720E-18	1.377299E-18
4.208587E+03	7.037174E-18	1.333782E-18
4.218490E+03	6.834334E-18	1.291218E-18
4.228393E+03	6.635109E-18	1.249582E-18
4.238295E+03	6.439585E-18	1.208885E-18
4.248198E+03	6.247781E-18	1.169122E-18
4.258100E+03	6.059713E-18	1.130288E-18
4.268003E+03	5.875392E-18	1.092380E-18
4.277905E+03	5.694772E-18	1.055380E-18
4.287808E+03	5.517959E-18	1.019301E-18
4.297711E+03	5.344850E-18	9.841178E-19
4.307613E+03	5.175537E-18	9.498392E-19
4.317516E+03	5.010005E-18	9.164558E-19
4.327418E+03	4.848279E-18	8.839651E-19
4.337321E+03	4.690337E-18	8.523557E-19
4.347223E+03	4.536191E-18	8.216231E-19
4.357126E+03	4.385822E-18	7.917568E-19
4.367028E+03	4.239293E-18	7.627611E-19
4.376931E+03	4.096579E-18	7.346249E-19
4.386834E+03	3.957652E-18	7.073358E-19
4.396736E+03	3.822546E-18	6.808932E-19
4.406639E+03	3.691216E-18	6.552824E-19
4.416541E+03	3.563647E-18	6.304936E-19
4.426444E+03	3.439846E-18	6.065216E-19
4.436346E+03	3.319721E-18	5.833433E-19
4.446249E+03	3.203266E-18	5.609511E-19
4.456151E+03	3.090441E-18	5.393315E-19
4.466054E+03	2.981170E-18	5.184649E-19
4.475957E+03	2.875405E-18	4.983364E-19
4.485859E+03	2.773092E-18	4.789307E-19
4.495762E+03	2.674174E-18	4.602318E-19
4.505664E+03	2.578592E-18	4.422234E-19
4.515567E+03	2.486257E-18	4.248845E-19
4.525469E+03	2.397084E-18	4.081948E-19
4.535372E+03	2.311053E-18	3.921452E-19
4.545274E+03	2.228050E-18	3.767112E-19
4.555177E+03	2.147989E-18	3.618725E-19
4.565080E+03	2.070820E-18	3.476160E-19
4.574982E+03	1.996475E-18	3.339246E-19
4.584885E+03	1.924826E-18	3.207723E-19
4.594787E+03	1.855862E-18	3.081522E-19
4.604690E+03	1.789438E-18	2.960361E-19
4.614592E+03	1.725525E-18	2.844141E-19
4.624495E+03	1.664036E-18	2.732677E-19
4.634398E+03	1.604888E-18	2.625790E-19
4.644300E+03	1.547998E-18	2.523304E-19
4.654203E+03	1.493289E-18	2.425051E-19
4.664105E+03	1.440712E-18	2.330915E-19
4.674008E+03	1.390175E-18	2.240709E-19
4.683910E+03	1.341604E-18	2.154278E-19
4.693813E+03	1.294941E-18	2.071492E-19
4.703715E+03	1.250090E-18	1.992166E-19
4.713618E+03	1.207021E-18	1.916221E-19
4.723521E+03	1.165632E-18	1.843460E-19
4.733423E+03	1.125883E-18	1.773792E-19
4.743326E+03	1.087713E-18	1.707092E-19
4.753228E+03	1.051039E-18	1.643202E-19
4.763131E+03	1.015817E-18	1.582027E-19
4.773033E+03	9.820013E-19	1.523468E-19
4.782936E+03	9.495183E-19	1.467387E-19
4.792838E+03	9.183275E-19	1.413698E-19
4.802741E+03	8.883786E-19	1.362301E-19
4.812644E+03	8.596155E-19	1.313086E-19
4.822546E+03	8.319935E-19	1.265966E-19
4.832449E+03	8.054759E-19	1.220863E-19
4.842351E+03	7.800133E-19	1.177684E-19
4.852254E+03	7.555718E-19	1.136358E-19
4.862156E+03	7.320975E-19	1.096786E-19
4.872059E+03	7.095603E-19	1.058906E-19
4.881961E+03	6.879243E-19	1.022647E-19
4.891864E+03	6.671481E-19	9.879323E-20
4.901767E+03	6.472049E-19	9.547069E-20
4.911669E+03	6.280564E-19	9.228993E-20
4.921572E+03	6.096782E-19	8.924596E-20
4.931474E+03	5.920350E-19	8.633226E-20
4.941377E+03	5.750981E-19	8.354333E-20
4.951279E+03	5.588348E-19	8.087322E-20
4.961182E+03	5.432313E-19	7.831870E-20
4.971085E+03	5.282515E-19	7.587344E-20
4.980987E+03	5.138710E-19	7.353283E-20
4.990890E+03	5.000730E-19	7.129344E-20
5.000792E+03	4.868305E-19	6.915039E-20
5.010695E+03	4.741229E-19	6.709982E-20
5.020597E+03	4.619296E-19	6.513787E-20
5.030500E+03	4.502323E-19	6.326109E-20
5.040402E+03	4.390081E-19	6.146542E-20
5.050305E+03	4.282393E-19	5.974757E-20
5.060208E+03	4.179137E-19	5.810509E-20
5.070110E+03	4.080073E-19	5.653388E-20
5.080013E+03	3.985134E-19	5.503234E-20
5.089915E+03	3.894050E-19	5.359604E-20
5.099818E+03	3.806767E-19	5.222362E-20
5.109720E+03	3.723115E-19	5.091212E-20
5.119623E+03	3.642968E-19	4.965926E-20
5.129525E+03	3.566208E-19	4.846286E-20
5.139428E+03	3.492685E-19	4.732037E-20
5.149331E+03	3.422295E-19	4.622985E-20
5.159233E+03	3.354900E-19	4.518900E-20
5.169136E+03	3.290474E-19	4.419698E-20
5.179038E+03	3.228823E-19	4.325078E-20
5.188941E+03	3.169895E-19	4.234930E-20
5.198843E+03	3.113609E-19	4.149106E-20
5.208746E+03	3.059887E-19	4.067465E-20
5.218648E+03	3.008594E-19	3.989793E-20
5.228551E+03	2.959692E-19	3.916010E-20
5.238454E+03	2.913087E-19	3.845958E-20
5.248356E+03	2.868720E-19	3.779531E-20
5.258259E+03	2.826502E-19	3.716587E-20
5.268161E+03	2.786412E-19	3.657071E-20
5.278064E+03	2.748344E-19	3.600819E-20
5.287966E+03	2.712251E-19	3.547751E-20
5.297869E+03	2.678064E-19	3.497755E-20
5.307772E+03	2.645772E-19	3.450797E-20
5.317674E+03	2.615258E-19	3.406710E-20
5.327577E+03	2.586518E-19	3.365470E-20
5.337479E+03	2.559496E-19	3.326991E-20
5.347382E+03	2.534140E-19	3.291192E-20
5.357284E+03	2.510351E-19	3.257934E-20
5.367187E+03	2.488085E-19	3.227150E-20
5.377089E+03	2.467296E-19	3.198771E-20
5.386992E+03	2.447841E-19	3.172603E-20
5.396895E+03	2.429675E-19	3.148573E-20
5.406797E+03	2.412680E-19	3.126511E-20
5.416700E+03	2.396789E-19	3.106317E-20
5.426602E+03	2.382061E-19	3.088050E-20
5.436505E+03	2.368455E-19	3.071646E-20
5.446407E+03	2.356024E-19	3.057159E-20
5.456310E+03	2.344751E-19	3.044559E-20
5.466212E+03	2.334692E-19	3.033908E-20
5.476115E+03	2.325783E-19	3.025115E-20
5.486018E+03	2.318036E-19	3.018186E-20
5.495920E+03	2.311415E-19	3.013070E-20
5.505823E+03	2.305958E-19	3.009809E-20
5.515725E+03	2.301608E-19	3.008328E-20
5.525628E+03	2.298361E-19	3.008614E-20
5.535530E+03	2.296189E-19	3.010629E-20
5.545433E+03	2.295111E-19	3.014397E-20
5.555335E+03	2.295079E-19	3.019854E-20
5.565238E+03	2.296094E-19	3.027001E-20
5.575141E+03	2.298158E-19	3.035840E-20
5.585043E+03	2.301251E-19	3.046347E-20
5.594946E+03	2.305376E-19	3.058529E-20
5.604848E+03	2.310494E-19	3.072335E-20
5.614751E+03	2.316611E-19	3.087776E-20
5.624653E+03	2.323737E-19	3.104871E-20
5.634556E+03	2.331857E-19	3.123603E-20
5.644459E+03	2.340959E-19	3.143962E-20
5.654361E+03	2.351031E-19	3.165937E-20
5.664264E+03	2.362113E-19	3.189587E-20
5.674166E+03	2.374143E-19	3.214838E-20
5.684069E+03	2.387165E-19	3.241754E-20
5.693971E+03	2.401171E-19	3.270332E-20
5.703874E+03	2.416128E-19	3.300536E-20
5.713776E+03	2.432055E-19	3.332401E-20
5.723679E+03	2.448973E-19	3.365964E-20
5.733582E+03	2.466853E-19	3.401195E-20
5.743484E+03	2.485689E-19	3.438094E-20
5.753387E+03	2.505532E-19	3.476745E-20
5.763289E+03	2.526324E-19	3.517077E-20
5.773192E+03	2.548093E-19	3.559139E-20
5.783094E+03	2.570835E-19	3.602937E-20
5.792997E+03	2.594549E-19	3.648482E-20
5.802899E+03	2.619262E-19	3.695825E-20
5.812802E+03	2.644918E-19	3.744897E-20
5.822705E+03	2.671573E-19	3.795792E-20
5.832607E+03	2.699197E-19	3.848480E-20
5.842510E+03	2.727791E-19	3.902975E-20
5.852412E+03	2.757353E-19	3.959288E-20
5.862315E+03	2.787884E-19	4.017434E-20
5.872217E+03	2.819415E-19	4.077472E-20
5.882120E+03	2.851882E-19	4.139323E-20
5.892022E+03	2.885282E-19	4.202997E-20
5.901925E+03	2.919647E-19	4.268555E-20
5.911828E+03	2.954976E-19	4.336008E-20
5.921730E+03	2.991197E-19	4.405268E-20
5.931633E+03	3.028375E-19	4.476445E-20
5.941535E+03	3.066402E-19	4.549390E-20
5.951438E+03	3.105378E-19	4.624268E-20
5.961340E+03	3.145188E-19	4.700922E-20
5.971243E+03	3.185822E-19	4.779353E-20
5.981146E+03	3.227310E-19	4.859614E-20
5.991048E+03	3.269600E-19	4.941647E-20
6.000951E+03	3.312682E-19	5.025446E-20
6.010853E+03	3.356461E-19	5.110881E-20
6.020756E+03	3.400999E-19	5.198060E-20
6.030658E+03	3.446156E-19	5.286780E-20
6.040561E+03	3.491992E-19	5.377144E-20
6.050463E+03	3.538442E-19	5.469065E-20
6.060366E+03	3.585439E-19	5.562449E-20
6.070269E+03	3.632953E-19	5.657258E-20
6.080171E+03	3.680997E-19	5.753525E-20
6.090074E+03	3.729497E-19	5.851143E-20
6.099976E+03	3.778417E-19	5.950061E-20
6.109879E+03	3.827816E-19	6.050386E-20
6.119781E+03	3.877563E-19	6.151916E-20
6.129684E+03	3.927669E-19	6.254676E-20
6.139586E+03	3.978147E-19	6.358696E-20
6.149489E+03	4.029022E-19	6.464024E-20
6.159392E+03	4.080218E-19	6.570543E-20
6.169294E+03	4.131704E-19	6.678216E-20
6.179197E+03	4.183505E-19	6.787087E-20
6.189099E+03	4.235537E-19	6.897027E-20
6.199002E+03	4.287823E-19	7.008081E-20
6.208904E+03	4.340334E-19	7.120206E-20
6.218807E+03	4.393098E-19	7.233458E-20
6.228709E+03	4.446089E-19	7.347800E-20
6.238612E+03	4.499281E-19	7.463195E-20
6.248515E+03	4.552711E-19	7.579713E-20
6.258417E+03	4.606425E-19	7.697432E-20
6.268320E+03	4.660343E-19	7.816224E-20
6.278222E+03	4.714513E-19	7.936166E-20
6.288125E+03	4.768986E-19	8.057346E-20
6.298027E+03	4.823682E-19	8.179630E-20
6.307930E+03	4.878722E-19	8.303224E-20
6.317833E+03	4.934098E-19	8.428114E-20
6.327735E+03	4.989800E-19	8.554287E-20
6.337638E+03	5.045818E-19	8.681725E-20
6.347540E+03	5.102290E-19	8.810668E-20
6.357443E+03	5.159137E-19	8.940983E-20
6.367345E+03	5.216507E-19	9.072931E-20
6.377248E+03	5.274402E-19	9.206517E-20
6.387150E+03	5.332823E-19	9.341747E-20
6.397053E+03	5.391853E-19	9.478773E-20
6.406956E+03	5.451497E-19	9.617610E-20
6.416858E+03	5.511848E-19	9.758426E-20
6.426761E+03	5.572744E-19	9.900941E-20
6.436663E+03	5.634362E-19	1.004548E-19
6.446566E+03	5.696714E-19	1.019206E-19
6.456468E+03	5.759723E-19	1.034056E-19
6.466371E+03	5.823488E-19	1.049116E-19
6.476273E+03	5.888022E-19	1.064390E-19
6.486176E+03	5.953340E-19	1.079880E-19
6.496079E+03	6.019455E-19	1.095590E-19
6.505981E+03	6.086480E-19	1.111541E-19
6.515884E+03	6.154337E-19	1.127721E-19
6.525786E+03	6.223040E-19	1.144131E-19
6.535689E+03	6.292710E-19	1.160797E-19
6.545591E+03	6.363369E-19	1.177722E-19
6.555494E+03	6.434934E-19	1.194892E-19
6.565396E+03	6.507531E-19	1.212332E-19
6.575299E+03	6.581075E-19	1.230026E-19
6.585202E+03	6.655810E-19	1.248022E-19
6.595104E+03	6.731539E-19	1.266285E-19
6.605007E+03	6.808284E-19	1.284818E-19
6.614909E+03	6.886185E-19	1.303649E-19
6.624812E+03	6.965271E-19	1.322786E-19
6.634714E+03	7.045447E-19	1.342211E-19
6.644617E+03	7.126740E-19	1.361930E-19
6.654520E+03	7.209300E-19	1.381974E-19
6.664422E+03	7.293031E-19	1.402326E-19
6.674325E+03	7.378093E-19	1.423016E-19
6.684227E+03	7.464247E-19	1.444001E-19
6.694130E+03	7.551789E-19	1.465339E-19
6.704032E+03	7.640482E-19	1.486986E-19
6.713935E+03	7.730622E-19	1.508999E-19
6.723837E+03	7.821972E-19	1.531334E-19
6.733740E+03	7.914693E-19	1.554024E-19
6.743643E+03	8.008823E-19	1.577078E-19
6.753545E+03	8.104241E-19	1.600473E-19
6.763448E+03	8.201128E-19	1.624245E-19
6.773350E+03	8.299370E-19	1.648375E-19
6.783253E+03	8.399147E-19	1.672898E-19
6.793155E+03	8.500171E-19	1.697760E-19
6.803058E+03	8.602806E-19	1.723032E-19
6.812960E+03	8.706907E-19	1.748689E-19
6.822863E+03	8.812519E-19	1.774740E-19
6.832766E+03	8.919503E-19	1.801159E-19
6.842668E+03	9.028228E-19	1.828021E-19
6.852571E+03	9.138213E-19	1.855231E-19
6.862473E+03	9.250002E-19	1.882899E-19
6.872376E+03	9.363289E-19	1.910965E-19
6.882278E+03	9.478098E-19	1.939435E-19
6.892181E+03	9.594646E-19	1.968355E-19
6.902083E+03	9.712776E-19	1.997695E-19
6.911986E+03	9.832527E-19	2.027462E-19
6.921889E+03	9.953937E-19	2.057666E-19
6.931791E+03	1.007702E-18	2.088311E-19
6.941694E+03	1.020182E-18	2.119409E-19
6.951596E+03	1.032818E-18	2.150926E-19
6.961499E+03	1.045652E-18	2.182952E-19
6.971401E+03	1.058625E-18	2.215366E-19
6.981304E+03	1.071805E-18	2.248309E-19
6.991207E+03	1.085130E-18	2.281655E-19
7.001109E+03	1.098647E-18	2.315501E-19
7.011012E+03	1.112337E-18	2.349810E-19
7.020914E+03	1.126203E-18	2.384588E-19
7.030817E+03	1.140272E-18	2.419894E-19
7.040719E+03	1.154499E-18	2.455635E-19
7.050622E+03	1.168912E-18	2.491871E-19
7.060524E+03	1.183489E-18	2.528555E-19
7.070427E+03	1.198258E-18	2.565747E-19
7.080330E+03	1.213222E-18	2.603456E-19
7.090232E+03	1.228359E-18	2.641636E-19
7.100135E+03	1.243696E-18	2.680346E-19
7.110037E+03	1.259187E-18	2.719487E-19
7.119940E+03	1.274884E-18	2.759171E-19
7.129842E+03	1.290766E-18	2.799356E-19
7.139745E+03	1.306807E-18	2.839985E-19
7.149647E+03	1.323038E-18	2.881124E-19
7.159550E+03	1.339459E-18	2.922780E-19
7.169453E+03	1.356048E-18	2.964897E-19
7.179355E+03	1.372804E-18	3.007480E-19
7.189258E+03	1.389729E-18	3.050533E-19
7.199160E+03	1.406827E-18	3.094062E-19
7.209063E+03	1.424098E-18	3.138070E-19
7.218965E+03	1.441485E-18	3.182430E-19
7.228868E+03	1.459047E-18	3.227275E-19
7.238770E+03	1.476757E-18	3.272542E-19
7.248673E+03	1.494581E-18	3.318159E-19
7.258576E+03	1.512554E-18	3.364200E-19
7.268478E+03	1.530609E-18	3.410521E-19
7.278381E+03	1.548748E-18	3.457117E-19
7.288283E+03	1.566965E-18	3.503984E-19
7.298186E+03	1.585229E-18	3.551044E-19
7.308088E+03	1.603566E-18	3.598358E-19
7.317991E+03	1.621874E-18	3.645694E-19
7.327894E+03	1.640215E-18	3.693192E-19
7.337796E+03	1.658516E-18	3.740682E-19
7.347699E+03	1.676805E-18	3.788229E-19
7.357601E+03	1.695041E-18	3.835738E-19
7.367504E+03	1.713218E-18	3.883191E-19
7.377406E+03	1.731365E-18	3.930653E-19
7.387309E+03	1.749440E-18	3.978025E-19
7.397211E+03	1.767549E-18	4.025549E-19
7.407114E+03	1.785613E-18	4.073042E-19
7.417017E+03	1.803703E-18	4.120665E-19
7.426919E+03	1.821778E-18	4.168319E-19
7.436822E+03	1.839953E-18	4.216272E-19
7.446724E+03	1.858187E-18	4.264425E-19
7.456627E+03	1.876478E-18	4.312776E-19
7.466529E+03	1.894867E-18	4.361415E-19
7.476432E+03	1.913353E-18	4.410341E-19
7.486334E+03	1.932021E-18	4.459751E-19
7.496237E+03	1.950788E-18	4.509451E-19
7.506140E+03	1.969698E-18	4.559542E-19
7.516042E+03	1.988795E-18	4.610131E-19
7.525945E+03	2.008038E-18	4.661120E-19
7.535847E+03	2.027476E-18	4.712620E-19
7.545750E+03	2.047063E-18	4.764531E-19
7.555652E+03	2.066897E-18	4.817075E-19
7.565555E+03	2.086886E-18	4.870043E-19
7.575457E+03	2.107128E-18	4.923663E-19
7.585360E+03	2.127533E-18	4.977724E-19
7.595263E+03	2.148198E-18	5.032453E-19
7.605165E+03	2.169029E-18	5.087632E-19
7.615068E+03	2.190128E-18	5.143503E-19
7.624970E+03	2.211450E-18	5.199956E-19
7.634873E+03	2.232997E-18	5.256997E-19
7.644775E+03	2.254773E-18	5.314638E-19
7.654678E+03	2.276780E-18	5.372883E-19
7.664581E+03	2.299023E-18	5.431746E-19
7.674483E+03	2.321449E-18	5.491101E-19
7.684386E+03	2.344171E-18	5.551215E-19
