#wls	flux	fluxerr
1.584409E+03	1.321222E-17	6.880018E-18
1.624020E+03	1.344915E-17	6.986399E-18
1.663630E+03	1.366379E-17	7.079919E-18
1.703240E+03	1.385351E-17	7.159244E-18
1.742850E+03	1.401641E-17	7.223453E-18
1.782461E+03	1.414659E-17	7.269575E-18
1.822071E+03	1.422941E-17	7.290216E-18
1.861681E+03	1.425375E-17	7.279872E-18
1.901291E+03	1.420358E-17	7.230644E-18
1.940902E+03	1.406519E-17	7.135933E-18
1.980512E+03	1.383382E-17	6.993795E-18
2.020122E+03	1.352824E-17	6.814204E-18
2.059732E+03	1.320138E-17	6.624170E-18
2.099342E+03	1.294227E-17	6.468365E-18
2.138953E+03	1.285464E-17	6.398037E-18
2.178563E+03	1.300444E-17	6.444815E-18
2.218173E+03	1.339051E-17	6.606546E-18
2.257783E+03	1.395252E-17	6.851932E-18
2.297394E+03	1.460735E-17	7.138991E-18
2.337004E+03	1.528345E-17	7.432094E-18
2.376614E+03	1.593392E-17	7.708213E-18
2.416224E+03	1.653482E-17	7.955843E-18
2.455835E+03	1.708031E-17	8.172405E-18
2.495445E+03	1.757141E-17	8.358668E-18
2.535055E+03	1.801474E-17	8.518075E-18
2.574665E+03	1.841624E-17	8.653677E-18
2.614276E+03	1.878251E-17	8.768803E-18
2.653886E+03	1.911817E-17	8.865802E-18
2.693496E+03	1.942712E-17	8.946639E-18
2.733106E+03	1.971247E-17	9.012900E-18
2.772716E+03	1.997610E-17	9.065576E-18
2.812327E+03	2.021936E-17	9.105406E-18
2.851937E+03	2.044433E-17	9.133459E-18
2.891547E+03	2.065157E-17	9.150115E-18
2.931157E+03	2.084401E-17	9.156787E-18
2.970768E+03	2.102250E-17	9.153969E-18
2.980670E+03	2.106573E-17	9.152136E-18
2.990573E+03	2.110793E-17	9.149650E-18
3.000475E+03	2.114906E-17	9.146497E-18
3.010378E+03	2.119005E-17	9.143077E-18
3.020280E+03	2.123042E-17	9.139183E-18
3.030183E+03	2.127009E-17	9.134789E-18
3.040086E+03	2.130979E-17	9.130201E-18
3.049988E+03	2.134986E-17	9.125571E-18
3.059891E+03	2.139113E-17	9.121249E-18
3.069793E+03	2.143417E-17	9.117471E-18
3.079696E+03	2.147778E-17	9.113725E-18
3.089598E+03	2.152214E-17	9.110081E-18
3.099501E+03	2.156655E-17	9.106246E-18
3.109403E+03	2.161205E-17	9.102658E-18
3.119306E+03	2.165718E-17	9.098694E-18
3.129209E+03	2.170214E-17	9.094442E-18
3.139111E+03	2.174717E-17	9.090001E-18
3.149014E+03	2.179210E-17	9.085307E-18
3.158916E+03	2.183597E-17	9.079950E-18
3.168819E+03	2.187987E-17	9.074393E-18
3.178721E+03	2.192285E-17	9.068239E-18
3.188624E+03	2.196519E-17	9.061614E-18
3.198526E+03	2.200642E-17	9.054317E-18
3.208429E+03	2.204683E-17	9.046475E-18
3.218332E+03	2.208634E-17	9.038060E-18
3.228234E+03	2.212486E-17	9.029040E-18
3.238137E+03	2.216197E-17	9.019241E-18
3.248039E+03	2.219799E-17	9.008800E-18
3.257942E+03	2.223285E-17	8.997699E-18
3.267844E+03	2.226617E-17	8.985782E-18
3.277747E+03	2.229825E-17	8.973181E-18
3.287650E+03	2.232873E-17	8.959757E-18
3.297552E+03	2.235793E-17	8.945637E-18
3.307455E+03	2.238548E-17	8.930685E-18
3.317357E+03	2.241138E-17	8.914905E-18
3.327260E+03	2.243563E-17	8.898303E-18
3.337162E+03	2.245822E-17	8.880886E-18
3.347065E+03	2.247916E-17	8.862662E-18
3.356967E+03	2.249812E-17	8.843511E-18
3.366870E+03	2.251547E-17	8.823579E-18
3.376773E+03	2.253054E-17	8.802623E-18
3.386675E+03	2.254403E-17	8.780918E-18
3.396578E+03	2.255532E-17	8.758231E-18
3.406480E+03	2.256445E-17	8.734585E-18
3.416383E+03	2.257144E-17	8.710005E-18
3.426285E+03	2.257607E-17	8.684407E-18
3.436188E+03	2.257865E-17	8.657925E-18
3.446090E+03	2.257895E-17	8.630484E-18
3.455993E+03	2.257671E-17	8.601990E-18
3.465896E+03	2.257200E-17	8.572484E-18
3.475798E+03	2.256461E-17	8.541892E-18
3.485701E+03	2.255487E-17	8.510360E-18
3.495603E+03	2.254202E-17	8.477608E-18
3.505506E+03	2.252642E-17	8.443787E-18
3.515408E+03	2.250786E-17	8.408832E-18
3.525311E+03	2.248646E-17	8.372799E-18
3.535213E+03	2.246175E-17	8.335527E-18
3.545116E+03	2.243357E-17	8.296974E-18
3.555019E+03	2.240230E-17	8.257296E-18
3.564921E+03	2.236725E-17	8.216256E-18
3.574824E+03	2.232881E-17	8.174011E-18
3.584726E+03	2.228686E-17	8.130532E-18
3.594629E+03	2.224098E-17	8.085691E-18
3.604531E+03	2.219110E-17	8.039471E-18
3.614434E+03	2.213733E-17	7.991938E-18
3.624337E+03	2.207933E-17	7.942985E-18
3.634239E+03	2.201750E-17	7.892777E-18
3.644142E+03	2.195128E-17	7.841128E-18
3.654044E+03	2.188080E-17	7.788111E-18
3.663947E+03	2.180602E-17	7.733726E-18
3.673849E+03	2.172708E-17	7.678047E-18
3.683752E+03	2.164370E-17	7.620995E-18
3.693654E+03	2.155605E-17	7.562646E-18
3.703557E+03	2.146406E-17	7.503002E-18
3.713460E+03	2.136792E-17	7.442147E-18
3.723362E+03	2.126755E-17	7.380074E-18
3.733265E+03	2.116315E-17	7.316872E-18
3.743167E+03	2.105465E-17	7.252536E-18
3.753070E+03	2.094202E-17	7.187075E-18
3.762972E+03	2.082583E-17	7.120706E-18
3.772875E+03	2.070564E-17	7.053294E-18
3.782777E+03	2.058180E-17	6.984977E-18
3.792680E+03	2.045466E-17	6.915897E-18
3.802583E+03	2.032399E-17	6.845986E-18
3.812485E+03	2.018993E-17	6.775310E-18
3.822388E+03	2.005283E-17	6.704006E-18
3.832290E+03	1.991283E-17	6.632130E-18
3.842193E+03	1.977004E-17	6.559742E-18
3.852095E+03	1.962445E-17	6.486843E-18
3.861998E+03	1.947633E-17	6.413545E-18
3.871900E+03	1.932583E-17	6.339905E-18
3.881803E+03	1.917308E-17	6.265976E-18
3.891706E+03	1.901817E-17	6.191804E-18
3.901608E+03	1.886123E-17	6.117441E-18
3.911511E+03	1.870254E-17	6.042984E-18
3.921413E+03	1.854219E-17	5.968477E-18
3.931316E+03	1.838012E-17	5.893907E-18
3.941218E+03	1.821677E-17	5.819421E-18
3.951121E+03	1.805204E-17	5.745000E-18
3.961024E+03	1.788620E-17	5.670732E-18
3.970926E+03	1.771932E-17	5.596649E-18
3.980829E+03	1.755134E-17	5.522733E-18
3.990731E+03	1.738263E-17	5.449112E-18
4.000634E+03	1.721312E-17	5.375765E-18
4.010536E+03	1.704303E-17	5.302763E-18
4.020439E+03	1.687242E-17	5.230131E-18
4.030341E+03	1.670135E-17	5.157893E-18
4.040244E+03	1.652989E-17	5.086068E-18
4.050147E+03	1.635824E-17	5.014720E-18
4.060049E+03	1.618631E-17	4.943825E-18
4.069952E+03	1.601414E-17	4.873399E-18
4.079854E+03	1.584209E-17	4.803545E-18
4.089757E+03	1.566991E-17	4.734192E-18
4.099659E+03	1.549777E-17	4.665392E-18
4.109562E+03	1.532574E-17	4.597164E-18
4.119464E+03	1.515386E-17	4.529517E-18
4.129367E+03	1.498215E-17	4.462460E-18
4.139270E+03	1.481066E-17	4.396004E-18
4.149172E+03	1.463943E-17	4.330158E-18
4.159075E+03	1.446850E-17	4.264932E-18
4.168977E+03	1.429788E-17	4.200329E-18
4.178880E+03	1.412763E-17	4.136360E-18
4.188782E+03	1.395765E-17	4.072993E-18
4.198685E+03	1.378797E-17	4.010234E-18
4.208587E+03	1.361873E-17	3.948112E-18
4.218490E+03	1.344997E-17	3.886625E-18
4.228393E+03	1.328146E-17	3.825699E-18
4.238295E+03	1.311335E-17	3.765366E-18
4.248198E+03	1.294566E-17	3.705619E-18
4.258100E+03	1.277840E-17	3.646453E-18
4.268003E+03	1.261160E-17	3.587865E-18
4.277905E+03	1.244516E-17	3.529818E-18
4.287808E+03	1.227932E-17	3.472365E-18
4.297711E+03	1.211386E-17	3.415441E-18
4.307613E+03	1.194901E-17	3.359095E-18
4.317516E+03	1.178475E-17	3.303314E-18
4.327418E+03	1.162117E-17	3.248113E-18
4.337321E+03	1.145824E-17	3.193473E-18
4.347223E+03	1.129601E-17	3.139399E-18
4.357126E+03	1.113442E-17	3.085868E-18
4.367028E+03	1.097362E-17	3.032906E-18
4.376931E+03	1.081350E-17	2.980481E-18
4.386834E+03	1.065400E-17	2.928563E-18
4.396736E+03	1.049523E-17	2.877171E-18
4.406639E+03	1.033707E-17	2.826271E-18
4.416541E+03	1.017953E-17	2.775854E-18
4.426444E+03	1.002270E-17	2.725936E-18
4.436346E+03	9.866400E-18	2.676462E-18
4.446249E+03	9.710722E-18	2.627446E-18
4.456151E+03	9.555685E-18	2.578887E-18
4.466054E+03	9.401195E-18	2.530750E-18
4.475957E+03	9.247283E-18	2.483038E-18
4.485859E+03	9.093965E-18	2.435746E-18
4.495762E+03	8.941271E-18	2.388877E-18
4.505664E+03	8.789222E-18	2.342430E-18
4.515567E+03	8.637769E-18	2.296384E-18
4.525469E+03	8.486874E-18	2.250724E-18
4.535372E+03	8.336739E-18	2.205497E-18
4.545274E+03	8.187256E-18	2.160669E-18
4.555177E+03	8.038395E-18	2.116227E-18
4.565080E+03	7.890291E-18	2.072200E-18
4.574982E+03	7.743006E-18	2.028601E-18
4.584885E+03	7.596380E-18	1.985381E-18
4.594787E+03	7.450698E-18	1.942612E-18
4.604690E+03	7.305750E-18	1.900233E-18
4.614592E+03	7.161756E-18	1.858298E-18
4.624495E+03	7.018727E-18	1.816804E-18
4.634398E+03	6.876687E-18	1.775754E-18
4.644300E+03	6.735657E-18	1.735150E-18
4.654203E+03	6.595681E-18	1.694998E-18
4.664105E+03	6.456929E-18	1.655339E-18
4.674008E+03	6.319396E-18	1.616167E-18
4.683910E+03	6.183138E-18	1.577493E-18
4.693813E+03	6.048289E-18	1.539347E-18
4.703715E+03	5.914802E-18	1.501714E-18
4.713618E+03	5.782934E-18	1.464655E-18
4.723521E+03	5.652592E-18	1.428144E-18
4.733423E+03	5.523974E-18	1.392225E-18
4.743326E+03	5.397165E-18	1.356918E-18
4.753228E+03	5.272125E-18	1.322208E-18
4.763131E+03	5.148991E-18	1.288125E-18
4.773033E+03	5.027890E-18	1.254699E-18
4.782936E+03	4.908774E-18	1.221912E-18
4.792838E+03	4.791771E-18	1.189794E-18
4.802741E+03	4.676923E-18	1.158350E-18
4.812644E+03	4.564245E-18	1.127580E-18
4.822546E+03	4.453780E-18	1.097492E-18
4.832449E+03	4.345614E-18	1.068102E-18
4.842351E+03	4.239733E-18	1.039403E-18
4.852254E+03	4.136217E-18	1.011411E-18
4.862156E+03	4.035000E-18	9.841046E-19
4.872059E+03	3.936149E-18	9.574976E-19
4.881961E+03	3.839678E-18	9.315889E-19
4.891864E+03	3.745553E-18	9.063664E-19
4.901767E+03	3.653826E-18	8.818387E-19
4.911669E+03	3.564460E-18	8.579930E-19
4.921572E+03	3.477490E-18	8.348334E-19
4.931474E+03	3.392874E-18	8.123463E-19
4.941377E+03	3.310604E-18	7.905259E-19
4.951279E+03	3.230637E-18	7.693576E-19
4.961182E+03	3.153025E-18	7.488503E-19
4.971085E+03	3.077685E-18	7.289803E-19
4.980987E+03	3.004601E-18	7.097400E-19
4.990890E+03	2.933781E-18	6.911279E-19
5.000792E+03	2.865173E-18	6.731275E-19
5.010695E+03	2.798753E-18	6.557296E-19
5.020597E+03	2.734493E-18	6.389245E-19
5.030500E+03	2.672369E-18	6.227022E-19
5.040402E+03	2.612323E-18	6.070462E-19
5.050305E+03	2.554327E-18	5.919465E-19
5.060208E+03	2.498379E-18	5.773990E-19
5.070110E+03	2.444397E-18	5.633813E-19
5.080013E+03	2.392401E-18	5.498950E-19
5.089915E+03	2.342286E-18	5.369127E-19
5.099818E+03	2.294072E-18	5.244355E-19
5.109720E+03	2.247704E-18	5.124480E-19
5.119623E+03	2.203152E-18	5.009403E-19
5.129525E+03	2.160386E-18	4.899026E-19
5.139428E+03	2.119355E-18	4.793203E-19
5.149331E+03	2.080031E-18	4.691844E-19
5.159233E+03	2.042366E-18	4.594811E-19
5.169136E+03	2.006374E-18	4.502111E-19
5.179038E+03	1.971968E-18	4.413521E-19
5.188941E+03	1.939143E-18	4.329008E-19
5.198843E+03	1.907875E-18	4.248492E-19
5.208746E+03	1.878142E-18	4.171899E-19
5.218648E+03	1.849882E-18	4.099073E-19
5.228551E+03	1.823096E-18	4.029991E-19
5.238454E+03	1.797746E-18	3.964549E-19
5.248356E+03	1.773815E-18	3.902689E-19
5.258259E+03	1.751267E-18	3.844316E-19
5.268161E+03	1.730107E-18	3.789419E-19
5.278064E+03	1.710287E-18	3.737876E-19
5.287966E+03	1.691793E-18	3.689645E-19
5.297869E+03	1.674601E-18	3.644653E-19
5.307772E+03	1.658719E-18	3.602906E-19
5.317674E+03	1.644090E-18	3.564266E-19
5.327577E+03	1.630726E-18	3.528749E-19
5.337479E+03	1.618607E-18	3.496300E-19
5.347382E+03	1.607715E-18	3.466871E-19
5.357284E+03	1.598003E-18	3.440350E-19
5.367187E+03	1.589457E-18	3.416701E-19
5.377089E+03	1.582063E-18	3.395891E-19
5.386992E+03	1.575748E-18	3.377754E-19
5.396895E+03	1.570501E-18	3.362267E-19
5.406797E+03	1.566265E-18	3.349306E-19
5.416700E+03	1.563016E-18	3.338818E-19
5.426602E+03	1.560804E-18	3.330915E-19
5.436505E+03	1.559620E-18	3.325575E-19
5.446407E+03	1.559514E-18	3.322910E-19
5.456310E+03	1.560504E-18	3.322964E-19
5.466212E+03	1.562656E-18	3.325880E-19
5.476115E+03	1.565956E-18	3.331638E-19
5.486018E+03	1.570438E-18	3.340318E-19
5.495920E+03	1.576105E-18	3.351938E-19
5.505823E+03	1.583010E-18	3.366621E-19
5.515725E+03	1.591141E-18	3.384349E-19
5.525628E+03	1.600513E-18	3.405157E-19
5.535530E+03	1.611129E-18	3.429046E-19
5.545433E+03	1.623022E-18	3.456084E-19
5.555335E+03	1.636176E-18	3.486241E-19
5.565238E+03	1.650611E-18	3.519562E-19
5.575141E+03	1.666350E-18	3.556096E-19
5.585043E+03	1.683400E-18	3.595863E-19
5.594946E+03	1.701786E-18	3.638925E-19
5.604848E+03	1.721500E-18	3.685272E-19
5.614751E+03	1.742573E-18	3.734973E-19
5.624653E+03	1.765035E-18	3.788106E-19
5.634556E+03	1.788901E-18	3.844712E-19
5.644459E+03	1.814188E-18	3.904837E-19
5.654361E+03	1.840913E-18	3.968529E-19
5.664264E+03	1.869134E-18	4.035927E-19
5.674166E+03	1.898832E-18	4.107003E-19
5.684069E+03	1.930069E-18	4.181904E-19
5.693971E+03	1.962867E-18	4.260694E-19
5.703874E+03	1.997229E-18	4.343395E-19
5.713776E+03	2.033202E-18	4.430123E-19
5.723679E+03	2.070832E-18	4.520996E-19
5.733582E+03	2.110125E-18	4.616043E-19
5.743484E+03	2.151106E-18	4.715338E-19
5.753387E+03	2.193851E-18	4.819062E-19
5.763289E+03	2.238339E-18	4.927191E-19
5.773192E+03	2.284623E-18	5.039857E-19
5.783094E+03	2.332732E-18	5.157141E-19
5.792997E+03	2.382694E-18	5.279124E-19
5.802899E+03	2.434562E-18	5.405944E-19
5.812802E+03	2.488312E-18	5.537564E-19
5.822705E+03	2.544025E-18	5.674179E-19
5.832607E+03	2.601699E-18	5.815806E-19
5.842510E+03	2.661358E-18	5.962516E-19
5.852412E+03	2.723027E-18	6.114377E-19
5.862315E+03	2.786726E-18	6.271454E-19
5.872217E+03	2.852509E-18	6.433881E-19
5.882120E+03	2.920328E-18	6.601565E-19
5.892022E+03	2.990199E-18	6.774557E-19
5.901925E+03	3.062165E-18	6.952964E-19
5.911828E+03	3.136240E-18	7.136828E-19
5.921730E+03	3.212355E-18	7.326003E-19
5.931633E+03	3.290588E-18	7.520674E-19
5.941535E+03	3.370817E-18	7.720571E-19
5.951438E+03	3.453153E-18	7.925949E-19
5.961340E+03	3.537465E-18	8.136512E-19
5.971243E+03	3.623732E-18	8.352214E-19
5.981146E+03	3.711972E-18	8.573091E-19
5.991048E+03	3.802114E-18	8.798977E-19
6.000951E+03	3.894114E-18	9.029767E-19
6.010853E+03	3.987841E-18	9.265146E-19
6.020756E+03	4.083332E-18	9.505188E-19
6.030658E+03	4.180386E-18	9.749414E-19
6.040561E+03	4.279033E-18	9.997875E-19
6.050463E+03	4.379144E-18	1.025026E-18
6.060366E+03	4.480587E-18	1.050622E-18
6.070269E+03	4.583268E-18	1.076552E-18
6.080171E+03	4.687150E-18	1.102805E-18
6.090074E+03	4.792068E-18	1.129340E-18
6.099976E+03	4.897915E-18	1.156126E-18
6.109879E+03	5.004706E-18	1.183166E-18
6.119781E+03	5.112199E-18	1.210397E-18
6.129684E+03	5.220344E-18	1.237804E-18
6.139586E+03	5.329082E-18	1.265370E-18
6.149489E+03	5.438376E-18	1.293081E-18
6.159392E+03	5.548041E-18	1.320888E-18
6.169294E+03	5.657956E-18	1.348760E-18
6.179197E+03	5.768076E-18	1.376680E-18
6.189099E+03	5.878215E-18	1.404598E-18
6.199002E+03	5.988319E-18	1.432498E-18
6.208904E+03	6.098282E-18	1.460350E-18
6.218807E+03	6.208056E-18	1.488135E-18
6.228709E+03	6.317528E-18	1.515823E-18
6.238612E+03	6.426587E-18	1.543381E-18
6.248515E+03	6.535197E-18	1.570797E-18
6.258417E+03	6.643341E-18	1.598060E-18
6.268320E+03	6.750817E-18	1.625116E-18
6.278222E+03	6.857609E-18	1.651958E-18
6.288125E+03	6.963703E-18	1.678576E-18
6.298027E+03	7.068912E-18	1.704920E-18
6.307930E+03	7.173326E-18	1.731007E-18
6.317833E+03	7.276866E-18	1.756813E-18
6.327735E+03	7.379445E-18	1.782311E-18
6.337638E+03	7.480978E-18	1.807475E-18
6.347540E+03	7.581598E-18	1.832332E-18
6.357443E+03	7.681132E-18	1.856836E-18
6.367345E+03	7.779725E-18	1.881016E-18
6.377248E+03	7.877323E-18	1.904855E-18
6.387150E+03	7.973862E-18	1.928332E-18
6.397053E+03	8.069415E-18	1.951459E-18
6.406956E+03	8.163933E-18	1.974222E-18
6.416858E+03	8.257486E-18	1.996632E-18
6.426761E+03	8.349791E-18	2.018617E-18
6.436663E+03	8.441055E-18	2.040222E-18
6.446566E+03	8.531244E-18	2.061435E-18
6.456468E+03	8.620190E-18	2.082213E-18
6.466371E+03	8.707999E-18	2.102575E-18
6.476273E+03	8.794644E-18	2.122514E-18
6.486176E+03	8.880090E-18	2.142017E-18
6.496079E+03	8.964325E-18	2.161077E-18
6.505981E+03	9.047467E-18	2.179721E-18
6.515884E+03	9.129360E-18	2.197908E-18
6.525786E+03	9.209983E-18	2.215630E-18
6.535689E+03	9.289482E-18	2.232920E-18
6.545591E+03	9.367842E-18	2.249771E-18
6.555494E+03	9.444903E-18	2.266144E-18
6.565396E+03	9.520818E-18	2.282073E-18
6.575299E+03	9.595432E-18	2.297519E-18
6.585202E+03	9.669057E-18	2.312556E-18
6.595104E+03	9.741379E-18	2.327107E-18
6.605007E+03	9.812394E-18	2.341169E-18
6.614909E+03	9.882272E-18	2.354783E-18
6.624812E+03	9.951027E-18	2.367951E-18
6.634714E+03	1.001850E-17	2.380634E-18
6.644617E+03	1.008468E-17	2.392831E-18
6.654520E+03	1.014977E-17	2.404588E-18
6.664422E+03	1.021361E-17	2.415867E-18
6.674325E+03	1.027638E-17	2.426712E-18
6.684227E+03	1.033774E-17	2.437043E-18
6.694130E+03	1.039806E-17	2.446948E-18
6.704032E+03	1.045700E-17	2.456348E-18
6.713935E+03	1.051496E-17	2.465335E-18
6.723837E+03	1.057155E-17	2.473826E-18
6.733740E+03	1.062701E-17	2.481870E-18
6.743643E+03	1.068134E-17	2.489475E-18
6.753545E+03	1.073438E-17	2.496604E-18
6.763448E+03	1.078635E-17	2.503309E-18
6.773350E+03	1.083707E-17	2.509551E-18
6.783253E+03	1.088676E-17	2.515385E-18
6.793155E+03	1.093505E-17	2.520727E-18
6.803058E+03	1.098237E-17	2.525678E-18
6.812960E+03	1.102852E-17	2.530200E-18
6.822863E+03	1.107357E-17	2.534305E-18
6.832766E+03	1.111730E-17	2.537952E-18
6.842668E+03	1.116017E-17	2.541249E-18
6.852571E+03	1.120158E-17	2.544061E-18
6.862473E+03	1.124218E-17	2.546543E-18
6.872376E+03	1.128160E-17	2.548612E-18
6.882278E+03	1.131984E-17	2.550277E-18
6.892181E+03	1.135717E-17	2.551600E-18
6.902083E+03	1.139339E-17	2.552542E-18
6.911986E+03	1.142854E-17	2.553117E-18
6.921889E+03	1.146264E-17	2.553335E-18
6.931791E+03	1.149574E-17	2.553212E-18
6.941694E+03	1.152785E-17	2.552760E-18
6.951596E+03	1.155879E-17	2.551941E-18
6.961499E+03	1.158905E-17	2.550869E-18
6.971401E+03	1.161798E-17	2.549408E-18
6.981304E+03	1.164629E-17	2.547723E-18
6.991207E+03	1.167334E-17	2.545676E-18
7.001109E+03	1.169962E-17	2.543385E-18
7.011012E+03	1.172492E-17	2.540810E-18
7.020914E+03	1.174930E-17	2.537968E-18
7.030817E+03	1.177301E-17	2.534926E-18
7.040719E+03	1.179563E-17	2.531595E-18
7.050622E+03	1.181742E-17	2.528045E-18
7.060524E+03	1.183819E-17	2.524237E-18
7.070427E+03	1.185821E-17	2.520240E-18
7.080330E+03	1.187752E-17	2.516069E-18
7.090232E+03	1.189591E-17	2.511689E-18
7.100135E+03	1.191366E-17	2.507169E-18
7.110037E+03	1.193033E-17	2.502421E-18
7.119940E+03	1.194645E-17	2.497568E-18
7.129842E+03	1.196181E-17	2.492571E-18
7.139745E+03	1.197619E-17	2.487399E-18
7.149647E+03	1.198989E-17	2.482118E-18
7.159550E+03	1.200294E-17	2.476748E-18
7.169453E+03	1.201514E-17	2.471254E-18
7.179355E+03	1.202653E-17	2.465652E-18
7.189258E+03	1.203714E-17	2.459962E-18
7.199160E+03	1.204701E-17	2.454200E-18
7.209063E+03	1.205618E-17	2.448385E-18
7.218965E+03	1.206420E-17	2.442434E-18
7.228868E+03	1.207160E-17	2.436464E-18
7.238770E+03	1.207818E-17	2.430445E-18
7.248673E+03	1.208371E-17	2.424343E-18
7.258576E+03	1.208850E-17	2.418228E-18
7.268478E+03	1.209207E-17	2.412016E-18
7.278381E+03	1.209446E-17	2.405725E-18
7.288283E+03	1.209572E-17	2.399376E-18
7.298186E+03	1.209563E-17	2.392935E-18
7.308088E+03	1.209447E-17	2.386469E-18
7.317991E+03	1.209152E-17	2.379847E-18
7.327894E+03	1.208733E-17	2.373188E-18
7.337796E+03	1.208142E-17	2.366407E-18
7.347699E+03	1.207409E-17	2.359573E-18
7.357601E+03	1.206511E-17	2.352654E-18
7.367504E+03	1.205452E-17	2.345665E-18
7.377406E+03	1.204260E-17	2.338672E-18
7.387309E+03	1.202913E-17	2.331641E-18
7.397211E+03	1.201490E-17	2.324735E-18
7.407114E+03	1.199945E-17	2.317870E-18
7.417017E+03	1.198331E-17	2.311157E-18
7.426919E+03	1.196624E-17	2.304560E-18
7.436822E+03	1.194905E-17	2.298233E-18
7.446724E+03	1.193150E-17	2.292125E-18
7.456627E+03	1.191362E-17	2.286232E-18
7.466529E+03	1.189569E-17	2.280597E-18
7.476432E+03	1.187772E-17	2.275214E-18
7.486334E+03	1.186025E-17	2.270176E-18
7.496237E+03	1.184277E-17	2.265375E-18
7.506140E+03	1.182553E-17	2.260851E-18
7.516042E+03	1.180882E-17	2.256645E-18
7.525945E+03	1.179236E-17	2.252699E-18
7.535847E+03	1.177641E-17	2.249051E-18
7.545750E+03	1.176074E-17	2.245646E-18
7.555652E+03	1.174585E-17	2.242571E-18
7.565555E+03	1.173123E-17	2.239717E-18
7.575457E+03	1.171740E-17	2.237176E-18
7.585360E+03	1.170382E-17	2.234836E-18
7.595263E+03	1.169104E-17	2.232791E-18
7.605165E+03	1.167853E-17	2.230930E-18
7.615068E+03	1.166681E-17	2.229345E-18
7.624970E+03	1.165563E-17	2.227978E-18
7.634873E+03	1.164497E-17	2.226816E-18
7.644775E+03	1.163485E-17	2.225856E-18
7.654678E+03	1.162527E-17	2.225088E-18
7.664581E+03	1.161622E-17	2.224500E-18
7.674483E+03	1.160743E-17	2.224038E-18
7.684386E+03	1.159946E-17	2.223794E-18
