#wls	flux	fluxerr
1.584409E+03	7.182984E-18	3.199049E-18
1.624020E+03	7.339794E-18	3.254381E-18
1.663630E+03	7.486082E-18	3.303951E-18
1.703240E+03	7.620294E-18	3.347100E-18
1.742850E+03	7.741265E-18	3.383354E-18
1.782461E+03	7.845573E-18	3.411273E-18
1.822071E+03	7.924878E-18	3.427327E-18
1.861681E+03	7.972640E-18	3.428846E-18
1.901291E+03	7.979454E-18	3.412011E-18
1.940902E+03	7.937034E-18	3.373589E-18
1.980512E+03	7.842000E-18	3.312524E-18
2.020122E+03	7.704292E-18	3.233415E-18
2.059732E+03	7.553559E-18	3.148989E-18
2.099342E+03	7.440773E-18	3.080483E-18
2.138953E+03	7.426366E-18	3.052423E-18
2.178563E+03	7.550064E-18	3.080128E-18
2.218173E+03	7.813247E-18	3.162840E-18
2.257783E+03	8.182675E-18	3.285804E-18
2.297394E+03	8.611014E-18	3.429018E-18
2.337004E+03	9.056820E-18	3.575392E-18
2.376614E+03	9.492469E-18	3.713794E-18
2.416224E+03	9.903489E-18	3.838579E-18
2.455835E+03	1.028598E-17	3.948378E-18
2.495445E+03	1.064011E-17	4.043443E-18
2.535055E+03	1.096946E-17	4.125319E-18
2.574665E+03	1.127721E-17	4.195373E-18
2.614276E+03	1.156708E-17	4.255113E-18
2.653886E+03	1.184159E-17	4.305580E-18
2.693496E+03	1.210289E-17	4.347637E-18
2.733106E+03	1.235268E-17	4.381965E-18
2.772716E+03	1.259190E-17	4.408958E-18
2.812327E+03	1.282120E-17	4.428897E-18
2.851937E+03	1.304168E-17	4.442221E-18
2.891547E+03	1.325351E-17	4.449034E-18
2.931157E+03	1.345835E-17	4.449950E-18
2.970768E+03	1.365662E-17	4.445151E-18
2.980670E+03	1.370566E-17	4.443223E-18
2.990573E+03	1.375416E-17	4.440900E-18
3.000475E+03	1.380211E-17	4.438178E-18
3.010378E+03	1.385012E-17	4.435254E-18
3.020280E+03	1.389783E-17	4.432014E-18
3.030183E+03	1.394525E-17	4.428460E-18
3.040086E+03	1.399282E-17	4.424731E-18
3.049988E+03	1.404077E-17	4.420899E-18
3.059891E+03	1.408965E-17	4.417134E-18
3.069793E+03	1.413983E-17	4.413551E-18
3.079696E+03	1.419054E-17	4.409899E-18
3.089598E+03	1.424189E-17	4.406213E-18
3.099501E+03	1.429341E-17	4.402344E-18
3.109403E+03	1.434582E-17	4.398510E-18
3.119306E+03	1.439812E-17	4.394405E-18
3.129209E+03	1.445045E-17	4.390071E-18
3.139111E+03	1.450298E-17	4.385554E-18
3.149014E+03	1.455559E-17	4.380826E-18
3.158916E+03	1.460764E-17	4.375685E-18
3.168819E+03	1.465984E-17	4.370350E-18
3.178721E+03	1.471158E-17	4.364640E-18
3.188624E+03	1.476303E-17	4.358606E-18
3.198526E+03	1.481388E-17	4.352155E-18
3.208429E+03	1.486430E-17	4.345345E-18
3.218332E+03	1.491426E-17	4.338165E-18
3.228234E+03	1.496368E-17	4.330596E-18
3.238137E+03	1.501228E-17	4.322561E-18
3.248039E+03	1.506026E-17	4.314118E-18
3.257942E+03	1.510759E-17	4.305263E-18
3.267844E+03	1.515398E-17	4.295917E-18
3.277747E+03	1.519966E-17	4.286152E-18
3.287650E+03	1.524436E-17	4.275894E-18
3.297552E+03	1.528830E-17	4.265209E-18
3.307455E+03	1.533122E-17	4.254031E-18
3.317357E+03	1.537312E-17	4.242363E-18
3.327260E+03	1.541398E-17	4.230208E-18
3.337162E+03	1.545380E-17	4.217570E-18
3.347065E+03	1.549258E-17	4.204456E-18
3.356967E+03	1.553008E-17	4.190810E-18
3.366870E+03	1.556656E-17	4.176702E-18
3.376773E+03	1.560154E-17	4.162017E-18
3.386675E+03	1.563550E-17	4.146888E-18
3.396578E+03	1.566801E-17	4.131210E-18
3.406480E+03	1.569909E-17	4.114993E-18
3.416383E+03	1.572874E-17	4.098251E-18
3.426285E+03	1.575679E-17	4.080945E-18
3.436188E+03	1.578348E-17	4.063146E-18
3.446090E+03	1.580861E-17	4.044815E-18
3.455993E+03	1.583200E-17	4.025917E-18
3.465896E+03	1.585370E-17	4.006471E-18
3.475798E+03	1.587354E-17	3.986446E-18
3.485701E+03	1.589175E-17	3.965914E-18
3.495603E+03	1.590778E-17	3.944750E-18
3.505506E+03	1.592188E-17	3.923026E-18
3.515408E+03	1.593390E-17	3.900719E-18
3.525311E+03	1.594390E-17	3.877857E-18
3.535213E+03	1.595154E-17	3.854372E-18
3.545116E+03	1.595669E-17	3.830249E-18
3.555019E+03	1.595962E-17	3.805565E-18
3.564921E+03	1.595982E-17	3.780217E-18
3.574824E+03	1.595756E-17	3.754285E-18
3.584726E+03	1.595273E-17	3.727756E-18
3.594629E+03	1.594503E-17	3.700585E-18
3.604531E+03	1.593438E-17	3.672767E-18
3.614434E+03	1.592086E-17	3.644338E-18
3.624337E+03	1.590422E-17	3.615262E-18
3.634239E+03	1.588472E-17	3.585619E-18
3.644142E+03	1.586192E-17	3.555328E-18
3.654044E+03	1.583594E-17	3.524438E-18
3.663947E+03	1.580671E-17	3.492954E-18
3.673849E+03	1.577433E-17	3.460915E-18
3.683752E+03	1.573856E-17	3.428298E-18
3.693654E+03	1.569953E-17	3.395145E-18
3.703557E+03	1.565718E-17	3.361467E-18
3.713460E+03	1.561159E-17	3.327306E-18
3.723362E+03	1.556274E-17	3.292675E-18
3.733265E+03	1.551072E-17	3.257618E-18
3.743167E+03	1.545549E-17	3.222145E-18
3.753070E+03	1.539701E-17	3.186269E-18
3.762972E+03	1.533567E-17	3.150095E-18
3.772875E+03	1.527113E-17	3.113573E-18
3.782777E+03	1.520366E-17	3.076775E-18
3.792680E+03	1.513348E-17	3.039769E-18
3.802583E+03	1.506042E-17	3.002537E-18
3.812485E+03	1.498457E-17	2.965119E-18
3.822388E+03	1.490617E-17	2.927580E-18
3.832290E+03	1.482531E-17	2.889957E-18
3.842193E+03	1.474210E-17	2.852285E-18
3.852095E+03	1.465645E-17	2.814569E-18
3.861998E+03	1.456862E-17	2.776872E-18
3.871900E+03	1.447868E-17	2.739222E-18
3.881803E+03	1.438672E-17	2.701654E-18
3.891706E+03	1.429280E-17	2.664194E-18
3.901608E+03	1.419701E-17	2.626871E-18
3.911511E+03	1.409955E-17	2.589737E-18
3.921413E+03	1.400049E-17	2.552817E-18
3.931316E+03	1.389978E-17	2.516113E-18
3.941218E+03	1.379773E-17	2.479694E-18
3.951121E+03	1.369427E-17	2.443557E-18
3.961024E+03	1.358960E-17	2.407749E-18
3.970926E+03	1.348377E-17	2.372287E-18
3.980829E+03	1.337672E-17	2.337171E-18
3.990731E+03	1.326873E-17	2.302459E-18
4.000634E+03	1.315975E-17	2.268147E-18
4.010536E+03	1.304994E-17	2.234271E-18
4.020439E+03	1.293934E-17	2.200844E-18
4.030341E+03	1.282801E-17	2.167883E-18
4.040244E+03	1.271598E-17	2.135396E-18
4.050147E+03	1.260341E-17	2.103416E-18
4.060049E+03	1.249024E-17	2.071935E-18
4.069952E+03	1.237649E-17	2.040960E-18
4.079854E+03	1.226244E-17	2.010539E-18
4.089757E+03	1.214788E-17	1.980642E-18
4.099659E+03	1.203297E-17	1.951293E-18
4.109562E+03	1.191775E-17	1.922500E-18
4.119464E+03	1.180225E-17	1.894265E-18
4.129367E+03	1.168649E-17	1.866595E-18
4.139270E+03	1.157052E-17	1.839490E-18
4.149172E+03	1.145435E-17	1.812955E-18
4.159075E+03	1.133803E-17	1.786990E-18
4.168977E+03	1.122157E-17	1.761596E-18
4.178880E+03	1.110500E-17	1.736772E-18
4.188782E+03	1.098828E-17	1.712503E-18
4.198685E+03	1.087140E-17	1.688785E-18
4.208587E+03	1.075451E-17	1.665630E-18
4.218490E+03	1.063762E-17	1.643019E-18
4.228393E+03	1.052055E-17	1.620906E-18
4.238295E+03	1.040342E-17	1.599287E-18
4.248198E+03	1.028624E-17	1.578143E-18
4.258100E+03	1.016903E-17	1.557455E-18
4.268003E+03	1.005179E-17	1.537204E-18
4.277905E+03	9.934456E-18	1.517358E-18
4.287808E+03	9.817226E-18	1.497927E-18
4.297711E+03	9.699939E-18	1.478866E-18
4.307613E+03	9.582794E-18	1.460184E-18
4.317516E+03	9.465807E-18	1.441865E-18
4.327418E+03	9.349070E-18	1.423900E-18
4.337321E+03	9.232608E-18	1.406276E-18
4.347223E+03	9.116503E-18	1.388984E-18
4.357126E+03	9.000708E-18	1.371999E-18
4.367028E+03	8.885249E-18	1.355307E-18
4.376931E+03	8.770013E-18	1.338872E-18
4.386834E+03	8.654886E-18	1.322659E-18
4.396736E+03	8.539913E-18	1.306657E-18
4.406639E+03	8.424998E-18	1.290836E-18
4.416541E+03	8.310112E-18	1.275174E-18
4.426444E+03	8.195322E-18	1.259666E-18
4.436346E+03	8.080460E-18	1.244271E-18
4.446249E+03	7.965602E-18	1.228984E-18
4.456151E+03	7.850745E-18	1.213790E-18
4.466054E+03	7.735843E-18	1.198666E-18
4.475957E+03	7.620911E-18	1.183599E-18
4.485859E+03	7.505982E-18	1.168581E-18
4.495762E+03	7.391079E-18	1.153602E-18
4.505664E+03	7.276241E-18	1.138655E-18
4.515567E+03	7.161445E-18	1.123724E-18
4.525469E+03	7.046665E-18	1.108794E-18
4.535372E+03	6.932086E-18	1.093883E-18
4.545274E+03	6.817625E-18	1.078966E-18
4.555177E+03	6.703268E-18	1.064032E-18
4.565080E+03	6.589146E-18	1.049093E-18
4.574982E+03	6.475314E-18	1.034149E-18
4.584885E+03	6.361652E-18	1.019171E-18
4.594787E+03	6.248402E-18	1.004193E-18
4.604690E+03	6.135398E-18	9.891789E-19
4.614592E+03	6.022815E-18	9.741521E-19
4.624495E+03	5.910670E-18	9.591091E-19
4.634398E+03	5.798971E-18	9.440457E-19
4.644300E+03	5.687736E-18	9.289604E-19
4.654203E+03	5.576980E-18	9.138513E-19
4.664105E+03	5.466830E-18	8.987351E-19
4.674008E+03	5.357253E-18	8.836033E-19
4.683910E+03	5.248296E-18	8.684610E-19
4.693813E+03	5.140134E-18	8.533344E-19
4.703715E+03	5.032777E-18	8.382237E-19
4.713618E+03	4.926482E-18	8.231702E-19
4.723521E+03	4.821209E-18	8.081668E-19
4.733423E+03	4.717145E-18	7.932443E-19
4.743326E+03	4.614380E-18	7.784182E-19
4.753228E+03	4.512908E-18	7.636881E-19
4.763131E+03	4.412853E-18	7.490759E-19
4.773033E+03	4.314333E-18	7.346030E-19
4.782936E+03	4.217318E-18	7.202660E-19
4.792838E+03	4.121920E-18	7.060858E-19
4.802741E+03	4.028191E-18	6.920738E-19
4.812644E+03	3.936140E-18	6.782341E-19
4.822546E+03	3.845813E-18	6.645769E-19
4.832449E+03	3.757292E-18	6.511196E-19
4.842351E+03	3.670567E-18	6.378635E-19
4.852254E+03	3.585709E-18	6.248243E-19
4.862156E+03	3.502669E-18	6.119966E-19
4.872059E+03	3.421507E-18	5.993943E-19
4.881961E+03	3.342240E-18	5.870241E-19
4.891864E+03	3.264847E-18	5.748858E-19
4.901767E+03	3.189374E-18	5.629911E-19
4.911669E+03	3.115794E-18	5.513390E-19
4.921572E+03	3.044143E-18	5.399394E-19
4.931474E+03	2.974389E-18	5.287907E-19
4.941377E+03	2.906531E-18	5.178961E-19
4.951279E+03	2.840536E-18	5.072534E-19
4.961182E+03	2.776455E-18	4.968755E-19
4.971085E+03	2.714221E-18	4.867539E-19
4.980987E+03	2.653824E-18	4.768904E-19
4.990890E+03	2.595280E-18	4.672913E-19
5.000792E+03	2.538546E-18	4.579524E-19
5.010695E+03	2.483608E-18	4.488743E-19
5.020597E+03	2.430449E-18	4.400572E-19
5.030500E+03	2.379050E-18	4.315012E-19
5.040402E+03	2.329368E-18	4.232013E-19
5.050305E+03	2.281385E-18	4.151574E-19
5.060208E+03	2.235105E-18	4.073729E-19
5.070110E+03	2.190460E-18	3.998385E-19
5.080013E+03	2.147476E-18	3.925616E-19
5.089915E+03	2.106065E-18	3.855287E-19
5.099818E+03	2.066250E-18	3.787467E-19
5.109720E+03	2.027991E-18	3.722103E-19
5.119623E+03	1.991265E-18	3.659182E-19
5.129525E+03	1.956054E-18	3.598688E-19
5.139428E+03	1.922316E-18	3.540570E-19
5.149331E+03	1.890034E-18	3.484816E-19
5.159233E+03	1.859170E-18	3.431373E-19
5.169136E+03	1.829744E-18	3.380302E-19
5.179038E+03	1.801684E-18	3.331482E-19
5.188941E+03	1.774992E-18	3.284937E-19
5.198843E+03	1.749652E-18	3.240656E-19
5.208746E+03	1.725651E-18	3.198627E-19
5.218648E+03	1.702941E-18	3.158777E-19
5.228551E+03	1.681528E-18	3.121130E-19
5.238454E+03	1.661384E-18	3.085649E-19
5.248356E+03	1.642500E-18	3.052329E-19
5.258259E+03	1.624852E-18	3.021138E-19
5.268161E+03	1.608450E-18	2.992105E-19
5.278064E+03	1.593256E-18	2.965172E-19
5.287966E+03	1.579268E-18	2.940343E-19
5.297869E+03	1.566468E-18	2.917596E-19
5.307772E+03	1.554873E-18	2.896969E-19
5.317674E+03	1.544438E-18	2.878388E-19
5.327577E+03	1.535181E-18	2.861896E-19
5.337479E+03	1.527094E-18	2.847484E-19
5.347382E+03	1.520169E-18	2.835145E-19
5.357284E+03	1.514370E-18	2.824818E-19
5.367187E+03	1.509694E-18	2.816505E-19
5.377089E+03	1.506141E-18	2.810209E-19
5.386992E+03	1.503650E-18	2.805826E-19
5.396895E+03	1.502226E-18	2.803368E-19
5.406797E+03	1.501828E-18	2.802764E-19
5.416700E+03	1.502448E-18	2.804005E-19
5.426602E+03	1.504154E-18	2.807222E-19
5.436505E+03	1.506957E-18	2.812440E-19
5.446407E+03	1.510923E-18	2.819786E-19
5.456310E+03	1.516071E-18	2.829302E-19
5.466212E+03	1.522465E-18	2.841112E-19
5.476115E+03	1.530098E-18	2.855203E-19
5.486018E+03	1.539007E-18	2.871654E-19
5.495920E+03	1.549206E-18	2.890490E-19
5.505823E+03	1.560755E-18	2.911829E-19
5.515725E+03	1.573652E-18	2.935672E-19
5.525628E+03	1.587926E-18	2.962076E-19
5.535530E+03	1.603588E-18	2.991069E-19
5.545433E+03	1.620684E-18	3.022737E-19
5.555335E+03	1.639208E-18	3.057076E-19
5.565238E+03	1.659191E-18	3.094139E-19
5.575141E+03	1.680664E-18	3.133984E-19
5.585043E+03	1.703646E-18	3.176639E-19
5.594946E+03	1.728173E-18	3.222170E-19
5.604848E+03	1.754250E-18	3.270579E-19
5.614751E+03	1.781916E-18	3.321939E-19
5.624653E+03	1.811217E-18	3.376328E-19
5.634556E+03	1.842181E-18	3.433793E-19
5.644459E+03	1.874837E-18	3.494383E-19
5.654361E+03	1.909216E-18	3.558151E-19
5.664264E+03	1.945390E-18	3.625227E-19
5.674166E+03	1.983355E-18	3.695594E-19
5.684069E+03	2.023187E-18	3.769388E-19
5.693971E+03	2.064926E-18	3.846675E-19
5.703874E+03	2.108587E-18	3.927477E-19
5.713776E+03	2.154234E-18	4.011901E-19
5.723679E+03	2.201930E-18	4.100061E-19
5.733582E+03	2.251696E-18	4.191982E-19
5.743484E+03	2.303572E-18	4.287731E-19
5.753387E+03	2.357655E-18	4.387474E-19
5.763289E+03	2.413936E-18	4.491187E-19
5.773192E+03	2.472488E-18	4.598988E-19
5.783094E+03	2.533353E-18	4.710947E-19
5.792997E+03	2.596576E-18	4.827133E-19
5.802899E+03	2.662232E-18	4.947666E-19
5.812802E+03	2.730304E-18	5.072504E-19
5.822705E+03	2.800895E-18	5.201818E-19
5.832607E+03	2.874015E-18	5.335612E-19
5.842510E+03	2.949704E-18	5.473941E-19
5.852412E+03	3.027999E-18	5.616852E-19
5.862315E+03	3.108935E-18	5.764391E-19
5.872217E+03	3.192581E-18	5.916664E-19
5.882120E+03	3.278894E-18	6.073570E-19
5.892022E+03	3.367897E-18	6.235128E-19
5.901925E+03	3.459650E-18	6.401422E-19
5.911828E+03	3.554170E-18	6.572462E-19
5.921730E+03	3.651387E-18	6.748091E-19
5.931633E+03	3.751390E-18	6.928444E-19
5.941535E+03	3.854048E-18	7.113255E-19
5.951438E+03	3.959486E-18	7.302721E-19
5.961340E+03	4.067555E-18	7.496539E-19
5.971243E+03	4.178221E-18	7.694619E-19
5.981146E+03	4.291501E-18	7.896957E-19
5.991048E+03	4.407307E-18	8.103361E-19
6.000951E+03	4.525585E-18	8.313701E-19
6.010853E+03	4.646162E-18	8.527625E-19
6.020756E+03	4.769076E-18	8.745169E-19
6.030658E+03	4.894062E-18	8.965817E-19
6.040561E+03	5.021142E-18	9.189575E-19
6.050463E+03	5.150145E-18	9.416098E-19
6.060366E+03	5.280880E-18	9.645003E-19
6.070269E+03	5.413207E-18	9.876007E-19
6.080171E+03	5.547049E-18	1.010893E-18
6.090074E+03	5.682169E-18	1.034332E-18
6.099976E+03	5.818390E-18	1.057882E-18
6.109879E+03	5.955677E-18	1.081535E-18
6.119781E+03	6.093681E-18	1.105222E-18
6.129684E+03	6.232271E-18	1.128920E-18
6.139586E+03	6.371332E-18	1.152604E-18
6.149489E+03	6.510774E-18	1.176256E-18
6.159392E+03	6.650341E-18	1.199827E-18
6.169294E+03	6.789854E-18	1.223284E-18
6.179197E+03	6.929223E-18	1.246608E-18
6.189099E+03	7.068160E-18	1.269746E-18
6.199002E+03	7.206568E-18	1.292679E-18
6.208904E+03	7.344248E-18	1.315371E-18
6.218807E+03	7.481099E-18	1.337803E-18
6.228709E+03	7.616917E-18	1.359937E-18
6.238612E+03	7.751514E-18	1.381739E-18
6.248515E+03	7.884789E-18	1.403192E-18
6.258417E+03	8.016660E-18	1.424281E-18
6.268320E+03	8.146833E-18	1.444954E-18
6.278222E+03	8.275233E-18	1.465198E-18
6.288125E+03	8.401797E-18	1.485003E-18
6.298027E+03	8.526250E-18	1.504322E-18
6.307930E+03	8.648685E-18	1.523171E-18
6.317833E+03	8.768973E-18	1.541526E-18
6.327735E+03	8.887000E-18	1.559367E-18
6.337638E+03	9.002634E-18	1.576669E-18
6.347540E+03	9.116034E-18	1.593458E-18
6.357443E+03	9.226961E-18	1.609690E-18
6.367345E+03	9.335597E-18	1.625396E-18
6.377248E+03	9.441856E-18	1.640561E-18
6.387150E+03	9.545659E-18	1.655169E-18
6.397053E+03	9.647079E-18	1.669231E-18
6.406956E+03	9.746053E-18	1.682736E-18
6.416858E+03	9.842675E-18	1.695699E-18
6.426761E+03	9.936586E-18	1.708056E-18
6.436663E+03	1.002805E-17	1.719853E-18
6.446566E+03	1.011701E-17	1.731081E-18
6.456468E+03	1.020329E-17	1.741706E-18
6.466371E+03	1.028701E-17	1.751751E-18
6.476273E+03	1.036814E-17	1.761209E-18
6.486176E+03	1.044666E-17	1.770078E-18
6.496079E+03	1.052255E-17	1.778354E-18
6.505981E+03	1.059597E-17	1.786063E-18
6.515884E+03	1.066675E-17	1.793179E-18
6.525786E+03	1.073487E-17	1.799698E-18
6.535689E+03	1.080053E-17	1.805653E-18
6.545591E+03	1.086371E-17	1.811044E-18
6.555494E+03	1.092426E-17	1.815845E-18
6.565396E+03	1.098237E-17	1.820089E-18
6.575299E+03	1.103786E-17	1.823749E-18
6.585202E+03	1.109114E-17	1.826894E-18
6.595104E+03	1.114186E-17	1.829464E-18
6.605007E+03	1.119003E-17	1.831467E-18
6.614909E+03	1.123588E-17	1.832941E-18
6.624812E+03	1.127943E-17	1.833893E-18
6.634714E+03	1.132054E-17	1.834301E-18
6.644617E+03	1.135924E-17	1.834171E-18
6.654520E+03	1.139575E-17	1.833545E-18
6.664422E+03	1.142994E-17	1.832400E-18
6.674325E+03	1.146203E-17	1.830780E-18
6.684227E+03	1.149168E-17	1.828629E-18
6.694130E+03	1.151933E-17	1.826024E-18
6.704032E+03	1.154461E-17	1.822908E-18
6.713935E+03	1.156801E-17	1.819363E-18
6.723837E+03	1.158915E-17	1.815332E-18
6.733740E+03	1.160829E-17	1.810862E-18
6.743643E+03	1.162548E-17	1.805964E-18
6.753545E+03	1.164058E-17	1.800620E-18
6.763448E+03	1.165384E-17	1.794877E-18
6.773350E+03	1.166512E-17	1.788713E-18
6.783253E+03	1.167468E-17	1.782177E-18
6.793155E+03	1.168216E-17	1.775216E-18
6.803058E+03	1.168804E-17	1.767911E-18
6.812960E+03	1.169216E-17	1.760244E-18
6.822863E+03	1.169461E-17	1.752230E-18
6.832766E+03	1.169519E-17	1.743851E-18
6.842668E+03	1.169444E-17	1.735188E-18
6.852571E+03	1.169174E-17	1.726158E-18
6.862473E+03	1.168781E-17	1.716875E-18
6.872376E+03	1.168230E-17	1.707291E-18
6.882278E+03	1.167524E-17	1.697419E-18
6.892181E+03	1.166693E-17	1.687311E-18
6.902083E+03	1.165721E-17	1.676948E-18
6.911986E+03	1.164615E-17	1.666347E-18
6.921889E+03	1.163381E-17	1.655527E-18
6.931791E+03	1.162024E-17	1.644502E-18
6.941694E+03	1.160553E-17	1.633289E-18
6.951596E+03	1.158950E-17	1.621873E-18
6.961499E+03	1.157267E-17	1.610336E-18
6.971401E+03	1.155443E-17	1.598599E-18
6.981304E+03	1.153552E-17	1.586772E-18
6.991207E+03	1.151531E-17	1.574781E-18
7.001109E+03	1.149435E-17	1.562705E-18
7.011012E+03	1.147244E-17	1.550528E-18
7.020914E+03	1.144967E-17	1.538269E-18
7.030817E+03	1.142632E-17	1.525977E-18
7.040719E+03	1.140198E-17	1.513606E-18
7.050622E+03	1.137697E-17	1.501206E-18
7.060524E+03	1.135111E-17	1.488762E-18
7.070427E+03	1.132469E-17	1.476324E-18
7.080330E+03	1.129777E-17	1.463909E-18
7.090232E+03	1.127018E-17	1.451505E-18
7.100135E+03	1.124222E-17	1.439157E-18
7.110037E+03	1.121348E-17	1.426827E-18
7.119940E+03	1.118449E-17	1.414591E-18
7.129842E+03	1.115508E-17	1.402436E-18
7.139745E+03	1.112506E-17	1.390350E-18
7.149647E+03	1.109475E-17	1.378383E-18
7.159550E+03	1.106418E-17	1.366550E-18
7.169453E+03	1.103321E-17	1.354842E-18
7.179355E+03	1.100187E-17	1.343276E-18
7.189258E+03	1.097023E-17	1.331871E-18
7.199160E+03	1.093834E-17	1.320643E-18
7.209063E+03	1.090628E-17	1.309612E-18
7.218965E+03	1.087363E-17	1.298738E-18
7.228868E+03	1.084091E-17	1.288097E-18
7.238770E+03	1.080795E-17	1.277677E-18
7.248673E+03	1.077458E-17	1.267470E-18
7.258576E+03	1.074108E-17	1.257519E-18
7.268478E+03	1.070707E-17	1.247790E-18
7.278381E+03	1.067258E-17	1.238298E-18
7.288283E+03	1.063770E-17	1.229064E-18
7.298186E+03	1.060224E-17	1.220076E-18
7.308088E+03	1.056649E-17	1.211377E-18
7.317991E+03	1.052983E-17	1.202907E-18
7.327894E+03	1.049276E-17	1.194732E-18
7.337796E+03	1.045490E-17	1.186818E-18
7.347699E+03	1.041653E-17	1.179204E-18
7.357601E+03	1.037747E-17	1.171880E-18
7.367504E+03	1.033779E-17	1.164858E-18
7.377406E+03	1.029776E-17	1.158177E-18
7.387309E+03	1.025721E-17	1.151823E-18
7.397211E+03	1.021685E-17	1.145881E-18
7.407114E+03	1.017630E-17	1.140309E-18
7.417017E+03	1.013604E-17	1.135146E-18
7.426919E+03	1.009590E-17	1.130360E-18
7.436822E+03	1.005656E-17	1.126011E-18
7.446724E+03	1.001783E-17	1.122062E-18
7.456627E+03	9.979684E-18	1.118495E-18
7.466529E+03	9.942327E-18	1.115317E-18
7.476432E+03	9.905736E-18	1.112510E-18
7.486334E+03	9.870320E-18	1.110104E-18
7.496237E+03	9.835625E-18	1.108032E-18
7.506140E+03	9.801866E-18	1.106305E-18
7.516042E+03	9.769216E-18	1.104926E-18
7.525945E+03	9.737463E-18	1.103856E-18
7.535847E+03	9.706798E-18	1.103104E-18
7.545750E+03	9.676975E-18	1.102625E-18
7.555652E+03	9.648434E-18	1.102458E-18
7.565555E+03	9.620713E-18	1.102535E-18
7.575457E+03	9.594235E-18	1.102893E-18
7.585360E+03	9.568545E-18	1.103465E-18
7.595263E+03	9.544067E-18	1.104288E-18
7.605165E+03	9.520361E-18	1.105299E-18
7.615068E+03	9.497835E-18	1.106534E-18
7.624970E+03	9.476268E-18	1.107956E-18
7.634873E+03	9.455654E-18	1.109553E-18
7.644775E+03	9.435966E-18	1.111311E-18
7.654678E+03	9.417208E-18	1.113220E-18
7.664581E+03	9.399359E-18	1.115269E-18
7.674483E+03	9.382204E-18	1.117421E-18
7.684386E+03	9.366151E-18	1.119717E-18
