#wls	flux	fluxerr
1.584409E+03	3.256730E-18	1.977633E-18
1.624020E+03	3.325232E-18	2.015911E-18
1.663630E+03	3.388882E-18	2.050932E-18
1.703240E+03	3.446942E-18	2.082247E-18
1.742850E+03	3.498847E-18	2.109521E-18
1.782461E+03	3.543011E-18	2.131803E-18
1.822071E+03	3.575626E-18	2.146822E-18
1.861681E+03	3.593708E-18	2.152823E-18
1.901291E+03	3.592995E-18	2.147306E-18
1.940902E+03	3.569750E-18	2.128118E-18
1.980512E+03	3.522467E-18	2.094462E-18
2.020122E+03	3.455643E-18	2.049119E-18
2.059732E+03	3.382593E-18	2.000064E-18
2.099342E+03	3.326091E-18	1.960765E-18
2.138953E+03	3.312956E-18	1.946901E-18
2.178563E+03	3.360532E-18	1.968386E-18
2.218173E+03	3.468890E-18	2.024894E-18
2.257783E+03	3.622661E-18	2.107086E-18
2.297394E+03	3.800321E-18	2.202159E-18
2.337004E+03	3.983116E-18	2.299081E-18
2.376614E+03	4.158560E-18	2.390583E-18
2.416224E+03	4.320071E-18	2.472897E-18
2.455835E+03	4.465771E-18	2.545001E-18
2.495445E+03	4.595586E-18	2.606927E-18
2.535055E+03	4.710924E-18	2.659550E-18
2.574665E+03	4.813016E-18	2.703639E-18
2.614276E+03	4.903295E-18	2.740071E-18
2.653886E+03	4.982696E-18	2.769436E-18
2.693496E+03	5.051958E-18	2.792211E-18
2.733106E+03	5.111644E-18	2.808773E-18
2.772716E+03	5.161997E-18	2.819326E-18
2.812327E+03	5.203155E-18	2.824020E-18
2.851937E+03	5.235444E-18	2.823108E-18
2.891547E+03	5.258837E-18	2.816660E-18
2.931157E+03	5.273915E-18	2.805076E-18
2.970768E+03	5.280769E-18	2.788494E-18
2.980670E+03	5.281385E-18	2.783678E-18
2.990573E+03	5.281432E-18	2.778527E-18
3.000475E+03	5.280908E-18	2.773044E-18
3.010378E+03	5.280045E-18	2.767351E-18
3.020280E+03	5.278709E-18	2.761378E-18
3.030183E+03	5.276894E-18	2.755126E-18
3.040086E+03	5.274770E-18	2.748683E-18
3.049988E+03	5.272421E-18	2.742094E-18
3.059891E+03	5.270054E-18	2.735469E-18
3.069793E+03	5.267801E-18	2.728876E-18
3.079696E+03	5.265363E-18	2.722159E-18
3.089598E+03	5.262779E-18	2.715340E-18
3.099501E+03	5.259878E-18	2.708331E-18
3.109403E+03	5.256912E-18	2.701263E-18
3.119306E+03	5.253517E-18	2.693951E-18
3.129209E+03	5.249747E-18	2.686423E-18
3.139111E+03	5.245660E-18	2.678711E-18
3.149014E+03	5.241209E-18	2.670791E-18
3.158916E+03	5.236164E-18	2.662549E-18
3.168819E+03	5.230781E-18	2.654116E-18
3.178721E+03	5.224842E-18	2.645385E-18
3.188624E+03	5.218416E-18	2.636390E-18
3.198526E+03	5.211384E-18	2.627076E-18
3.208429E+03	5.203823E-18	2.617483E-18
3.218332E+03	5.195711E-18	2.607603E-18
3.228234E+03	5.187031E-18	2.597429E-18
3.238137E+03	5.177686E-18	2.586915E-18
3.248039E+03	5.167757E-18	2.576103E-18
3.257942E+03	5.157226E-18	2.564990E-18
3.267844E+03	5.146013E-18	2.553535E-18
3.277747E+03	5.134189E-18	2.541779E-18
3.287650E+03	5.121676E-18	2.529685E-18
3.297552E+03	5.108556E-18	2.517296E-18
3.307455E+03	5.094745E-18	2.504575E-18
3.317357E+03	5.080246E-18	2.491525E-18
3.327260E+03	5.065067E-18	2.478154E-18
3.337162E+03	5.049218E-18	2.464471E-18
3.347065E+03	5.032699E-18	2.450476E-18
3.356967E+03	5.015449E-18	2.436145E-18
3.366870E+03	4.997554E-18	2.421523E-18
3.376773E+03	4.978879E-18	2.406547E-18
3.386675E+03	4.959579E-18	2.391296E-18
3.396578E+03	4.939531E-18	2.375713E-18
3.406480E+03	4.918752E-18	2.359811E-18
3.416383E+03	4.897255E-18	2.343599E-18
3.426285E+03	4.874998E-18	2.327061E-18
3.436188E+03	4.852070E-18	2.310242E-18
3.446090E+03	4.828420E-18	2.293122E-18
3.455993E+03	4.804009E-18	2.275687E-18
3.465896E+03	4.778864E-18	2.257952E-18
3.475798E+03	4.752951E-18	2.239905E-18
3.485701E+03	4.726352E-18	2.221588E-18
3.495603E+03	4.698922E-18	2.202938E-18
3.505506E+03	4.670745E-18	2.183998E-18
3.515408E+03	4.641804E-18	2.164762E-18
3.525311E+03	4.612124E-18	2.145248E-18
3.535213E+03	4.581631E-18	2.125424E-18
3.545116E+03	4.550307E-18	2.105286E-18
3.555019E+03	4.518245E-18	2.084881E-18
3.564921E+03	4.485327E-18	2.064159E-18
3.574824E+03	4.451644E-18	2.043165E-18
3.584726E+03	4.417188E-18	2.021900E-18
3.594629E+03	4.381905E-18	2.000343E-18
3.604531E+03	4.345786E-18	1.978494E-18
3.614434E+03	4.308886E-18	1.956383E-18
3.624337E+03	4.271150E-18	1.933987E-18
3.634239E+03	4.232683E-18	1.911360E-18
3.644142E+03	4.193391E-18	1.888461E-18
3.654044E+03	4.153328E-18	1.865320E-18
3.663947E+03	4.112502E-18	1.841943E-18
3.673849E+03	4.070964E-18	1.818358E-18
3.683752E+03	4.028686E-18	1.794556E-18
3.693654E+03	3.985717E-18	1.770560E-18
3.703557E+03	3.942068E-18	1.746382E-18
3.713460E+03	3.897800E-18	1.722049E-18
3.723362E+03	3.852918E-18	1.697568E-18
3.733265E+03	3.807480E-18	1.672966E-18
3.743167E+03	3.761495E-18	1.648252E-18
3.753070E+03	3.714978E-18	1.623433E-18
3.762972E+03	3.668055E-18	1.598568E-18
3.772875E+03	3.620666E-18	1.573632E-18
3.782777E+03	3.572894E-18	1.548663E-18
3.792680E+03	3.524822E-18	1.523699E-18
3.802583E+03	3.476424E-18	1.498731E-18
3.812485E+03	3.427747E-18	1.473780E-18
3.822388E+03	3.378869E-18	1.448881E-18
3.832290E+03	3.329826E-18	1.424050E-18
3.842193E+03	3.280661E-18	1.399307E-18
3.852095E+03	3.231380E-18	1.374654E-18
3.861998E+03	3.182053E-18	1.350121E-18
3.871900E+03	3.132712E-18	1.325723E-18
3.881803E+03	3.083391E-18	1.301474E-18
3.891706E+03	3.034122E-18	1.277387E-18
3.901608E+03	2.984938E-18	1.253475E-18
3.911511E+03	2.935897E-18	1.229762E-18
3.921413E+03	2.887019E-18	1.206257E-18
3.931316E+03	2.838310E-18	1.182960E-18
3.941218E+03	2.789847E-18	1.159903E-18
3.951121E+03	2.741624E-18	1.137081E-18
3.961024E+03	2.693688E-18	1.114514E-18
3.970926E+03	2.646060E-18	1.092207E-18
3.980829E+03	2.598736E-18	1.070159E-18
3.990731E+03	2.551781E-18	1.048393E-18
4.000634E+03	2.505187E-18	1.026905E-18
4.010536E+03	2.458994E-18	1.005709E-18
4.020439E+03	2.413214E-18	9.848085E-19
4.030341E+03	2.367861E-18	9.642064E-19
4.040244E+03	2.322949E-18	9.439058E-19
4.050147E+03	2.278507E-18	9.239169E-19
4.060049E+03	2.234527E-18	9.042335E-19
4.069952E+03	2.191019E-18	8.848573E-19
4.079854E+03	2.148029E-18	8.658046E-19
4.089757E+03	2.105528E-18	8.470606E-19
4.099659E+03	2.063541E-18	8.286333E-19
4.109562E+03	2.022075E-18	8.105224E-19
4.119464E+03	1.981136E-18	7.927275E-19
4.129367E+03	1.940729E-18	7.752480E-19
4.139270E+03	1.900859E-18	7.580830E-19
4.149172E+03	1.861530E-18	7.412313E-19
4.159075E+03	1.822745E-18	7.246914E-19
4.168977E+03	1.784507E-18	7.084617E-19
4.178880E+03	1.746820E-18	6.925404E-19
4.188782E+03	1.709671E-18	6.769196E-19
4.198685E+03	1.673061E-18	6.615974E-19
4.208587E+03	1.637009E-18	6.465774E-19
4.218490E+03	1.601513E-18	6.318571E-19
4.228393E+03	1.566548E-18	6.174228E-19
4.238295E+03	1.532128E-18	6.032776E-19
4.248198E+03	1.498254E-18	5.894189E-19
4.258100E+03	1.464926E-18	5.758438E-19
4.268003E+03	1.432143E-18	5.625491E-19
4.277905E+03	1.399892E-18	5.495272E-19
4.287808E+03	1.368196E-18	5.367842E-19
4.297711E+03	1.337031E-18	5.243075E-19
4.307613E+03	1.306417E-18	5.121027E-19
4.317516E+03	1.276352E-18	5.001662E-19
4.327418E+03	1.246844E-18	4.884983E-19
4.337321E+03	1.217888E-18	4.770946E-19
4.347223E+03	1.189491E-18	4.659551E-19
4.357126E+03	1.161647E-18	4.550751E-19
4.367028E+03	1.134371E-18	4.444581E-19
4.376931E+03	1.107656E-18	4.340983E-19
4.386834E+03	1.081495E-18	4.239897E-19
4.396736E+03	1.055897E-18	4.141333E-19
4.406639E+03	1.030853E-18	4.045222E-19
4.416541E+03	1.006363E-18	3.951534E-19
4.426444E+03	9.824330E-19	3.860274E-19
4.436346E+03	9.590443E-19	3.771337E-19
4.446249E+03	9.362034E-19	3.684728E-19
4.456151E+03	9.139070E-19	3.600412E-19
4.466054E+03	8.921433E-19	3.518321E-19
4.475957E+03	8.709093E-19	3.438424E-19
4.485859E+03	8.502011E-19	3.360687E-19
4.495762E+03	8.300143E-19	3.285077E-19
4.505664E+03	8.103443E-19	3.211561E-19
4.515567E+03	7.911789E-19	3.140075E-19
4.525469E+03	7.725057E-19	3.070557E-19
4.535372E+03	7.543346E-19	3.003035E-19
4.545274E+03	7.366452E-19	2.937416E-19
4.555177E+03	7.194257E-19	2.873645E-19
4.565080E+03	7.026778E-19	2.811718E-19
4.574982E+03	6.863955E-19	2.751605E-19
4.584885E+03	6.705537E-19	2.693197E-19
4.594787E+03	6.551660E-19	2.636543E-19
4.604690E+03	6.402016E-19	2.581514E-19
4.614592E+03	6.256675E-19	2.528135E-19
4.624495E+03	6.115518E-19	2.476352E-19
4.634398E+03	5.978429E-19	2.426117E-19
4.644300E+03	5.845295E-19	2.377381E-19
4.654203E+03	5.716009E-19	2.330099E-19
4.664105E+03	5.590572E-19	2.284270E-19
4.674008E+03	5.468822E-19	2.239827E-19
4.683910E+03	5.350654E-19	2.196728E-19
4.693813E+03	5.236023E-19	2.154954E-19
4.703715E+03	5.124721E-19	2.114421E-19
4.713618E+03	5.016811E-19	2.075155E-19
4.723521E+03	4.912047E-19	2.037057E-19
4.733423E+03	4.810435E-19	2.000130E-19
4.743326E+03	4.711890E-19	1.964342E-19
4.753228E+03	4.616230E-19	1.929619E-19
4.763131E+03	4.523422E-19	1.895949E-19
4.773033E+03	4.433432E-19	1.863321E-19
4.782936E+03	4.346093E-19	1.831668E-19
4.792838E+03	4.261372E-19	1.800979E-19
4.802741E+03	4.179203E-19	1.771230E-19
4.812644E+03	4.099467E-19	1.742373E-19
4.822546E+03	4.022104E-19	1.714387E-19
4.832449E+03	3.947085E-19	1.687263E-19
4.842351E+03	3.874306E-19	1.660960E-19
4.852254E+03	3.803751E-19	1.635475E-19
4.862156E+03	3.735278E-19	1.610752E-19
4.872059E+03	3.668872E-19	1.586787E-19
4.881961E+03	3.604478E-19	1.563561E-19
4.891864E+03	3.542003E-19	1.541037E-19
4.901767E+03	3.481434E-19	1.519215E-19
4.911669E+03	3.422688E-19	1.498062E-19
4.921572E+03	3.365747E-19	1.477574E-19
4.931474E+03	3.310537E-19	1.457723E-19
4.941377E+03	3.257008E-19	1.438491E-19
4.951279E+03	3.205084E-19	1.419849E-19
4.961182E+03	3.154791E-19	1.401813E-19
4.971085E+03	3.106025E-19	1.384340E-19
4.980987E+03	3.058748E-19	1.367417E-19
4.990890E+03	3.012951E-19	1.351045E-19
5.000792E+03	2.968567E-19	1.335197E-19
5.010695E+03	2.925565E-19	1.319865E-19
5.020597E+03	2.883907E-19	1.305033E-19
5.030500E+03	2.843566E-19	1.290696E-19
5.040402E+03	2.804478E-19	1.276826E-19
5.050305E+03	2.766614E-19	1.263415E-19
5.060208E+03	2.729979E-19	1.250468E-19
5.070110E+03	2.694481E-19	1.237949E-19
5.080013E+03	2.660153E-19	1.225875E-19
5.089915E+03	2.626888E-19	1.214200E-19
5.099818E+03	2.594716E-19	1.202943E-19
5.109720E+03	2.563586E-19	1.192082E-19
5.119623E+03	2.533476E-19	1.181612E-19
5.129525E+03	2.504364E-19	1.171526E-19
5.139428E+03	2.476204E-19	1.161805E-19
5.149331E+03	2.448977E-19	1.152443E-19
5.159233E+03	2.422638E-19	1.143423E-19
5.169136E+03	2.397220E-19	1.134763E-19
5.179038E+03	2.372631E-19	1.126424E-19
5.188941E+03	2.348880E-19	1.118411E-19
5.198843E+03	2.325950E-19	1.110721E-19
5.208746E+03	2.303827E-19	1.103349E-19
5.218648E+03	2.282449E-19	1.096268E-19
5.228551E+03	2.261827E-19	1.089487E-19
5.238454E+03	2.241923E-19	1.082989E-19
5.248356E+03	2.222726E-19	1.076773E-19
5.258259E+03	2.204202E-19	1.070824E-19
5.268161E+03	2.186363E-19	1.065150E-19
5.278064E+03	2.169151E-19	1.059727E-19
5.287966E+03	2.152559E-19	1.054552E-19
5.297869E+03	2.136555E-19	1.049612E-19
5.307772E+03	2.121152E-19	1.044915E-19
5.317674E+03	2.106277E-19	1.040429E-19
5.327577E+03	2.091944E-19	1.036161E-19
5.337479E+03	2.078124E-19	1.032099E-19
5.347382E+03	2.064790E-19	1.028233E-19
5.357284E+03	2.051873E-19	1.024528E-19
5.367187E+03	2.039347E-19	1.020975E-19
5.377089E+03	2.027188E-19	1.017561E-19
5.386992E+03	2.015289E-19	1.014235E-19
5.396895E+03	2.003629E-19	1.010985E-19
5.406797E+03	1.992123E-19	1.007772E-19
5.416700E+03	1.980730E-19	1.004575E-19
5.426602E+03	1.969509E-19	1.001422E-19
5.436505E+03	1.958436E-19	9.983041E-20
5.446407E+03	1.947567E-19	9.952493E-20
5.456310E+03	1.936918E-19	9.922666E-20
5.466212E+03	1.926563E-19	9.893943E-20
5.476115E+03	1.916475E-19	9.866204E-20
5.486018E+03	1.906689E-19	9.839634E-20
5.495920E+03	1.897198E-19	9.814208E-20
5.505823E+03	1.888053E-19	9.790206E-20
5.515725E+03	1.879229E-19	9.767505E-20
5.525628E+03	1.870738E-19	9.746182E-20
5.535530E+03	1.862573E-19	9.726214E-20
5.545433E+03	1.854766E-19	9.707778E-20
5.555335E+03	1.847290E-19	9.690748E-20
5.565238E+03	1.840159E-19	9.675204E-20
5.575141E+03	1.833384E-19	9.661218E-20
5.585043E+03	1.826958E-19	9.648771E-20
5.594946E+03	1.820894E-19	9.637937E-20
5.604848E+03	1.815166E-19	9.628593E-20
5.614751E+03	1.809786E-19	9.620818E-20
5.624653E+03	1.804767E-19	9.614687E-20
5.634556E+03	1.800103E-19	9.610180E-20
5.644459E+03	1.795787E-19	9.607274E-20
5.654361E+03	1.791812E-19	9.605949E-20
5.664264E+03	1.788212E-19	9.606388E-20
5.674166E+03	1.784941E-19	9.608363E-20
5.684069E+03	1.782033E-19	9.612061E-20
5.693971E+03	1.779481E-19	9.617462E-20
5.703874E+03	1.777261E-19	9.624447E-20
5.713776E+03	1.775387E-19	9.633096E-20
5.723679E+03	1.773872E-19	9.643496E-20
5.733582E+03	1.772693E-19	9.655529E-20
5.743484E+03	1.771845E-19	9.669176E-20
5.753387E+03	1.771360E-19	9.684630E-20
5.763289E+03	1.771197E-19	9.701665E-20
5.773192E+03	1.771370E-19	9.720374E-20
5.783094E+03	1.771874E-19	9.740738E-20
5.792997E+03	1.772706E-19	9.762745E-20
5.802899E+03	1.773880E-19	9.786491E-20
5.812802E+03	1.775354E-19	9.811742E-20
5.822705E+03	1.777164E-19	9.838704E-20
5.832607E+03	1.779285E-19	9.867255E-20
5.842510E+03	1.781713E-19	9.897381E-20
5.852412E+03	1.784447E-19	9.929071E-20
5.862315E+03	1.787481E-19	9.962311E-20
5.872217E+03	1.790833E-19	9.997204E-20
5.882120E+03	1.794459E-19	1.003351E-19
5.892022E+03	1.798354E-19	1.007121E-19
5.901925E+03	1.802537E-19	1.011041E-19
5.911828E+03	1.807004E-19	1.015109E-19
5.921730E+03	1.811710E-19	1.019302E-19
5.931633E+03	1.816693E-19	1.023640E-19
5.941535E+03	1.821887E-19	1.028087E-19
5.951438E+03	1.827352E-19	1.032677E-19
5.961340E+03	1.833019E-19	1.037372E-19
5.971243E+03	1.838885E-19	1.042170E-19
5.981146E+03	1.844966E-19	1.047081E-19
5.991048E+03	1.851238E-19	1.052091E-19
6.000951E+03	1.857696E-19	1.057197E-19
6.010853E+03	1.864290E-19	1.062371E-19
6.020756E+03	1.871060E-19	1.067637E-19
6.030658E+03	1.877933E-19	1.072952E-19
6.040561E+03	1.884949E-19	1.078339E-19
6.050463E+03	1.892079E-19	1.083782E-19
6.060366E+03	1.899294E-19	1.089264E-19
6.070269E+03	1.906587E-19	1.094781E-19
6.080171E+03	1.913975E-19	1.100343E-19
6.090074E+03	1.921426E-19	1.105932E-19
6.099976E+03	1.928935E-19	1.111544E-19
6.109879E+03	1.936542E-19	1.117201E-19
6.119781E+03	1.944191E-19	1.122873E-19
6.129684E+03	1.951900E-19	1.128568E-19
6.139586E+03	1.959686E-19	1.134297E-19
6.149489E+03	1.967567E-19	1.140071E-19
6.159392E+03	1.975512E-19	1.145870E-19
6.169294E+03	1.983514E-19	1.151690E-19
6.179197E+03	1.991591E-19	1.157543E-19
6.189099E+03	1.999711E-19	1.163409E-19
6.199002E+03	2.007892E-19	1.169298E-19
6.208904E+03	2.016127E-19	1.175207E-19
6.218807E+03	2.024437E-19	1.181147E-19
6.228709E+03	2.032815E-19	1.187113E-19
6.238612E+03	2.041254E-19	1.193103E-19
6.248515E+03	2.049776E-19	1.199128E-19
6.258417E+03	2.058403E-19	1.205201E-19
6.268320E+03	2.067101E-19	1.211303E-19
6.278222E+03	2.075893E-19	1.217446E-19
6.288125E+03	2.084803E-19	1.223644E-19
6.298027E+03	2.093798E-19	1.229877E-19
6.307930E+03	2.102931E-19	1.236178E-19
6.317833E+03	2.112199E-19	1.242544E-19
6.327735E+03	2.121598E-19	1.248972E-19
6.337638E+03	2.131126E-19	1.255461E-19
6.347540E+03	2.140840E-19	1.262045E-19
6.357443E+03	2.150708E-19	1.268705E-19
6.367345E+03	2.160792E-19	1.275476E-19
6.377248E+03	2.171090E-19	1.282358E-19
6.387150E+03	2.181603E-19	1.289352E-19
6.397053E+03	2.192365E-19	1.296476E-19
6.406956E+03	2.203375E-19	1.303732E-19
6.416858E+03	2.214670E-19	1.311140E-19
6.426761E+03	2.226184E-19	1.318661E-19
6.436663E+03	2.237986E-19	1.326336E-19
6.446566E+03	2.250080E-19	1.334167E-19
6.456468E+03	2.262433E-19	1.342135E-19
6.466371E+03	2.275083E-19	1.350261E-19
6.476273E+03	2.288033E-19	1.358549E-19
6.486176E+03	2.301289E-19	1.367000E-19
6.496079E+03	2.314852E-19	1.375616E-19
6.505981E+03	2.328766E-19	1.384421E-19
6.515884E+03	2.342998E-19	1.393397E-19
6.525786E+03	2.357552E-19	1.402546E-19
6.535689E+03	2.372472E-19	1.411893E-19
6.545591E+03	2.387764E-19	1.421442E-19
6.555494E+03	2.403396E-19	1.431173E-19
6.565396E+03	2.419412E-19	1.441113E-19
6.575299E+03	2.435779E-19	1.451241E-19
6.585202E+03	2.452586E-19	1.461611E-19
6.595104E+03	2.469758E-19	1.472176E-19
6.605007E+03	2.487301E-19	1.482941E-19
6.614909E+03	2.505265E-19	1.493934E-19
6.624812E+03	2.523658E-19	1.505160E-19
6.634714E+03	2.542445E-19	1.516597E-19
6.644617E+03	2.561632E-19	1.528250E-19
6.654520E+03	2.581272E-19	1.540149E-19
6.664422E+03	2.601330E-19	1.552272E-19
6.674325E+03	2.621860E-19	1.564651E-19
6.684227E+03	2.642776E-19	1.577234E-19
6.694130E+03	2.664183E-19	1.590084E-19
6.704032E+03	2.685992E-19	1.603146E-19
6.713935E+03	2.708310E-19	1.616484E-19
6.723837E+03	2.731047E-19	1.630044E-19
6.733740E+03	2.754264E-19	1.643860E-19
6.743643E+03	2.777967E-19	1.657936E-19
6.753545E+03	2.802117E-19	1.672249E-19
6.763448E+03	2.826774E-19	1.686832E-19
6.773350E+03	2.851896E-19	1.701660E-19
6.783253E+03	2.877544E-19	1.716768E-19
6.793155E+03	2.903622E-19	1.732099E-19
6.803058E+03	2.930246E-19	1.747721E-19
6.812960E+03	2.957372E-19	1.763607E-19
6.822863E+03	2.985011E-19	1.779761E-19
6.832766E+03	3.013115E-19	1.796154E-19
6.842668E+03	3.041808E-19	1.812860E-19
6.852571E+03	3.070926E-19	1.829780E-19
6.862473E+03	3.100655E-19	1.847022E-19
6.872376E+03	3.130886E-19	1.864522E-19
6.882278E+03	3.161630E-19	1.882284E-19
6.892181E+03	3.192957E-19	1.900349E-19
6.902083E+03	3.224815E-19	1.918685E-19
6.911986E+03	3.257215E-19	1.937297E-19
6.921889E+03	3.290167E-19	1.956190E-19
6.931791E+03	3.323680E-19	1.975367E-19
6.941694E+03	3.357765E-19	1.994834E-19
6.951596E+03	3.392365E-19	2.014556E-19
6.961499E+03	3.427624E-19	2.034617E-19
6.971401E+03	3.463349E-19	2.054900E-19
6.981304E+03	3.499756E-19	2.075532E-19
6.991207E+03	3.536647E-19	2.096394E-19
7.001109E+03	3.574169E-19	2.117573E-19
7.011012E+03	3.612265E-19	2.139031E-19
7.020914E+03	3.650942E-19	2.160773E-19
7.030817E+03	3.690283E-19	2.182845E-19
7.040719E+03	3.730152E-19	2.205165E-19
7.050622E+03	3.770632E-19	2.227781E-19
7.060524E+03	3.811655E-19	2.250649E-19
7.070427E+03	3.853306E-19	2.273821E-19
7.080330E+03	3.895597E-19	2.297298E-19
7.090232E+03	3.938456E-19	2.321039E-19
7.100135E+03	3.981974E-19	2.345094E-19
7.110037E+03	4.025997E-19	2.369371E-19
7.119940E+03	4.070696E-19	2.393969E-19
7.129842E+03	4.115997E-19	2.418841E-19
7.139745E+03	4.161825E-19	2.443942E-19
7.149647E+03	4.208270E-19	2.469323E-19
7.159550E+03	4.255341E-19	2.494986E-19
7.169453E+03	4.302958E-19	2.520883E-19
7.179355E+03	4.351126E-19	2.547015E-19
7.189258E+03	4.399849E-19	2.573381E-19
7.199160E+03	4.449136E-19	2.599986E-19
7.209063E+03	4.498991E-19	2.626828E-19
7.218965E+03	4.549228E-19	2.653798E-19
7.228868E+03	4.600041E-19	2.681007E-19
7.238770E+03	4.651336E-19	2.708396E-19
7.248673E+03	4.703016E-19	2.735909E-19
7.258576E+03	4.755180E-19	2.763601E-19
7.268478E+03	4.807631E-19	2.791354E-19
7.278381E+03	4.860361E-19	2.819163E-19
7.288283E+03	4.913365E-19	2.847022E-19
7.298186E+03	4.966533E-19	2.874867E-19
7.308088E+03	5.019954E-19	2.902747E-19
7.317991E+03	5.073308E-19	2.930475E-19
7.327894E+03	5.126794E-19	2.958165E-19
7.337796E+03	5.180171E-19	2.985677E-19
7.347699E+03	5.233541E-19	3.013068E-19
7.357601E+03	5.286772E-19	3.040261E-19
7.367504E+03	5.339842E-19	3.067242E-19
7.377406E+03	5.392848E-19	3.094067E-19
7.387309E+03	5.445650E-19	3.120653E-19
7.397211E+03	5.498588E-19	3.147196E-19
7.407114E+03	5.551412E-19	3.173549E-19
7.417017E+03	5.604340E-19	3.199837E-19
7.426919E+03	5.657247E-19	3.225988E-19
7.436822E+03	5.710487E-19	3.252201E-19
7.446724E+03	5.763933E-19	3.278403E-19
7.456627E+03	5.817582E-19	3.304590E-19
7.466529E+03	5.871553E-19	3.330829E-19
7.476432E+03	5.925847E-19	3.357118E-19
7.486334E+03	5.980728E-19	3.383604E-19
7.496237E+03	6.035936E-19	3.410138E-19
7.506140E+03	6.091601E-19	3.436793E-19
7.516042E+03	6.147872E-19	3.463649E-19
7.525945E+03	6.204610E-19	3.490627E-19
7.535847E+03	6.261965E-19	3.517807E-19
7.545750E+03	6.319799E-19	3.545111E-19
7.555652E+03	6.378408E-19	3.572702E-19
7.565555E+03	6.437513E-19	3.600420E-19
7.575457E+03	6.497412E-19	3.628431E-19
7.585360E+03	6.557821E-19	3.656573E-19
7.595263E+03	6.619050E-19	3.685016E-19
7.605165E+03	6.680805E-19	3.713594E-19
7.615068E+03	6.743401E-19	3.742479E-19
7.624970E+03	6.806698E-19	3.771591E-19
7.634873E+03	6.870707E-19	3.800933E-19
7.644775E+03	6.935434E-19	3.830506E-19
7.654678E+03	7.000895E-19	3.860315E-19
7.664581E+03	7.067103E-19	3.890366E-19
7.674483E+03	7.133893E-19	3.920564E-19
7.684386E+03	7.201618E-19	3.951101E-19
