#wls	flux	fluxerr
1.584409E+03	3.110013E-18	9.196805E-19
1.624020E+03	3.240908E-18	9.582044E-19
1.663630E+03	3.371719E-18	9.966845E-19
1.703240E+03	3.501583E-18	1.034865E-18
1.742850E+03	3.629739E-18	1.072520E-18
1.782461E+03	3.754274E-18	1.109085E-18
1.822071E+03	3.870713E-18	1.143237E-18
1.861681E+03	3.975099E-18	1.173811E-18
1.901291E+03	4.061698E-18	1.199114E-18
1.940902E+03	4.124895E-18	1.217493E-18
1.980512E+03	4.161241E-18	1.227934E-18
2.020122E+03	4.174268E-18	1.231485E-18
2.059732E+03	4.178781E-18	1.232517E-18
2.099342E+03	4.202942E-18	1.239336E-18
2.138953E+03	4.282751E-18	1.262551E-18
2.178563E+03	4.444981E-18	1.310039E-18
2.218173E+03	4.695380E-18	1.383475E-18
2.257783E+03	5.018657E-18	1.478333E-18
2.297394E+03	5.389124E-18	1.587030E-18
2.337004E+03	5.782478E-18	1.702398E-18
2.376614E+03	6.181287E-18	1.819299E-18
2.416224E+03	6.575371E-18	1.934736E-18
2.455835E+03	6.960879E-18	2.047575E-18
2.495445E+03	7.336470E-18	2.157423E-18
2.535055E+03	7.703136E-18	2.264573E-18
2.574665E+03	8.061689E-18	2.369265E-18
2.614276E+03	8.413403E-18	2.471873E-18
2.653886E+03	8.758805E-18	2.572555E-18
2.693496E+03	9.098164E-18	2.671390E-18
2.733106E+03	9.431472E-18	2.768376E-18
2.772716E+03	9.758141E-18	2.863342E-18
2.812327E+03	1.007732E-17	2.956040E-18
2.851937E+03	1.038851E-17	3.046325E-18
2.891547E+03	1.069046E-17	3.133832E-18
2.931157E+03	1.098309E-17	3.218542E-18
2.970768E+03	1.126531E-17	3.300138E-18
2.980670E+03	1.133449E-17	3.320121E-18
2.990573E+03	1.140279E-17	3.339848E-18
3.000475E+03	1.147019E-17	3.359306E-18
3.010378E+03	1.153718E-17	3.378638E-18
3.020280E+03	1.160344E-17	3.397754E-18
3.030183E+03	1.166894E-17	3.416645E-18
3.040086E+03	1.173403E-17	3.435410E-18
3.049988E+03	1.179890E-17	3.454107E-18
3.059891E+03	1.186397E-17	3.472861E-18
3.069793E+03	1.192956E-17	3.491763E-18
3.079696E+03	1.199499E-17	3.510614E-18
3.089598E+03	1.206033E-17	3.529434E-18
3.099501E+03	1.212517E-17	3.548107E-18
3.109403E+03	1.219009E-17	3.566798E-18
3.119306E+03	1.225423E-17	3.585256E-18
3.129209E+03	1.231768E-17	3.603513E-18
3.139111E+03	1.238058E-17	3.621600E-18
3.149014E+03	1.244277E-17	3.639482E-18
3.158916E+03	1.250372E-17	3.656993E-18
3.168819E+03	1.256398E-17	3.674302E-18
3.178721E+03	1.262303E-17	3.691251E-18
3.188624E+03	1.268097E-17	3.707877E-18
3.198526E+03	1.273752E-17	3.724090E-18
3.208429E+03	1.279282E-17	3.739934E-18
3.218332E+03	1.284678E-17	3.755386E-18
3.228234E+03	1.289935E-17	3.770428E-18
3.238137E+03	1.295023E-17	3.784974E-18
3.248039E+03	1.299959E-17	3.799073E-18
3.257942E+03	1.304738E-17	3.812709E-18
3.267844E+03	1.309332E-17	3.825804E-18
3.277747E+03	1.313759E-17	3.838407E-18
3.287650E+03	1.317992E-17	3.850444E-18
3.297552E+03	1.322051E-17	3.861968E-18
3.307455E+03	1.325909E-17	3.872905E-18
3.317357E+03	1.329565E-17	3.883249E-18
3.327260E+03	1.333015E-17	3.892990E-18
3.337162E+03	1.336257E-17	3.902123E-18
3.347065E+03	1.339290E-17	3.910643E-18
3.356967E+03	1.342091E-17	3.918484E-18
3.366870E+03	1.344680E-17	3.925705E-18
3.376773E+03	1.347015E-17	3.932187E-18
3.386675E+03	1.349136E-17	3.938040E-18
3.396578E+03	1.351004E-17	3.943155E-18
3.406480E+03	1.352619E-17	3.947531E-18
3.416383E+03	1.353982E-17	3.951170E-18
3.426285E+03	1.355075E-17	3.954023E-18
3.436188E+03	1.355918E-17	3.956145E-18
3.446090E+03	1.356494E-17	3.957491E-18
3.455993E+03	1.356787E-17	3.958009E-18
3.465896E+03	1.356800E-17	3.957713E-18
3.475798E+03	1.356518E-17	3.956555E-18
3.485701E+03	1.355962E-17	3.954598E-18
3.495603E+03	1.355083E-17	3.951702E-18
3.505506E+03	1.353903E-17	3.947930E-18
3.515408E+03	1.352411E-17	3.943246E-18
3.525311E+03	1.350610E-17	3.937666E-18
3.535213E+03	1.348473E-17	3.931109E-18
3.545116E+03	1.345992E-17	3.923547E-18
3.555019E+03	1.343187E-17	3.915048E-18
3.564921E+03	1.340020E-17	3.905492E-18
3.574824E+03	1.336513E-17	3.894949E-18
3.584726E+03	1.332659E-17	3.883396E-18
3.594629E+03	1.328436E-17	3.870773E-18
3.604531E+03	1.323838E-17	3.857060E-18
3.614434E+03	1.318876E-17	3.842289E-18
3.624337E+03	1.313530E-17	3.826403E-18
3.634239E+03	1.307825E-17	3.809477E-18
3.644142E+03	1.301730E-17	3.791416E-18
3.654044E+03	1.295257E-17	3.772259E-18
3.663947E+03	1.288403E-17	3.751999E-18
3.673849E+03	1.281182E-17	3.730672E-18
3.683752E+03	1.273578E-17	3.708236E-18
3.693654E+03	1.265606E-17	3.684731E-18
3.703557E+03	1.257264E-17	3.660158E-18
3.713460E+03	1.248568E-17	3.634555E-18
3.723362E+03	1.239516E-17	3.607926E-18
3.733265E+03	1.230125E-17	3.580313E-18
3.743167E+03	1.220394E-17	3.551717E-18
3.753070E+03	1.210326E-17	3.522145E-18
3.762972E+03	1.199959E-17	3.491709E-18
3.772875E+03	1.189271E-17	3.460346E-18
3.782777E+03	1.178288E-17	3.428130E-18
3.792680E+03	1.167035E-17	3.395137E-18
3.802583E+03	1.155503E-17	3.361338E-18
3.812485E+03	1.143707E-17	3.326774E-18
3.822388E+03	1.131669E-17	3.291517E-18
3.832290E+03	1.119404E-17	3.255605E-18
3.842193E+03	1.106924E-17	3.219076E-18
3.852095E+03	1.094233E-17	3.181938E-18
3.861998E+03	1.081351E-17	3.144255E-18
3.871900E+03	1.068294E-17	3.106067E-18
3.881803E+03	1.055070E-17	3.067404E-18
3.891706E+03	1.041694E-17	3.028302E-18
3.901608E+03	1.028177E-17	2.988799E-18
3.911511E+03	1.014538E-17	2.948949E-18
3.921413E+03	1.000789E-17	2.908787E-18
3.931316E+03	9.869322E-18	2.868319E-18
3.941218E+03	9.729949E-18	2.827623E-18
3.951121E+03	9.589786E-18	2.786705E-18
3.961024E+03	9.449015E-18	2.745618E-18
3.970926E+03	9.307732E-18	2.704389E-18
3.980829E+03	9.165946E-18	2.663021E-18
3.990731E+03	9.023915E-18	2.621589E-18
4.000634E+03	8.881634E-18	2.580091E-18
4.010536E+03	8.739267E-18	2.538576E-18
4.020439E+03	8.596906E-18	2.497069E-18
4.030341E+03	8.454614E-18	2.455589E-18
4.040244E+03	8.312475E-18	2.414160E-18
4.050147E+03	8.170628E-18	2.372823E-18
4.060049E+03	8.029076E-18	2.331578E-18
4.069952E+03	7.887892E-18	2.290447E-18
4.079854E+03	7.747269E-18	2.249485E-18
4.089757E+03	7.607145E-18	2.208674E-18
4.099659E+03	7.467639E-18	2.168049E-18
4.109562E+03	7.328817E-18	2.127629E-18
4.119464E+03	7.190734E-18	2.087429E-18
4.129367E+03	7.053455E-18	2.047469E-18
4.139270E+03	6.917020E-18	2.007760E-18
4.149172E+03	6.781489E-18	1.968319E-18
4.159075E+03	6.646913E-18	1.929161E-18
4.168977E+03	6.513340E-18	1.890300E-18
4.178880E+03	6.380820E-18	1.851749E-18
4.188782E+03	6.249342E-18	1.813507E-18
4.198685E+03	6.118955E-18	1.775586E-18
4.208587E+03	5.989758E-18	1.738015E-18
4.218490E+03	5.861791E-18	1.700806E-18
4.228393E+03	5.734994E-18	1.663942E-18
4.238295E+03	5.609460E-18	1.627448E-18
4.248198E+03	5.485230E-18	1.591337E-18
4.258100E+03	5.362340E-18	1.555620E-18
4.268003E+03	5.240827E-18	1.520306E-18
4.277905E+03	5.120680E-18	1.485393E-18
4.287808E+03	5.002024E-18	1.450916E-18
4.297711E+03	4.884801E-18	1.416858E-18
4.307613E+03	4.769126E-18	1.383254E-18
4.317516E+03	4.655027E-18	1.350110E-18
4.327418E+03	4.542566E-18	1.317445E-18
4.337321E+03	4.431763E-18	1.285264E-18
4.347223E+03	4.322674E-18	1.253583E-18
4.357126E+03	4.215313E-18	1.222407E-18
4.367028E+03	4.109764E-18	1.191759E-18
4.376931E+03	4.006035E-18	1.161642E-18
4.386834E+03	3.904129E-18	1.132056E-18
4.396736E+03	3.804118E-18	1.103023E-18
4.406639E+03	3.705999E-18	1.074540E-18
4.416541E+03	3.609800E-18	1.046617E-18
4.426444E+03	3.515577E-18	1.019269E-18
4.436346E+03	3.423287E-18	9.924833E-19
4.446249E+03	3.332977E-18	9.662742E-19
4.456151E+03	3.244662E-18	9.406454E-19
4.466054E+03	3.158320E-18	9.155903E-19
4.475957E+03	3.073957E-18	8.911110E-19
4.485859E+03	2.991580E-18	8.672090E-19
4.495762E+03	2.911187E-18	8.438840E-19
4.505664E+03	2.832778E-18	8.211356E-19
4.515567E+03	2.756320E-18	7.989542E-19
4.525469E+03	2.681782E-18	7.773309E-19
4.535372E+03	2.609206E-18	7.562776E-19
4.545274E+03	2.538531E-18	7.357765E-19
4.555177E+03	2.469722E-18	7.158174E-19
4.565080E+03	2.402788E-18	6.964030E-19
4.574982E+03	2.337712E-18	6.775284E-19
4.584885E+03	2.274411E-18	6.591690E-19
4.594787E+03	2.212933E-18	6.413391E-19
4.604690E+03	2.153172E-18	6.240078E-19
4.614592E+03	2.095153E-18	6.071821E-19
4.624495E+03	2.038832E-18	5.908493E-19
4.634398E+03	1.984167E-18	5.749975E-19
4.644300E+03	1.931119E-18	5.596147E-19
4.654203E+03	1.879647E-18	5.446894E-19
4.664105E+03	1.829746E-18	5.302201E-19
4.674008E+03	1.781358E-18	5.161898E-19
4.683910E+03	1.734442E-18	5.025867E-19
4.693813E+03	1.688977E-18	4.894046E-19
4.703715E+03	1.644890E-18	4.766224E-19
4.713618E+03	1.602193E-18	4.642433E-19
4.723521E+03	1.560798E-18	4.522423E-19
4.733423E+03	1.520704E-18	4.406183E-19
4.743326E+03	1.481872E-18	4.293606E-19
4.753228E+03	1.444237E-18	4.184503E-19
4.763131E+03	1.407783E-18	4.078821E-19
4.773033E+03	1.372488E-18	3.976503E-19
4.782936E+03	1.338293E-18	3.877376E-19
4.792838E+03	1.305179E-18	3.781386E-19
4.802741E+03	1.273118E-18	3.688447E-19
4.812644E+03	1.242065E-18	3.598432E-19
4.822546E+03	1.211993E-18	3.511261E-19
4.832449E+03	1.182884E-18	3.426884E-19
4.842351E+03	1.154701E-18	3.345191E-19
4.852254E+03	1.127427E-18	3.266135E-19
4.862156E+03	1.101013E-18	3.189572E-19
4.872059E+03	1.075448E-18	3.115470E-19
4.881961E+03	1.050705E-18	3.043753E-19
4.891864E+03	1.026751E-18	2.974321E-19
4.901767E+03	1.003573E-18	2.907141E-19
4.911669E+03	9.811399E-19	2.842118E-19
4.921572E+03	9.594395E-19	2.779220E-19
4.931474E+03	9.384409E-19	2.718357E-19
4.941377E+03	9.181232E-19	2.659468E-19
4.951279E+03	8.984587E-19	2.602472E-19
4.961182E+03	8.794472E-19	2.547369E-19
4.971085E+03	8.610518E-19	2.494051E-19
4.980987E+03	8.432557E-19	2.442471E-19
4.990890E+03	8.260495E-19	2.392600E-19
5.000792E+03	8.094088E-19	2.344368E-19
5.010695E+03	7.933180E-19	2.297730E-19
5.020597E+03	7.777615E-19	2.252641E-19
5.030500E+03	7.627244E-19	2.209057E-19
5.040402E+03	7.481845E-19	2.166913E-19
5.050305E+03	7.341288E-19	2.126173E-19
5.060208E+03	7.205515E-19	2.086819E-19
5.070110E+03	7.074249E-19	2.048771E-19
5.080013E+03	6.947514E-19	2.012036E-19
5.089915E+03	6.824979E-19	1.976518E-19
5.099818E+03	6.706671E-19	1.942225E-19
5.109720E+03	6.592415E-19	1.909106E-19
5.119623E+03	6.482106E-19	1.877130E-19
5.129525E+03	6.375642E-19	1.846268E-19
5.139428E+03	6.272864E-19	1.816474E-19
5.149331E+03	6.173680E-19	1.787722E-19
5.159233E+03	6.077941E-19	1.759967E-19
5.169136E+03	5.985687E-19	1.733222E-19
5.179038E+03	5.896652E-19	1.707409E-19
5.188941E+03	5.810824E-19	1.682525E-19
5.198843E+03	5.728128E-19	1.658549E-19
5.208746E+03	5.648493E-19	1.635459E-19
5.218648E+03	5.571736E-19	1.613202E-19
5.228551E+03	5.497853E-19	1.591778E-19
5.238454E+03	5.426726E-19	1.571152E-19
5.248356E+03	5.358298E-19	1.551308E-19
5.258259E+03	5.292459E-19	1.532213E-19
5.268161E+03	5.229212E-19	1.513869E-19
5.278064E+03	5.168398E-19	1.496230E-19
5.287966E+03	5.109973E-19	1.479282E-19
5.297869E+03	5.053838E-19	1.462997E-19
5.307772E+03	5.000004E-19	1.447378E-19
5.317674E+03	4.948278E-19	1.432370E-19
5.327577E+03	4.898671E-19	1.417975E-19
5.337479E+03	4.851099E-19	1.404169E-19
5.347382E+03	4.805478E-19	1.390928E-19
5.357284E+03	4.761631E-19	1.378200E-19
5.367187E+03	4.719481E-19	1.365963E-19
5.377089E+03	4.678955E-19	1.354196E-19
5.386992E+03	4.639795E-19	1.342825E-19
5.396895E+03	4.601932E-19	1.331828E-19
5.406797E+03	4.565163E-19	1.321149E-19
5.416700E+03	4.529379E-19	1.310754E-19
5.426602E+03	4.494698E-19	1.300678E-19
5.436505E+03	4.461056E-19	1.290902E-19
5.446407E+03	4.428563E-19	1.281459E-19
5.456310E+03	4.397241E-19	1.272355E-19
5.466212E+03	4.367235E-19	1.263631E-19
5.476115E+03	4.338475E-19	1.255268E-19
5.486018E+03	4.311017E-19	1.247280E-19
5.495920E+03	4.284829E-19	1.239661E-19
5.505823E+03	4.260010E-19	1.232436E-19
5.515725E+03	4.236482E-19	1.225585E-19
5.525628E+03	4.214258E-19	1.219111E-19
5.535530E+03	4.193303E-19	1.213004E-19
5.545433E+03	4.173672E-19	1.207279E-19
5.555335E+03	4.155289E-19	1.201915E-19
5.565238E+03	4.138165E-19	1.196915E-19
5.575141E+03	4.122308E-19	1.192280E-19
5.585043E+03	4.107691E-19	1.188004E-19
5.594946E+03	4.094324E-19	1.184089E-19
5.604848E+03	4.082133E-19	1.180513E-19
5.614751E+03	4.071133E-19	1.177281E-19
5.624653E+03	4.061337E-19	1.174397E-19
5.634556E+03	4.052716E-19	1.171852E-19
5.644459E+03	4.045244E-19	1.169638E-19
5.654361E+03	4.038893E-19	1.167748E-19
5.664264E+03	4.033724E-19	1.166199E-19
5.674166E+03	4.029625E-19	1.164958E-19
5.684069E+03	4.026659E-19	1.164044E-19
5.693971E+03	4.024801E-19	1.163450E-19
5.703874E+03	4.023986E-19	1.163156E-19
5.713776E+03	4.024236E-19	1.163169E-19
5.723679E+03	4.025571E-19	1.163495E-19
5.733582E+03	4.027928E-19	1.164115E-19
5.743484E+03	4.031288E-19	1.165024E-19
5.753387E+03	4.035719E-19	1.166241E-19
5.763289E+03	4.041114E-19	1.167736E-19
5.773192E+03	4.047501E-19	1.169516E-19
5.783094E+03	4.054861E-19	1.171576E-19
5.792997E+03	4.063179E-19	1.173912E-19
5.802899E+03	4.072482E-19	1.176531E-19
5.812802E+03	4.082666E-19	1.179403E-19
5.822705E+03	4.093806E-19	1.182550E-19
5.832607E+03	4.105841E-19	1.185954E-19
5.842510E+03	4.118756E-19	1.189611E-19
5.852412E+03	4.132539E-19	1.193517E-19
5.862315E+03	4.147174E-19	1.197668E-19
5.872217E+03	4.162696E-19	1.202073E-19
5.882120E+03	4.178997E-19	1.206701E-19
5.892022E+03	4.196063E-19	1.211548E-19
5.901925E+03	4.213927E-19	1.216624E-19
5.911828E+03	4.232577E-19	1.221926E-19
5.921730E+03	4.251902E-19	1.227420E-19
5.931633E+03	4.271988E-19	1.233132E-19
5.941535E+03	4.292669E-19	1.239013E-19
5.951438E+03	4.314083E-19	1.245105E-19
5.961340E+03	4.336062E-19	1.251357E-19
5.971243E+03	4.358593E-19	1.257766E-19
5.981146E+03	4.381710E-19	1.264343E-19
5.991048E+03	4.405344E-19	1.271066E-19
6.000951E+03	4.429479E-19	1.277932E-19
6.010853E+03	4.453993E-19	1.284904E-19
6.020756E+03	4.478971E-19	1.292008E-19
6.030658E+03	4.504234E-19	1.299193E-19
6.040561E+03	4.529869E-19	1.306481E-19
6.050463E+03	4.555801E-19	1.313853E-19
6.060366E+03	4.581953E-19	1.321286E-19
6.070269E+03	4.608301E-19	1.328773E-19
6.080171E+03	4.634879E-19	1.336324E-19
6.090074E+03	4.661605E-19	1.343915E-19
6.099976E+03	4.688457E-19	1.351539E-19
6.109879E+03	4.715528E-19	1.359224E-19
6.119781E+03	4.742676E-19	1.366928E-19
6.129684E+03	4.769936E-19	1.374662E-19
6.139586E+03	4.797347E-19	1.382436E-19
6.149489E+03	4.824948E-19	1.390263E-19
6.159392E+03	4.852656E-19	1.398117E-19
6.169294E+03	4.880449E-19	1.405993E-19
6.179197E+03	4.908369E-19	1.413903E-19
6.189099E+03	4.936330E-19	1.421821E-19
6.199002E+03	4.964375E-19	1.429761E-19
6.208904E+03	4.992483E-19	1.437716E-19
6.218807E+03	5.020699E-19	1.445699E-19
6.228709E+03	5.049006E-19	1.453705E-19
6.238612E+03	5.077384E-19	1.461728E-19
6.248515E+03	5.105882E-19	1.469783E-19
6.258417E+03	5.134555E-19	1.477885E-19
6.268320E+03	5.163318E-19	1.486009E-19
6.278222E+03	5.192224E-19	1.494171E-19
6.288125E+03	5.221331E-19	1.502388E-19
6.298027E+03	5.250555E-19	1.510635E-19
6.307930E+03	5.280030E-19	1.518951E-19
6.317833E+03	5.309746E-19	1.527333E-19
6.327735E+03	5.339693E-19	1.535779E-19
6.337638E+03	5.369864E-19	1.544284E-19
6.347540E+03	5.400405E-19	1.552893E-19
6.357443E+03	5.431232E-19	1.561580E-19
6.367345E+03	5.462502E-19	1.570391E-19
6.377248E+03	5.494213E-19	1.579325E-19
6.387150E+03	5.526366E-19	1.588383E-19
6.397053E+03	5.559045E-19	1.597588E-19
6.406956E+03	5.592255E-19	1.606941E-19
6.416858E+03	5.626082E-19	1.616468E-19
6.426761E+03	5.660364E-19	1.626121E-19
6.436663E+03	5.695277E-19	1.635951E-19
6.446566E+03	5.730829E-19	1.645961E-19
6.456468E+03	5.766939E-19	1.656127E-19
6.466371E+03	5.803703E-19	1.666477E-19
6.476273E+03	5.841132E-19	1.677013E-19
6.486176E+03	5.879238E-19	1.687738E-19
6.496079E+03	5.918028E-19	1.698656E-19
6.505981E+03	5.957610E-19	1.709796E-19
6.515884E+03	5.997904E-19	1.721135E-19
6.525786E+03	6.038919E-19	1.732677E-19
6.535689E+03	6.080770E-19	1.744454E-19
6.545591E+03	6.123472E-19	1.756470E-19
6.555494E+03	6.166940E-19	1.768700E-19
6.565396E+03	6.211294E-19	1.781179E-19
6.575299E+03	6.256444E-19	1.793881E-19
6.585202E+03	6.302621E-19	1.806872E-19
6.595104E+03	6.349631E-19	1.820097E-19
6.605007E+03	6.397490E-19	1.833559E-19
6.614909E+03	6.446328E-19	1.847296E-19
6.624812E+03	6.496164E-19	1.861312E-19
6.634714E+03	6.546907E-19	1.875583E-19
6.644617E+03	6.598576E-19	1.890113E-19
6.654520E+03	6.651306E-19	1.904940E-19
6.664422E+03	6.705003E-19	1.920038E-19
6.674325E+03	6.759807E-19	1.935447E-19
6.684227E+03	6.815500E-19	1.951103E-19
6.694130E+03	6.872346E-19	1.967083E-19
6.704032E+03	6.930121E-19	1.983322E-19
6.713935E+03	6.989096E-19	1.999897E-19
6.723837E+03	7.049042E-19	2.016742E-19
6.733740E+03	7.110109E-19	2.033901E-19
6.743643E+03	7.172321E-19	2.051380E-19
6.753545E+03	7.235568E-19	2.069148E-19
6.763448E+03	7.300008E-19	2.087249E-19
6.773350E+03	7.365528E-19	2.105651E-19
6.783253E+03	7.432291E-19	2.124400E-19
6.793155E+03	7.500041E-19	2.143423E-19
6.803058E+03	7.569081E-19	2.162806E-19
6.812960E+03	7.639296E-19	2.182516E-19
6.822863E+03	7.710709E-19	2.202560E-19
6.832766E+03	7.783197E-19	2.222903E-19
6.842668E+03	7.857079E-19	2.243634E-19
6.852571E+03	7.931931E-19	2.264633E-19
6.862473E+03	8.008229E-19	2.286036E-19
6.872376E+03	8.085694E-19	2.307762E-19
6.882278E+03	8.164347E-19	2.329818E-19
6.892181E+03	8.244370E-19	2.352254E-19
6.902083E+03	8.325629E-19	2.375034E-19
6.911986E+03	8.408151E-19	2.398163E-19
6.921889E+03	8.491954E-19	2.421648E-19
6.931791E+03	8.577063E-19	2.445494E-19
6.941694E+03	8.663497E-19	2.469707E-19
6.951596E+03	8.751122E-19	2.494249E-19
6.961499E+03	8.840302E-19	2.519223E-19
6.971401E+03	8.930535E-19	2.544486E-19
6.981304E+03	9.022368E-19	2.570193E-19
6.991207E+03	9.115299E-19	2.596201E-19
7.001109E+03	9.209707E-19	2.622619E-19
7.011012E+03	9.305428E-19	2.649397E-19
7.020914E+03	9.402487E-19	2.676545E-19
7.030817E+03	9.501105E-19	2.704124E-19
7.040719E+03	9.600914E-19	2.732029E-19
7.050622E+03	9.702126E-19	2.760321E-19
7.060524E+03	9.804575E-19	2.788952E-19
7.070427E+03	9.908472E-19	2.817981E-19
7.080330E+03	1.001384E-18	2.847414E-19
7.090232E+03	1.012049E-18	2.877201E-19
7.100135E+03	1.022867E-18	2.907407E-19
7.110037E+03	1.033797E-18	2.937917E-19
7.119940E+03	1.044882E-18	2.968853E-19
7.129842E+03	1.056104E-18	3.000166E-19
7.139745E+03	1.067443E-18	3.031796E-19
7.149647E+03	1.078921E-18	3.063807E-19
7.159550E+03	1.090541E-18	3.096204E-19
7.169453E+03	1.102283E-18	3.128934E-19
7.179355E+03	1.114147E-18	3.161992E-19
7.189258E+03	1.126133E-18	3.195385E-19
7.199160E+03	1.138245E-18	3.229116E-19
7.209063E+03	1.150482E-18	3.263188E-19
7.218965E+03	1.162797E-18	3.297466E-19
7.228868E+03	1.175240E-18	3.332088E-19
7.238770E+03	1.187785E-18	3.366986E-19
7.248673E+03	1.200409E-18	3.402089E-19
7.258576E+03	1.213136E-18	3.437470E-19
7.268478E+03	1.225915E-18	3.472979E-19
7.278381E+03	1.238745E-18	3.508618E-19
7.288283E+03	1.251624E-18	3.544375E-19
7.298186E+03	1.264523E-18	3.580175E-19
7.308088E+03	1.277467E-18	3.616084E-19
7.317991E+03	1.290372E-18	3.651867E-19
7.327894E+03	1.303288E-18	3.687665E-19
7.337796E+03	1.316158E-18	3.723314E-19
7.347699E+03	1.329004E-18	3.758877E-19
7.357601E+03	1.341793E-18	3.794265E-19
7.367504E+03	1.354520E-18	3.829459E-19
7.377406E+03	1.367209E-18	3.864529E-19
7.387309E+03	1.379826E-18	3.899379E-19
7.397211E+03	1.392457E-18	3.934251E-19
7.407114E+03	1.405037E-18	3.968961E-19
7.417017E+03	1.417622E-18	4.003671E-19
7.426919E+03	1.430179E-18	4.038286E-19
7.436822E+03	1.442800E-18	4.073063E-19
7.446724E+03	1.455452E-18	4.107913E-19
7.456627E+03	1.468133E-18	4.142825E-19
7.466529E+03	1.480873E-18	4.177889E-19
7.476432E+03	1.493672E-18	4.213104E-19
7.486334E+03	1.506598E-18	4.248657E-19
7.496237E+03	1.519582E-18	4.284360E-19
7.506140E+03	1.532660E-18	4.320308E-19
7.516042E+03	1.545866E-18	4.356603E-19
7.525945E+03	1.559166E-18	4.393145E-19
7.535847E+03	1.572598E-18	4.430042E-19
7.545750E+03	1.586126E-18	4.467191E-19
7.555652E+03	1.599824E-18	4.504801E-19
7.565555E+03	1.613621E-18	4.542675E-19
7.575457E+03	1.627593E-18	4.581022E-19
7.585360E+03	1.641667E-18	4.619640E-19
7.595263E+03	1.655920E-18	4.658742E-19
7.605165E+03	1.670278E-18	4.698123E-19
7.615068E+03	1.684820E-18	4.738003E-19
7.624970E+03	1.699509E-18	4.778278E-19
7.634873E+03	1.714348E-18	4.818959E-19
7.644775E+03	1.729339E-18	4.860045E-19
7.654678E+03	1.744482E-18	4.901545E-19
7.664581E+03	1.759783E-18	4.943465E-19
7.674483E+03	1.775199E-18	4.985695E-19
7.684386E+03	1.790817E-18	5.028470E-19
