#wls	flux	fluxerr
1.584409E+03	8.034767E-19	0.000000E+00
1.624020E+03	8.326835E-19	0.000000E+00
1.663630E+03	8.615264E-19	0.000000E+00
1.703240E+03	8.897926E-19	0.000000E+00
1.742850E+03	9.173004E-19	0.000000E+00
1.782461E+03	9.435838E-19	0.000000E+00
1.822071E+03	9.675464E-19	0.000000E+00
1.861681E+03	9.882463E-19	0.000000E+00
1.901291E+03	1.004323E-18	0.000000E+00
1.940902E+03	1.014473E-18	0.000000E+00
1.980512E+03	1.017955E-18	0.000000E+00
2.020122E+03	1.015740E-18	0.000000E+00
2.059732E+03	1.011507E-18	0.000000E+00
2.099342E+03	1.012075E-18	0.000000E+00
2.138953E+03	1.026002E-18	0.000000E+00
2.178563E+03	1.059471E-18	0.000000E+00
2.218173E+03	1.113564E-18	0.000000E+00
2.257783E+03	1.184381E-18	0.000000E+00
2.297394E+03	1.265664E-18	0.000000E+00
2.337004E+03	1.351610E-18	0.000000E+00
2.376614E+03	1.438128E-18	0.000000E+00
2.416224E+03	1.522887E-18	0.000000E+00
2.455835E+03	1.605062E-18	0.000000E+00
2.495445E+03	1.684420E-18	0.000000E+00
2.535055E+03	1.761270E-18	0.000000E+00
2.574665E+03	1.835878E-18	0.000000E+00
2.614276E+03	1.908609E-18	0.000000E+00
2.653886E+03	1.979662E-18	0.000000E+00
2.693496E+03	2.049177E-18	0.000000E+00
2.733106E+03	2.117233E-18	0.000000E+00
2.772716E+03	2.183779E-18	0.000000E+00
2.812327E+03	2.248716E-18	0.000000E+00
2.851937E+03	2.312026E-18	0.000000E+00
2.891547E+03	2.373523E-18	0.000000E+00
2.931157E+03	2.433291E-18	0.000000E+00
2.970768E+03	2.491193E-18	0.000000E+00
2.980670E+03	2.505443E-18	0.000000E+00
2.990573E+03	2.519538E-18	0.000000E+00
3.000475E+03	2.533471E-18	0.000000E+00
3.010378E+03	2.547349E-18	0.000000E+00
3.020280E+03	2.561109E-18	0.000000E+00
3.030183E+03	2.574743E-18	0.000000E+00
3.040086E+03	2.588330E-18	0.000000E+00
3.049988E+03	2.601913E-18	0.000000E+00
3.059891E+03	2.615590E-18	0.000000E+00
3.069793E+03	2.629430E-18	0.000000E+00
3.079696E+03	2.643284E-18	0.000000E+00
3.089598E+03	2.657171E-18	0.000000E+00
3.099501E+03	2.671003E-18	0.000000E+00
3.109403E+03	2.684909E-18	0.000000E+00
3.119306E+03	2.698699E-18	0.000000E+00
3.129209E+03	2.712401E-18	0.000000E+00
3.139111E+03	2.726039E-18	0.000000E+00
3.149014E+03	2.739590E-18	0.000000E+00
3.158916E+03	2.752928E-18	0.000000E+00
3.168819E+03	2.766187E-18	0.000000E+00
3.178721E+03	2.779245E-18	0.000000E+00
3.188624E+03	2.792135E-18	0.000000E+00
3.198526E+03	2.804790E-18	0.000000E+00
3.208429E+03	2.817245E-18	0.000000E+00
3.218332E+03	2.829485E-18	0.000000E+00
3.228234E+03	2.841497E-18	0.000000E+00
3.238137E+03	2.853221E-18	0.000000E+00
3.248039E+03	2.864693E-18	0.000000E+00
3.257942E+03	2.875904E-18	0.000000E+00
3.267844E+03	2.886797E-18	0.000000E+00
3.277747E+03	2.897410E-18	0.000000E+00
3.287650E+03	2.907690E-18	0.000000E+00
3.297552E+03	2.917677E-18	0.000000E+00
3.307455E+03	2.927318E-18	0.000000E+00
3.317357E+03	2.936609E-18	0.000000E+00
3.327260E+03	2.945546E-18	0.000000E+00
3.337162E+03	2.954125E-18	0.000000E+00
3.347065E+03	2.962343E-18	0.000000E+00
3.356967E+03	2.970154E-18	0.000000E+00
3.366870E+03	2.977599E-18	0.000000E+00
3.376773E+03	2.984595E-18	0.000000E+00
3.386675E+03	2.991226E-18	0.000000E+00
3.396578E+03	2.997405E-18	0.000000E+00
3.406480E+03	3.003136E-18	0.000000E+00
3.416383E+03	3.008420E-18	0.000000E+00
3.426285E+03	3.013221E-18	0.000000E+00
3.436188E+03	3.017583E-18	0.000000E+00
3.446090E+03	3.021469E-18	0.000000E+00
3.455993E+03	3.024843E-18	0.000000E+00
3.465896E+03	3.027710E-18	0.000000E+00
3.475798E+03	3.030044E-18	0.000000E+00
3.485701E+03	3.031881E-18	0.000000E+00
3.495603E+03	3.033122E-18	0.000000E+00
3.505506E+03	3.033814E-18	0.000000E+00
3.515408E+03	3.033924E-18	0.000000E+00
3.525311E+03	3.033469E-18	0.000000E+00
3.535213E+03	3.032381E-18	0.000000E+00
3.545116E+03	3.030640E-18	0.000000E+00
3.555019E+03	3.028299E-18	0.000000E+00
3.564921E+03	3.025258E-18	0.000000E+00
3.574824E+03	3.021575E-18	0.000000E+00
3.584726E+03	3.017228E-18	0.000000E+00
3.594629E+03	3.012166E-18	0.000000E+00
3.604531E+03	3.006374E-18	0.000000E+00
3.614434E+03	2.999871E-18	0.000000E+00
3.624337E+03	2.992612E-18	0.000000E+00
3.634239E+03	2.984651E-18	0.000000E+00
3.644142E+03	2.975912E-18	0.000000E+00
3.654044E+03	2.966417E-18	0.000000E+00
3.663947E+03	2.956160E-18	0.000000E+00
3.673849E+03	2.945164E-18	0.000000E+00
3.683752E+03	2.933392E-18	0.000000E+00
3.693654E+03	2.920869E-18	0.000000E+00
3.703557E+03	2.907591E-18	0.000000E+00
3.713460E+03	2.893584E-18	0.000000E+00
3.723362E+03	2.878845E-18	0.000000E+00
3.733265E+03	2.863399E-18	0.000000E+00
3.743167E+03	2.847245E-18	0.000000E+00
3.753070E+03	2.830380E-18	0.000000E+00
3.762972E+03	2.812889E-18	0.000000E+00
3.772875E+03	2.794712E-18	0.000000E+00
3.782777E+03	2.775905E-18	0.000000E+00
3.792680E+03	2.756521E-18	0.000000E+00
3.802583E+03	2.736531E-18	0.000000E+00
3.812485E+03	2.715961E-18	0.000000E+00
3.822388E+03	2.694862E-18	0.000000E+00
3.832290E+03	2.673260E-18	0.000000E+00
3.842193E+03	2.651176E-18	0.000000E+00
3.852095E+03	2.628611E-18	0.000000E+00
3.861998E+03	2.605612E-18	0.000000E+00
3.871900E+03	2.582201E-18	0.000000E+00
3.881803E+03	2.558401E-18	0.000000E+00
3.891706E+03	2.534234E-18	0.000000E+00
3.901608E+03	2.509719E-18	0.000000E+00
3.911511E+03	2.484902E-18	0.000000E+00
3.921413E+03	2.459801E-18	0.000000E+00
3.931316E+03	2.434412E-18	0.000000E+00
3.941218E+03	2.408800E-18	0.000000E+00
3.951121E+03	2.382960E-18	0.000000E+00
3.961024E+03	2.356930E-18	0.000000E+00
3.970926E+03	2.330729E-18	0.000000E+00
3.980829E+03	2.304350E-18	0.000000E+00
3.990731E+03	2.277851E-18	0.000000E+00
4.000634E+03	2.251227E-18	0.000000E+00
4.010536E+03	2.224513E-18	0.000000E+00
4.020439E+03	2.197722E-18	0.000000E+00
4.030341E+03	2.170868E-18	0.000000E+00
4.040244E+03	2.143965E-18	0.000000E+00
4.050147E+03	2.117044E-18	0.000000E+00
4.060049E+03	2.090097E-18	0.000000E+00
4.069952E+03	2.063138E-18	0.000000E+00
4.079854E+03	2.036214E-18	0.000000E+00
4.089757E+03	2.009300E-18	0.000000E+00
4.099659E+03	1.982424E-18	0.000000E+00
4.109562E+03	1.955597E-18	0.000000E+00
4.119464E+03	1.928828E-18	0.000000E+00
4.129367E+03	1.902128E-18	0.000000E+00
4.139270E+03	1.875505E-18	0.000000E+00
4.149172E+03	1.848968E-18	0.000000E+00
4.159075E+03	1.822526E-18	0.000000E+00
4.168977E+03	1.796188E-18	0.000000E+00
4.178880E+03	1.769961E-18	0.000000E+00
4.188782E+03	1.743838E-18	0.000000E+00
4.198685E+03	1.717828E-18	0.000000E+00
4.208587E+03	1.691953E-18	0.000000E+00
4.218490E+03	1.666220E-18	0.000000E+00
4.228393E+03	1.640607E-18	0.000000E+00
4.238295E+03	1.615136E-18	0.000000E+00
4.248198E+03	1.589814E-18	0.000000E+00
4.258100E+03	1.564647E-18	0.000000E+00
4.268003E+03	1.539641E-18	0.000000E+00
4.277905E+03	1.514790E-18	0.000000E+00
4.287808E+03	1.490125E-18	0.000000E+00
4.297711E+03	1.465626E-18	0.000000E+00
4.307613E+03	1.441323E-18	0.000000E+00
4.317516E+03	1.417222E-18	0.000000E+00
4.327418E+03	1.393339E-18	0.000000E+00
4.337321E+03	1.369677E-18	0.000000E+00
4.347223E+03	1.346251E-18	0.000000E+00
4.357126E+03	1.323064E-18	0.000000E+00
4.367028E+03	1.300141E-18	0.000000E+00
4.376931E+03	1.277483E-18	0.000000E+00
4.386834E+03	1.255091E-18	0.000000E+00
4.396736E+03	1.232988E-18	0.000000E+00
4.406639E+03	1.211173E-18	0.000000E+00
4.416541E+03	1.189657E-18	0.000000E+00
4.426444E+03	1.168460E-18	0.000000E+00
4.436346E+03	1.147570E-18	0.000000E+00
4.446249E+03	1.127004E-18	0.000000E+00
4.456151E+03	1.106771E-18	0.000000E+00
4.466054E+03	1.086867E-18	0.000000E+00
4.475957E+03	1.067299E-18	0.000000E+00
4.485859E+03	1.048073E-18	0.000000E+00
4.495762E+03	1.029193E-18	0.000000E+00
4.505664E+03	1.010665E-18	0.000000E+00
4.515567E+03	9.924848E-19	0.000000E+00
4.525469E+03	9.746458E-19	0.000000E+00
4.535372E+03	9.571710E-19	0.000000E+00
4.545274E+03	9.400445E-19	0.000000E+00
4.555177E+03	9.232614E-19	0.000000E+00
4.565080E+03	9.068330E-19	0.000000E+00
4.574982E+03	8.907616E-19	0.000000E+00
4.584885E+03	8.750239E-19	0.000000E+00
4.594787E+03	8.596469E-19	0.000000E+00
4.604690E+03	8.445989E-19	0.000000E+00
4.614592E+03	8.298984E-19	0.000000E+00
4.624495E+03	8.155380E-19	0.000000E+00
4.634398E+03	8.015114E-19	0.000000E+00
4.644300E+03	7.878115E-19	0.000000E+00
4.654203E+03	7.744317E-19	0.000000E+00
4.664105E+03	7.613805E-19	0.000000E+00
4.674008E+03	7.486437E-19	0.000000E+00
4.683910E+03	7.362145E-19	0.000000E+00
4.693813E+03	7.240941E-19	0.000000E+00
4.703715E+03	7.122610E-19	0.000000E+00
4.713618E+03	7.007304E-19	0.000000E+00
4.723521E+03	6.894756E-19	0.000000E+00
4.733423E+03	6.785038E-19	0.000000E+00
4.743326E+03	6.678094E-19	0.000000E+00
4.753228E+03	6.573728E-19	0.000000E+00
4.763131E+03	6.471952E-19	0.000000E+00
4.773033E+03	6.372779E-19	0.000000E+00
4.782936E+03	6.276022E-19	0.000000E+00
4.792838E+03	6.181694E-19	0.000000E+00
4.802741E+03	6.089748E-19	0.000000E+00
4.812644E+03	6.000069E-19	0.000000E+00
4.822546E+03	5.912610E-19	0.000000E+00
4.832449E+03	5.827385E-19	0.000000E+00
4.842351E+03	5.744287E-19	0.000000E+00
4.852254E+03	5.663333E-19	0.000000E+00
4.862156E+03	5.584360E-19	0.000000E+00
4.872059E+03	5.507387E-19	0.000000E+00
4.881961E+03	5.432374E-19	0.000000E+00
4.891864E+03	5.359222E-19	0.000000E+00
4.901767E+03	5.287950E-19	0.000000E+00
4.911669E+03	5.218466E-19	0.000000E+00
4.921572E+03	5.150789E-19	0.000000E+00
4.931474E+03	5.084825E-19	0.000000E+00
4.941377E+03	5.020546E-19	0.000000E+00
4.951279E+03	4.957860E-19	0.000000E+00
4.961182E+03	4.896847E-19	0.000000E+00
4.971085E+03	4.837366E-19	0.000000E+00
4.980987E+03	4.779391E-19	0.000000E+00
4.990890E+03	4.722942E-19	0.000000E+00
5.000792E+03	4.667943E-19	0.000000E+00
5.010695E+03	4.614362E-19	0.000000E+00
5.020597E+03	4.562174E-19	0.000000E+00
5.030500E+03	4.511355E-19	0.000000E+00
5.040402E+03	4.461831E-19	0.000000E+00
5.050305E+03	4.413582E-19	0.000000E+00
5.060208E+03	4.366627E-19	0.000000E+00
5.070110E+03	4.320851E-19	0.000000E+00
5.080013E+03	4.276329E-19	0.000000E+00
5.089915E+03	4.232906E-19	0.000000E+00
5.099818E+03	4.190642E-19	0.000000E+00
5.109720E+03	4.149485E-19	0.000000E+00
5.119623E+03	4.109407E-19	0.000000E+00
5.129525E+03	4.070398E-19	0.000000E+00
5.139428E+03	4.032394E-19	0.000000E+00
5.149331E+03	3.995381E-19	0.000000E+00
5.159233E+03	3.959302E-19	0.000000E+00
5.169136E+03	3.924223E-19	0.000000E+00
5.179038E+03	3.890008E-19	0.000000E+00
5.188941E+03	3.856686E-19	0.000000E+00
5.198843E+03	3.824243E-19	0.000000E+00
5.208746E+03	3.792668E-19	0.000000E+00
5.218648E+03	3.761864E-19	0.000000E+00
5.228551E+03	3.731865E-19	0.000000E+00
5.238454E+03	3.702626E-19	0.000000E+00
5.248356E+03	3.674126E-19	0.000000E+00
5.258259E+03	3.646329E-19	0.000000E+00
5.268161E+03	3.619254E-19	0.000000E+00
5.278064E+03	3.592827E-19	0.000000E+00
5.287966E+03	3.567035E-19	0.000000E+00
5.297869E+03	3.541835E-19	0.000000E+00
5.307772E+03	3.517257E-19	0.000000E+00
5.317674E+03	3.493189E-19	0.000000E+00
5.327577E+03	3.469660E-19	0.000000E+00
5.337479E+03	3.446630E-19	0.000000E+00
5.347382E+03	3.424059E-19	0.000000E+00
5.357284E+03	3.401841E-19	0.000000E+00
5.367187E+03	3.379939E-19	0.000000E+00
5.377089E+03	3.358318E-19	0.000000E+00
5.386992E+03	3.336809E-19	0.000000E+00
5.396895E+03	3.315380E-19	0.000000E+00
5.406797E+03	3.293902E-19	0.000000E+00
5.416700E+03	3.272311E-19	0.000000E+00
5.426602E+03	3.250711E-19	0.000000E+00
5.436505E+03	3.229071E-19	0.000000E+00
5.446407E+03	3.207491E-19	0.000000E+00
5.456310E+03	3.186001E-19	0.000000E+00
5.466212E+03	3.164730E-19	0.000000E+00
5.476115E+03	3.143642E-19	0.000000E+00
5.486018E+03	3.122798E-19	0.000000E+00
5.495920E+03	3.102192E-19	0.000000E+00
5.505823E+03	3.081915E-19	0.000000E+00
5.515725E+03	3.061930E-19	0.000000E+00
5.525628E+03	3.042261E-19	0.000000E+00
5.535530E+03	3.022904E-19	0.000000E+00
5.545433E+03	3.003913E-19	0.000000E+00
5.555335E+03	2.985252E-19	0.000000E+00
5.565238E+03	2.966943E-19	0.000000E+00
5.575141E+03	2.949010E-19	0.000000E+00
5.585043E+03	2.931446E-19	0.000000E+00
5.594946E+03	2.914274E-19	0.000000E+00
5.604848E+03	2.897457E-19	0.000000E+00
5.614751E+03	2.881017E-19	0.000000E+00
5.624653E+03	2.864977E-19	0.000000E+00
5.634556E+03	2.849330E-19	0.000000E+00
5.644459E+03	2.834067E-19	0.000000E+00
5.654361E+03	2.819182E-19	0.000000E+00
5.664264E+03	2.804725E-19	0.000000E+00
5.674166E+03	2.790632E-19	0.000000E+00
5.684069E+03	2.776953E-19	0.000000E+00
5.693971E+03	2.763680E-19	0.000000E+00
5.703874E+03	2.750778E-19	0.000000E+00
5.713776E+03	2.738269E-19	0.000000E+00
5.723679E+03	2.726174E-19	0.000000E+00
5.733582E+03	2.714458E-19	0.000000E+00
5.743484E+03	2.703113E-19	0.000000E+00
5.753387E+03	2.692192E-19	0.000000E+00
5.763289E+03	2.681630E-19	0.000000E+00
5.773192E+03	2.671448E-19	0.000000E+00
5.783094E+03	2.661640E-19	0.000000E+00
5.792997E+03	2.652201E-19	0.000000E+00
5.802899E+03	2.643153E-19	0.000000E+00
5.812802E+03	2.634431E-19	0.000000E+00
5.822705E+03	2.626089E-19	0.000000E+00
5.832607E+03	2.618090E-19	0.000000E+00
5.842510E+03	2.610430E-19	0.000000E+00
5.852412E+03	2.603102E-19	0.000000E+00
5.862315E+03	2.596101E-19	0.000000E+00
5.872217E+03	2.589451E-19	0.000000E+00
5.882120E+03	2.583088E-19	0.000000E+00
5.892022E+03	2.577006E-19	0.000000E+00
5.901925E+03	2.571230E-19	0.000000E+00
5.911828E+03	2.565754E-19	0.000000E+00
5.921730E+03	2.560514E-19	0.000000E+00
5.931633E+03	2.555564E-19	0.000000E+00
5.941535E+03	2.550811E-19	0.000000E+00
5.951438E+03	2.546337E-19	0.000000E+00
5.961340E+03	2.542050E-19	0.000000E+00
5.971243E+03	2.537942E-19	0.000000E+00
5.981146E+03	2.534040E-19	0.000000E+00
5.991048E+03	2.530307E-19	0.000000E+00
6.000951E+03	2.526739E-19	0.000000E+00
6.010853E+03	2.523269E-19	0.000000E+00
6.020756E+03	2.519953E-19	0.000000E+00
6.030658E+03	2.516693E-19	0.000000E+00
6.040561E+03	2.513545E-19	0.000000E+00
6.050463E+03	2.510471E-19	0.000000E+00
6.060366E+03	2.507435E-19	0.000000E+00
6.070269E+03	2.504431E-19	0.000000E+00
6.080171E+03	2.501483E-19	0.000000E+00
6.090074E+03	2.498552E-19	0.000000E+00
6.099976E+03	2.495633E-19	0.000000E+00
6.109879E+03	2.492779E-19	0.000000E+00
6.119781E+03	2.489924E-19	0.000000E+00
6.129684E+03	2.487091E-19	0.000000E+00
6.139586E+03	2.484304E-19	0.000000E+00
6.149489E+03	2.481589E-19	0.000000E+00
6.159392E+03	2.478907E-19	0.000000E+00
6.169294E+03	2.476252E-19	0.000000E+00
6.179197E+03	2.473649E-19	0.000000E+00
6.189099E+03	2.471060E-19	0.000000E+00
6.199002E+03	2.468509E-19	0.000000E+00
6.208904E+03	2.465990E-19	0.000000E+00
6.218807E+03	2.463530E-19	0.000000E+00
6.228709E+03	2.461123E-19	0.000000E+00
6.238612E+03	2.458761E-19	0.000000E+00
6.248515E+03	2.456472E-19	0.000000E+00
6.258417E+03	2.454284E-19	0.000000E+00
6.268320E+03	2.452158E-19	0.000000E+00
6.278222E+03	2.450122E-19	0.000000E+00
6.288125E+03	2.448204E-19	0.000000E+00
6.298027E+03	2.446367E-19	0.000000E+00
6.307930E+03	2.444672E-19	0.000000E+00
6.317833E+03	2.443117E-19	0.000000E+00
6.327735E+03	2.441698E-19	0.000000E+00
6.337638E+03	2.440409E-19	0.000000E+00
6.347540E+03	2.439319E-19	0.000000E+00
6.357443E+03	2.438389E-19	0.000000E+00
6.367345E+03	2.437687E-19	0.000000E+00
6.377248E+03	2.437213E-19	0.000000E+00
6.387150E+03	2.436963E-19	0.000000E+00
6.397053E+03	2.436974E-19	0.000000E+00
6.406956E+03	2.437244E-19	0.000000E+00
6.416858E+03	2.437810E-19	0.000000E+00
6.426761E+03	2.438598E-19	0.000000E+00
6.436663E+03	2.439682E-19	0.000000E+00
6.446566E+03	2.441062E-19	0.000000E+00
6.456468E+03	2.442702E-19	0.000000E+00
6.466371E+03	2.444639E-19	0.000000E+00
6.476273E+03	2.446874E-19	0.000000E+00
6.486176E+03	2.449410E-19	0.000000E+00
6.496079E+03	2.452247E-19	0.000000E+00
6.505981E+03	2.455426E-19	0.000000E+00
6.515884E+03	2.458909E-19	0.000000E+00
6.525786E+03	2.462700E-19	0.000000E+00
6.535689E+03	2.466840E-19	0.000000E+00
6.545591E+03	2.471333E-19	0.000000E+00
6.555494E+03	2.476139E-19	0.000000E+00
6.565396E+03	2.481305E-19	0.000000E+00
6.575299E+03	2.486790E-19	0.000000E+00
6.585202E+03	2.492684E-19	0.000000E+00
6.595104E+03	2.498904E-19	0.000000E+00
6.605007E+03	2.505455E-19	0.000000E+00
6.614909E+03	2.512383E-19	0.000000E+00
6.624812E+03	2.519693E-19	0.000000E+00
6.634714E+03	2.527345E-19	0.000000E+00
6.644617E+03	2.535344E-19	0.000000E+00
6.654520E+03	2.543738E-19	0.000000E+00
6.664422E+03	2.552486E-19	0.000000E+00
6.674325E+03	2.561641E-19	0.000000E+00
6.684227E+03	2.571114E-19	0.000000E+00
6.694130E+03	2.581002E-19	0.000000E+00
6.704032E+03	2.591218E-19	0.000000E+00
6.713935E+03	2.601860E-19	0.000000E+00
6.723837E+03	2.612839E-19	0.000000E+00
6.733740E+03	2.624208E-19	0.000000E+00
6.743643E+03	2.635972E-19	0.000000E+00
6.753545E+03	2.648088E-19	0.000000E+00
6.763448E+03	2.660610E-19	0.000000E+00
6.773350E+03	2.673494E-19	0.000000E+00
6.783253E+03	2.686796E-19	0.000000E+00
6.793155E+03	2.700421E-19	0.000000E+00
6.803058E+03	2.714474E-19	0.000000E+00
6.812960E+03	2.728912E-19	0.000000E+00
6.822863E+03	2.743739E-19	0.000000E+00
6.832766E+03	2.758910E-19	0.000000E+00
6.842668E+03	2.774534E-19	0.000000E+00
6.852571E+03	2.790459E-19	0.000000E+00
6.862473E+03	2.806849E-19	0.000000E+00
6.872376E+03	2.823605E-19	0.000000E+00
6.882278E+03	2.840731E-19	0.000000E+00
6.892181E+03	2.858287E-19	0.000000E+00
6.902083E+03	2.876225E-19	0.000000E+00
6.911986E+03	2.894549E-19	0.000000E+00
6.921889E+03	2.913267E-19	0.000000E+00
6.931791E+03	2.932382E-19	0.000000E+00
6.941694E+03	2.951902E-19	0.000000E+00
6.951596E+03	2.971774E-19	0.000000E+00
6.961499E+03	2.992119E-19	0.000000E+00
6.971401E+03	3.012769E-19	0.000000E+00
6.981304E+03	3.033905E-19	0.000000E+00
6.991207E+03	3.055354E-19	0.000000E+00
7.001109E+03	3.077243E-19	0.000000E+00
7.011012E+03	3.099514E-19	0.000000E+00
7.020914E+03	3.122175E-19	0.000000E+00
7.030817E+03	3.145293E-19	0.000000E+00
7.040719E+03	3.168748E-19	0.000000E+00
7.050622E+03	3.192608E-19	0.000000E+00
7.060524E+03	3.216814E-19	0.000000E+00
7.070427E+03	3.241435E-19	0.000000E+00
7.080330E+03	3.266476E-19	0.000000E+00
7.090232E+03	3.291877E-19	0.000000E+00
7.100135E+03	3.317710E-19	0.000000E+00
7.110037E+03	3.343845E-19	0.000000E+00
7.119940E+03	3.370420E-19	0.000000E+00
7.129842E+03	3.397373E-19	0.000000E+00
7.139745E+03	3.424638E-19	0.000000E+00
7.149647E+03	3.452288E-19	0.000000E+00
7.159550E+03	3.480328E-19	0.000000E+00
7.169453E+03	3.508690E-19	0.000000E+00
7.179355E+03	3.537377E-19	0.000000E+00
7.189258E+03	3.566391E-19	0.000000E+00
7.199160E+03	3.595735E-19	0.000000E+00
7.209063E+03	3.625410E-19	0.000000E+00
7.218965E+03	3.655268E-19	0.000000E+00
7.228868E+03	3.685462E-19	0.000000E+00
7.238770E+03	3.715915E-19	0.000000E+00
7.248673E+03	3.746549E-19	0.000000E+00
7.258576E+03	3.777443E-19	0.000000E+00
7.268478E+03	3.808436E-19	0.000000E+00
7.278381E+03	3.839525E-19	0.000000E+00
7.288283E+03	3.870704E-19	0.000000E+00
7.298186E+03	3.901887E-19	0.000000E+00
7.308088E+03	3.933150E-19	0.000000E+00
7.317991E+03	3.964237E-19	0.000000E+00
7.327894E+03	3.995302E-19	0.000000E+00
7.337796E+03	4.026171E-19	0.000000E+00
7.347699E+03	4.056913E-19	0.000000E+00
7.357601E+03	4.087434E-19	0.000000E+00
7.367504E+03	4.117717E-19	0.000000E+00
7.377406E+03	4.147837E-19	0.000000E+00
7.387309E+03	4.177696E-19	0.000000E+00
7.397211E+03	4.207548E-19	0.000000E+00
7.407114E+03	4.237210E-19	0.000000E+00
7.417017E+03	4.266845E-19	0.000000E+00
7.426919E+03	4.296360E-19	0.000000E+00
7.436822E+03	4.326023E-19	0.000000E+00
7.446724E+03	4.355743E-19	0.000000E+00
7.456627E+03	4.385512E-19	0.000000E+00
7.466529E+03	4.415421E-19	0.000000E+00
7.476432E+03	4.445467E-19	0.000000E+00
7.486334E+03	4.475856E-19	0.000000E+00
7.496237E+03	4.506378E-19	0.000000E+00
7.506140E+03	4.537144E-19	0.000000E+00
7.516042E+03	4.568249E-19	0.000000E+00
7.525945E+03	4.599596E-19	0.000000E+00
7.535847E+03	4.631294E-19	0.000000E+00
7.545750E+03	4.663238E-19	0.000000E+00
7.555652E+03	4.695643E-19	0.000000E+00
7.565555E+03	4.728297E-19	0.000000E+00
7.575457E+03	4.761428E-19	0.000000E+00
7.585360E+03	4.794814E-19	0.000000E+00
7.595263E+03	4.828686E-19	0.000000E+00
7.605165E+03	4.862821E-19	0.000000E+00
7.615068E+03	4.897455E-19	0.000000E+00
7.624970E+03	4.932473E-19	0.000000E+00
7.634873E+03	4.967883E-19	0.000000E+00
7.644775E+03	5.003689E-19	0.000000E+00
7.654678E+03	5.039900E-19	0.000000E+00
7.664581E+03	5.076516E-19	0.000000E+00
7.674483E+03	5.113426E-19	0.000000E+00
7.684386E+03	5.150874E-19	0.000000E+00
