#wls	flux	fluxerr
1.584409E+03	8.581073E-18	1.438697E-18
1.624020E+03	8.990268E-18	1.501890E-18
1.663630E+03	9.403805E-18	1.565178E-18
1.703240E+03	9.819355E-18	1.628147E-18
1.742850E+03	1.023485E-17	1.690430E-18
1.782461E+03	1.064489E-17	1.751119E-18
1.822071E+03	1.103667E-17	1.808102E-18
1.861681E+03	1.139857E-17	1.859503E-18
1.901291E+03	1.171357E-17	1.902597E-18
1.940902E+03	1.196462E-17	1.934710E-18
1.980512E+03	1.214055E-17	1.954169E-18
2.020122E+03	1.225046E-17	1.962583E-18
2.059732E+03	1.233689E-17	1.966879E-18
2.099342E+03	1.248307E-17	1.980307E-18
2.138953E+03	1.279772E-17	2.019872E-18
2.178563E+03	1.336445E-17	2.098275E-18
2.218173E+03	1.420544E-17	2.218320E-18
2.257783E+03	1.527940E-17	2.372853E-18
2.297394E+03	1.651219E-17	2.549759E-18
2.337004E+03	1.783211E-17	2.737541E-18
2.376614E+03	1.918693E-17	2.927914E-18
2.416224E+03	2.054570E-17	3.116011E-18
2.455835E+03	2.189660E-17	3.299956E-18
2.495445E+03	2.323544E-17	3.479063E-18
2.535055E+03	2.456533E-17	3.653748E-18
2.574665E+03	2.588896E-17	3.824353E-18
2.614276E+03	2.721051E-17	3.991431E-18
2.653886E+03	2.853193E-17	4.155189E-18
2.693496E+03	2.985438E-17	4.315714E-18
2.733106E+03	3.117812E-17	4.472957E-18
2.772716E+03	3.250150E-17	4.626600E-18
2.812327E+03	3.382201E-17	4.776207E-18
2.851937E+03	3.513823E-17	4.921509E-18
2.891547E+03	3.644611E-17	5.061880E-18
2.931157E+03	3.774557E-17	5.197261E-18
2.970768E+03	3.903303E-17	5.327118E-18
2.980670E+03	3.935387E-17	5.358832E-18
2.990573E+03	3.967323E-17	5.390098E-18
3.000475E+03	3.999098E-17	5.420900E-18
3.010378E+03	4.030879E-17	5.451463E-18
3.020280E+03	4.062561E-17	5.481647E-18
3.030183E+03	4.094132E-17	5.511432E-18
3.040086E+03	4.125713E-17	5.540983E-18
3.049988E+03	4.157371E-17	5.570387E-18
3.059891E+03	4.189262E-17	5.599853E-18
3.069793E+03	4.221495E-17	5.629521E-18
3.079696E+03	4.253833E-17	5.659072E-18
3.089598E+03	4.286302E-17	5.688539E-18
3.099501E+03	4.318762E-17	5.717734E-18
3.109403E+03	4.351417E-17	5.746926E-18
3.119306E+03	4.383960E-17	5.775706E-18
3.129209E+03	4.416429E-17	5.804127E-18
3.139111E+03	4.448866E-17	5.832241E-18
3.149014E+03	4.481227E-17	5.859990E-18
3.158916E+03	4.513304E-17	5.887105E-18
3.168819E+03	4.545312E-17	5.913867E-18
3.178721E+03	4.577047E-17	5.940010E-18
3.188624E+03	4.608560E-17	5.965601E-18
3.198526E+03	4.639736E-17	5.990495E-18
3.208429E+03	4.670628E-17	6.014761E-18
3.218332E+03	4.701207E-17	6.038365E-18
3.228234E+03	4.731446E-17	6.061275E-18
3.238137E+03	4.761241E-17	6.083360E-18
3.248039E+03	4.790646E-17	6.104695E-18
3.257942E+03	4.819642E-17	6.125255E-18
3.267844E+03	4.848126E-17	6.144917E-18
3.277747E+03	4.876160E-17	6.163762E-18
3.287650E+03	4.903646E-17	6.181670E-18
3.297552E+03	4.930646E-17	6.198725E-18
3.307455E+03	4.957065E-17	6.214814E-18
3.317357E+03	4.982889E-17	6.229924E-18
3.327260E+03	5.008106E-17	6.244044E-18
3.337162E+03	5.032703E-17	6.257167E-18
3.347065E+03	5.056669E-17	6.269282E-18
3.356967E+03	5.079918E-17	6.280293E-18
3.366870E+03	5.102516E-17	6.290287E-18
3.376773E+03	5.124308E-17	6.299080E-18
3.386675E+03	5.145433E-17	6.306850E-18
3.396578E+03	5.165741E-17	6.313422E-18
3.406480E+03	5.185226E-17	6.318798E-18
3.416383E+03	5.203887E-17	6.322983E-18
3.426285E+03	5.221649E-17	6.325899E-18
3.436188E+03	5.238582E-17	6.327637E-18
3.446090E+03	5.254617E-17	6.328124E-18
3.455993E+03	5.269684E-17	6.327286E-18
3.465896E+03	5.283786E-17	6.325139E-18
3.475798E+03	5.296861E-17	6.321617E-18
3.485701E+03	5.308979E-17	6.316817E-18
3.495603E+03	5.319947E-17	6.310519E-18
3.505506E+03	5.329840E-17	6.302828E-18
3.515408E+03	5.338601E-17	6.293687E-18
3.525311E+03	5.346242E-17	6.283122E-18
3.535213E+03	5.352645E-17	6.271011E-18
3.545116E+03	5.357763E-17	6.257309E-18
3.555019E+03	5.361674E-17	6.242127E-18
3.564921E+03	5.364209E-17	6.225280E-18
3.574824E+03	5.365449E-17	6.206878E-18
3.584726E+03	5.365354E-17	6.186891E-18
3.594629E+03	5.363823E-17	6.165219E-18
3.604531E+03	5.360824E-17	6.141842E-18
3.614434E+03	5.356383E-17	6.116806E-18
3.624337E+03	5.350411E-17	6.090030E-18
3.634239E+03	5.342996E-17	6.061629E-18
3.644142E+03	5.333997E-17	6.031462E-18
3.654044E+03	5.323448E-17	5.999588E-18
3.663947E+03	5.311327E-17	5.966000E-18
3.673849E+03	5.297671E-17	5.930759E-18
3.683752E+03	5.282408E-17	5.893802E-18
3.693654E+03	5.265577E-17	5.855193E-18
3.703557E+03	5.247164E-17	5.814936E-18
3.713460E+03	5.227210E-17	5.773096E-18
3.723362E+03	5.205705E-17	5.729679E-18
3.733265E+03	5.182691E-17	5.684753E-18
3.743167E+03	5.158160E-17	5.638326E-18
3.753070E+03	5.132105E-17	5.590412E-18
3.762972E+03	5.104673E-17	5.541186E-18
3.772875E+03	5.075757E-17	5.490550E-18
3.782777E+03	5.045451E-17	5.438627E-18
3.792680E+03	5.013850E-17	5.385534E-18
3.802583E+03	4.980900E-17	5.331231E-18
3.812485E+03	4.946649E-17	5.275785E-18
3.822388E+03	4.911187E-17	5.219308E-18
3.832290E+03	4.874558E-17	5.161863E-18
3.842193E+03	4.836804E-17	5.103510E-18
3.852095E+03	4.797924E-17	5.044262E-18
3.861998E+03	4.758006E-17	4.984223E-18
3.871900E+03	4.717091E-17	4.923453E-18
3.881803E+03	4.675221E-17	4.862006E-18
3.891706E+03	4.632437E-17	4.799938E-18
3.901608E+03	4.588778E-17	4.737302E-18
3.911511E+03	4.544327E-17	4.674193E-18
3.921413E+03	4.499122E-17	4.610661E-18
3.931316E+03	4.453160E-17	4.546713E-18
3.941218E+03	4.406558E-17	4.482479E-18
3.951121E+03	4.359313E-17	4.417962E-18
3.961024E+03	4.311500E-17	4.353248E-18
3.970926E+03	4.263151E-17	4.288378E-18
3.980829E+03	4.214265E-17	4.223355E-18
3.990731E+03	4.164949E-17	4.158295E-18
4.000634E+03	4.115199E-17	4.093199E-18
4.010536E+03	4.065082E-17	4.028140E-18
4.020439E+03	4.014628E-17	3.963153E-18
4.030341E+03	3.963867E-17	3.898271E-18
4.040244E+03	3.912830E-17	3.833528E-18
4.050147E+03	3.861578E-17	3.768988E-18
4.060049E+03	3.810105E-17	3.704649E-18
4.069952E+03	3.758439E-17	3.640540E-18
4.079854E+03	3.706673E-17	3.576752E-18
4.089757E+03	3.654766E-17	3.513250E-18
4.099659E+03	3.602776E-17	3.450089E-18
4.109562E+03	3.550728E-17	3.387296E-18
4.119464E+03	3.498647E-17	3.324893E-18
4.129367E+03	3.446555E-17	3.262903E-18
4.139270E+03	3.394477E-17	3.201348E-18
4.149172E+03	3.342434E-17	3.140249E-18
4.159075E+03	3.290449E-17	3.079625E-18
4.168977E+03	3.238542E-17	3.019497E-18
4.178880E+03	3.186737E-17	2.959882E-18
4.188782E+03	3.135026E-17	2.900772E-18
4.198685E+03	3.083431E-17	2.842187E-18
4.208587E+03	3.031999E-17	2.784167E-18
4.218490E+03	2.980750E-17	2.726728E-18
4.228393E+03	2.929650E-17	2.669836E-18
4.238295E+03	2.878747E-17	2.613531E-18
4.248198E+03	2.828059E-17	2.557828E-18
4.258100E+03	2.777605E-17	2.502739E-18
4.268003E+03	2.727402E-17	2.448275E-18
4.277905E+03	2.677444E-17	2.394429E-18
4.287808E+03	2.627796E-17	2.341253E-18
4.297711E+03	2.578426E-17	2.288715E-18
4.307613E+03	2.529398E-17	2.236865E-18
4.317516E+03	2.480725E-17	2.185711E-18
4.327418E+03	2.432442E-17	2.135278E-18
4.337321E+03	2.384560E-17	2.085569E-18
4.347223E+03	2.337113E-17	2.036609E-18
4.357126E+03	2.290110E-17	1.988399E-18
4.367028E+03	2.243602E-17	1.940976E-18
4.376931E+03	2.197596E-17	1.894339E-18
4.386834E+03	2.152098E-17	1.848487E-18
4.396736E+03	2.107154E-17	1.803450E-18
4.406639E+03	2.062769E-17	1.759221E-18
4.416541E+03	2.018964E-17	1.715811E-18
4.426444E+03	1.975782E-17	1.673243E-18
4.436346E+03	1.933205E-17	1.631494E-18
4.446249E+03	1.891269E-17	1.590586E-18
4.456151E+03	1.849994E-17	1.550522E-18
4.466054E+03	1.809376E-17	1.511291E-18
4.475957E+03	1.769429E-17	1.472896E-18
4.485859E+03	1.730168E-17	1.435338E-18
4.495762E+03	1.691603E-17	1.398616E-18
4.505664E+03	1.653743E-17	1.362730E-18
4.515567E+03	1.616584E-17	1.327665E-18
4.525469E+03	1.580116E-17	1.293406E-18
4.535372E+03	1.544379E-17	1.259975E-18
4.545274E+03	1.509347E-17	1.227343E-18
4.555177E+03	1.475011E-17	1.195493E-18
4.565080E+03	1.441390E-17	1.164433E-18
4.574982E+03	1.408486E-17	1.134157E-18
4.584885E+03	1.376263E-17	1.104626E-18
4.594787E+03	1.344760E-17	1.075865E-18
4.604690E+03	1.313928E-17	1.047826E-18
4.614592E+03	1.283793E-17	1.020522E-18
4.624495E+03	1.254342E-17	9.939371E-19
4.634398E+03	1.225561E-17	9.680519E-19
4.644300E+03	1.197439E-17	9.428503E-19
4.654203E+03	1.169963E-17	9.183153E-19
4.664105E+03	1.143142E-17	8.944486E-19
4.674008E+03	1.116952E-17	8.712237E-19
4.683910E+03	1.091382E-17	8.486264E-19
4.693813E+03	1.066437E-17	8.266543E-19
4.703715E+03	1.042089E-17	8.052796E-19
4.713618E+03	1.018363E-17	7.845169E-19
4.723521E+03	9.952201E-18	7.643298E-19
4.733423E+03	9.726743E-18	7.447236E-19
4.743326E+03	9.507170E-18	7.256863E-19
4.753228E+03	9.293202E-18	7.071917E-19
4.763131E+03	9.084867E-18	6.892366E-19
4.773033E+03	8.882163E-18	6.718161E-19
4.782936E+03	8.684820E-18	6.549049E-19
4.792838E+03	8.492846E-18	6.384991E-19
4.802741E+03	8.306149E-18	6.225873E-19
4.812644E+03	8.124557E-18	6.071522E-19
4.822546E+03	7.947978E-18	5.921827E-19
4.832449E+03	7.776406E-18	5.776744E-19
4.842351E+03	7.609677E-18	5.636110E-19
4.852254E+03	7.447766E-18	5.499867E-19
4.862156E+03	7.290439E-18	5.367807E-19
4.872059E+03	7.137681E-18	5.239882E-19
4.881961E+03	6.989407E-18	5.115995E-19
4.891864E+03	6.845453E-18	4.995990E-19
4.901767E+03	6.705808E-18	4.879829E-19
4.911669E+03	6.570315E-18	4.767364E-19
4.921572E+03	6.438961E-18	4.658555E-19
4.931474E+03	6.311588E-18	4.553258E-19
4.941377E+03	6.188120E-18	4.451389E-19
4.951279E+03	6.068410E-18	4.352816E-19
4.961182E+03	5.952509E-18	4.257545E-19
4.971085E+03	5.840211E-18	4.165406E-19
4.980987E+03	5.731450E-18	4.076324E-19
4.990890E+03	5.626209E-18	3.990264E-19
5.000792E+03	5.524352E-18	3.907106E-19
5.010695E+03	5.425813E-18	3.826779E-19
5.020597E+03	5.330522E-18	3.749213E-19
5.030500E+03	5.238414E-18	3.674339E-19
5.040402E+03	5.149370E-18	3.602055E-19
5.050305E+03	5.063328E-18	3.532297E-19
5.060208E+03	4.980281E-18	3.465041E-19
5.070110E+03	4.900068E-18	3.400155E-19
5.080013E+03	4.822733E-18	3.337653E-19
5.089915E+03	4.748071E-18	3.277377E-19
5.099818E+03	4.676132E-18	3.219342E-19
5.109720E+03	4.606816E-18	3.163465E-19
5.119623E+03	4.540075E-18	3.109697E-19
5.129525E+03	4.475863E-18	3.057992E-19
5.139428E+03	4.414091E-18	3.008274E-19
5.149331E+03	4.354716E-18	2.960502E-19
5.159233E+03	4.297657E-18	2.914605E-19
5.169136E+03	4.242963E-18	2.870605E-19
5.179038E+03	4.190469E-18	2.828378E-19
5.188941E+03	4.140186E-18	2.787920E-19
5.198843E+03	4.092082E-18	2.749198E-19
5.208746E+03	4.046129E-18	2.712183E-19
5.218648E+03	4.002216E-18	2.676789E-19
5.228551E+03	3.960361E-18	2.643019E-19
5.238454E+03	3.920501E-18	2.610823E-19
5.248356E+03	3.882616E-18	2.580176E-19
5.258259E+03	3.846649E-18	2.551033E-19
5.268161E+03	3.812621E-18	2.523401E-19
5.278064E+03	3.780441E-18	2.497212E-19
5.287966E+03	3.750099E-18	2.472450E-19
5.297869E+03	3.721546E-18	2.449079E-19
5.307772E+03	3.694813E-18	2.427111E-19
5.317674E+03	3.669782E-18	2.406463E-19
5.327577E+03	3.646487E-18	2.387154E-19
5.337479E+03	3.624891E-18	2.369152E-19
5.347382E+03	3.604958E-18	2.352430E-19
5.357284E+03	3.586583E-18	2.336915E-19
5.367187E+03	3.569736E-18	2.322585E-19
5.377089E+03	3.554390E-18	2.309419E-19
5.386992E+03	3.540376E-18	2.297304E-19
5.396895E+03	3.527673E-18	2.286225E-19
5.406797E+03	3.516153E-18	2.276097E-19
5.416700E+03	3.505759E-18	2.266883E-19
5.426602E+03	3.496607E-18	2.258656E-19
5.436505E+03	3.488668E-18	2.251393E-19
5.446407E+03	3.482043E-18	2.245153E-19
5.456310E+03	3.476731E-18	2.239931E-19
5.466212E+03	3.472830E-18	2.235783E-19
5.476115E+03	3.470267E-18	2.232658E-19
5.486018E+03	3.469073E-18	2.230570E-19
5.495920E+03	3.469212E-18	2.229493E-19
5.505823E+03	3.470755E-18	2.229468E-19
5.515725E+03	3.473635E-18	2.230447E-19
5.525628E+03	3.477854E-18	2.232431E-19
5.535530E+03	3.483383E-18	2.235395E-19
5.545433E+03	3.490264E-18	2.239366E-19
5.555335E+03	3.498435E-18	2.244300E-19
5.565238E+03	3.507906E-18	2.250202E-19
5.575141E+03	3.518688E-18	2.257078E-19
5.585043E+03	3.530759E-18	2.264911E-19
5.594946E+03	3.544133E-18	2.273711E-19
5.604848E+03	3.558752E-18	2.283437E-19
5.614751E+03	3.574633E-18	2.294102E-19
5.624653E+03	3.591794E-18	2.305716E-19
5.634556E+03	3.610218E-18	2.318269E-19
5.644459E+03	3.629888E-18	2.331748E-19
5.654361E+03	3.650788E-18	2.346145E-19
5.664264E+03	3.672978E-18	2.361499E-19
5.674166E+03	3.696367E-18	2.377753E-19
5.684069E+03	3.721020E-18	2.394948E-19
5.693971E+03	3.746922E-18	2.413078E-19
5.703874E+03	3.774020E-18	2.432109E-19
5.713776E+03	3.802344E-18	2.452063E-19
5.723679E+03	3.831920E-18	2.472958E-19
5.733582E+03	3.862697E-18	2.494764E-19
5.743484E+03	3.894662E-18	2.517475E-19
5.753387E+03	3.927889E-18	2.541141E-19
5.763289E+03	3.962281E-18	2.565703E-19
5.773192E+03	3.997869E-18	2.591185E-19
5.783094E+03	4.034643E-18	2.617581E-19
5.792997E+03	4.072589E-18	2.644888E-19
5.802899E+03	4.111741E-18	2.673132E-19
5.812802E+03	4.151996E-18	2.702248E-19
5.822705E+03	4.193433E-18	2.732292E-19
5.832607E+03	4.235991E-18	2.763230E-19
5.842510E+03	4.279657E-18	2.795056E-19
5.852412E+03	4.324413E-18	2.827765E-19
5.862315E+03	4.370246E-18	2.861351E-19
5.872217E+03	4.417185E-18	2.895840E-19
5.882120E+03	4.465114E-18	2.931161E-19
5.892022E+03	4.514012E-18	2.967303E-19
5.901925E+03	4.563906E-18	3.004293E-19
5.911828E+03	4.614776E-18	3.042120E-19
5.921730E+03	4.666489E-18	3.080704E-19
5.931633E+03	4.719127E-18	3.120103E-19
5.941535E+03	4.772493E-18	3.160196E-19
5.951438E+03	4.826725E-18	3.201076E-19
5.961340E+03	4.881618E-18	3.242616E-19
5.971243E+03	4.937133E-18	3.284795E-19
5.981146E+03	4.993289E-18	3.327631E-19
5.991048E+03	5.049984E-18	3.371063E-19
6.000951E+03	5.107173E-18	3.415066E-19
6.010853E+03	5.164682E-18	3.459531E-19
6.020756E+03	5.222582E-18	3.504511E-19
6.030658E+03	5.280629E-18	3.549847E-19
6.040561E+03	5.338888E-18	3.595588E-19
6.050463E+03	5.397232E-18	3.641655E-19
6.060366E+03	5.455528E-18	3.687963E-19
6.070269E+03	5.513704E-18	3.734468E-19
6.080171E+03	5.571753E-18	3.781172E-19
6.090074E+03	5.629533E-18	3.827981E-19
6.099976E+03	5.686961E-18	3.874844E-19
6.109879E+03	5.744101E-18	3.921809E-19
6.119781E+03	5.800725E-18	3.968724E-19
6.129684E+03	5.856821E-18	4.015586E-19
6.139586E+03	5.912391E-18	4.062398E-19
6.149489E+03	5.967465E-18	4.109186E-19
6.159392E+03	6.021921E-18	4.155869E-19
6.169294E+03	6.075712E-18	4.202419E-19
6.179197E+03	6.128870E-18	4.248860E-19
6.189099E+03	6.181269E-18	4.295109E-19
6.199002E+03	6.232944E-18	4.341193E-19
6.208904E+03	6.283851E-18	4.387084E-19
6.218807E+03	6.334037E-18	4.432817E-19
6.228709E+03	6.383473E-18	4.478367E-19
6.238612E+03	6.432130E-18	4.523709E-19
6.248515E+03	6.480067E-18	4.568875E-19
6.258417E+03	6.527347E-18	4.613904E-19
6.268320E+03	6.573859E-18	4.658711E-19
6.278222E+03	6.619669E-18	4.703334E-19
6.288125E+03	6.664850E-18	4.747817E-19
6.298027E+03	6.709287E-18	4.792072E-19
6.307930E+03	6.753152E-18	4.836213E-19
6.317833E+03	6.796431E-18	4.880224E-19
6.327735E+03	6.839111E-18	4.924086E-19
6.337638E+03	6.881178E-18	4.967782E-19
6.347540E+03	6.922821E-18	5.011440E-19
6.357443E+03	6.963933E-18	5.054977E-19
6.367345E+03	7.004712E-18	5.098527E-19
6.377248E+03	7.045158E-18	5.142084E-19
6.387150E+03	7.085271E-18	5.185642E-19
6.397053E+03	7.125158E-18	5.229272E-19
6.406956E+03	7.164824E-18	5.272971E-19
6.416858E+03	7.204384E-18	5.316818E-19
6.426761E+03	7.243627E-18	5.360650E-19
6.436663E+03	7.282778E-18	5.404628E-19
6.446566E+03	7.321848E-18	5.448755E-19
6.456468E+03	7.360734E-18	5.492946E-19
6.466371E+03	7.399560E-18	5.537290E-19
6.476273E+03	7.438336E-18	5.581787E-19
6.486176E+03	7.477077E-18	5.626444E-19
6.496079E+03	7.515796E-18	5.671264E-19
6.505981E+03	7.554627E-18	5.716345E-19
6.515884E+03	7.593466E-18	5.761601E-19
6.525786E+03	7.632326E-18	5.807039E-19
6.535689E+03	7.671351E-18	5.852761E-19
6.545591E+03	7.710558E-18	5.898777E-19
6.555494E+03	7.749841E-18	5.945002E-19
6.565396E+03	7.789343E-18	5.991541E-19
6.575299E+03	7.828957E-18	6.038306E-19
6.585202E+03	7.868966E-18	6.085512E-19
6.595104E+03	7.909126E-18	6.132969E-19
6.605007E+03	7.949457E-18	6.180685E-19
6.614909E+03	7.990115E-18	6.228778E-19
6.624812E+03	8.031122E-18	6.277264E-19
6.634714E+03	8.072369E-18	6.326052E-19
6.644617E+03	8.113867E-18	6.375148E-19
6.654520E+03	8.155779E-18	6.424675E-19
6.664422E+03	8.198004E-18	6.474552E-19
6.674325E+03	8.240688E-18	6.524892E-19
6.684227E+03	8.283570E-18	6.575483E-19
6.694130E+03	8.326975E-18	6.626580E-19
6.704032E+03	8.370622E-18	6.677958E-19
6.713935E+03	8.414831E-18	6.729869E-19
6.723837E+03	8.459330E-18	6.782091E-19
6.733740E+03	8.504290E-18	6.834760E-19
6.743643E+03	8.549750E-18	6.887903E-19
6.753545E+03	8.595555E-18	6.941394E-19
6.763448E+03	8.641899E-18	6.995385E-19
6.773350E+03	8.688644E-18	7.049764E-19
6.783253E+03	8.735982E-18	7.104684E-19
6.793155E+03	8.783606E-18	7.159890E-19
6.803058E+03	8.831870E-18	7.215671E-19
6.812960E+03	8.880631E-18	7.271907E-19
6.822863E+03	8.929908E-18	7.328611E-19
6.832766E+03	8.979573E-18	7.385675E-19
6.842668E+03	9.029976E-18	7.443384E-19
6.852571E+03	9.080633E-18	7.501339E-19
6.862473E+03	9.132084E-18	7.559981E-19
6.872376E+03	9.184002E-18	7.619039E-19
6.882278E+03	9.236424E-18	7.678541E-19
6.892181E+03	9.289536E-18	7.738638E-19
6.902083E+03	9.343192E-18	7.799208E-19
6.911986E+03	9.397420E-18	7.860273E-19
6.921889E+03	9.452242E-18	7.921846E-19
6.931791E+03	9.507685E-18	7.983951E-19
6.941694E+03	9.563762E-18	8.046594E-19
6.951596E+03	9.620327E-18	8.109652E-19
6.961499E+03	9.677766E-18	8.173447E-19
6.971401E+03	9.735552E-18	8.237532E-19
6.981304E+03	9.794261E-18	8.302394E-19
6.991207E+03	9.853358E-18	8.367576E-19
7.001109E+03	9.913254E-18	8.433424E-19
7.011012E+03	9.973771E-18	8.499786E-19
7.020914E+03	1.003494E-17	8.566684E-19
7.030817E+03	1.009698E-17	8.634313E-19
7.040719E+03	1.015953E-17	8.702346E-19
7.050622E+03	1.022280E-17	8.770970E-19
7.060524E+03	1.028661E-17	8.840029E-19
7.070427E+03	1.035119E-17	8.909720E-19
7.080330E+03	1.041657E-17	8.980066E-19
7.090232E+03	1.048258E-17	9.050911E-19
7.100135E+03	1.054944E-17	9.122453E-19
7.110037E+03	1.061675E-17	9.194338E-19
7.119940E+03	1.068497E-17	9.266961E-19
7.129842E+03	1.075390E-17	9.340158E-19
7.139745E+03	1.082336E-17	9.413755E-19
7.149647E+03	1.089358E-17	9.487959E-19
7.159550E+03	1.096458E-17	9.562789E-19
7.169453E+03	1.103618E-17	9.638078E-19
7.179355E+03	1.110839E-17	9.713836E-19
7.189258E+03	1.118125E-17	9.790087E-19
7.199160E+03	1.125475E-17	9.866835E-19
7.209063E+03	1.132894E-17	9.944111E-19
7.218965E+03	1.140336E-17	1.002152E-18
7.228868E+03	1.147851E-17	1.009948E-18
7.238770E+03	1.155416E-17	1.017781E-18
7.248673E+03	1.163010E-17	1.025630E-18
7.258576E+03	1.170657E-17	1.033518E-18
7.268478E+03	1.178313E-17	1.041403E-18
7.278381E+03	1.185976E-17	1.049286E-18
7.288283E+03	1.193648E-17	1.057166E-18
7.298186E+03	1.201305E-17	1.065024E-18
7.308088E+03	1.208972E-17	1.072879E-18
7.317991E+03	1.216573E-17	1.080665E-18
7.327894E+03	1.224161E-17	1.088428E-18
7.337796E+03	1.231681E-17	1.096119E-18
7.347699E+03	1.239161E-17	1.103761E-18
7.357601E+03	1.246573E-17	1.111332E-18
7.367504E+03	1.253915E-17	1.118827E-18
7.377406E+03	1.261216E-17	1.126272E-18
7.387309E+03	1.268446E-17	1.133640E-18
7.397211E+03	1.275687E-17	1.141005E-18
7.407114E+03	1.282886E-17	1.148318E-18
7.417017E+03	1.290095E-17	1.155627E-18
7.426919E+03	1.297291E-17	1.162909E-18
7.436822E+03	1.304558E-17	1.170241E-18
7.446724E+03	1.311869E-17	1.177598E-18
7.456627E+03	1.319224E-17	1.184980E-18
7.466529E+03	1.326651E-17	1.192413E-18
7.476432E+03	1.334153E-17	1.199897E-18
7.486334E+03	1.341787E-17	1.207488E-18
7.496237E+03	1.349497E-17	1.215132E-18
7.506140E+03	1.357315E-17	1.222858E-18
7.516042E+03	1.365271E-17	1.230695E-18
7.525945E+03	1.373337E-17	1.238617E-18
7.535847E+03	1.381546E-17	1.246654E-18
7.545750E+03	1.389866E-17	1.254777E-18
7.555652E+03	1.398362E-17	1.263043E-18
7.565555E+03	1.406974E-17	1.271399E-18
7.575457E+03	1.415765E-17	1.279901E-18
7.585360E+03	1.424673E-17	1.288494E-18
7.595263E+03	1.433764E-17	1.297236E-18
7.605165E+03	1.442976E-17	1.306070E-18
7.615068E+03	1.452374E-17	1.315057E-18
7.624970E+03	1.461929E-17	1.324168E-18
7.634873E+03	1.471640E-17	1.333404E-18
7.644775E+03	1.481512E-17	1.342767E-18
7.654678E+03	1.491544E-17	1.352259E-18
7.664581E+03	1.501739E-17	1.361879E-18
7.674483E+03	1.512064E-17	1.371599E-18
7.684386E+03	1.522590E-17	1.381482E-18
