#wls	flux	fluxerr
1.584409E+03	6.222989E-18	2.224727E-18
1.624020E+03	6.485888E-18	2.313691E-18
1.663630E+03	6.748418E-18	2.401966E-18
1.703240E+03	7.008798E-18	2.488898E-18
1.742850E+03	7.265449E-18	2.573910E-18
1.782461E+03	7.514491E-18	2.655620E-18
1.822071E+03	7.746908E-18	2.730846E-18
1.861681E+03	7.954728E-18	2.796808E-18
1.901291E+03	8.126434E-18	2.849516E-18
1.940902E+03	8.250757E-18	2.885114E-18
1.980512E+03	8.320792E-18	2.901316E-18
2.020122E+03	8.343601E-18	2.900730E-18
2.059732E+03	8.348798E-18	2.893758E-18
2.099342E+03	8.392595E-18	2.899875E-18
2.138953E+03	8.546747E-18	2.943658E-18
2.178563E+03	8.864352E-18	3.042951E-18
2.218173E+03	9.356427E-18	3.200929E-18
2.257783E+03	9.991938E-18	3.406350E-18
2.297394E+03	1.071920E-17	3.641074E-18
2.337004E+03	1.148940E-17	3.888170E-18
2.376614E+03	1.226751E-17	4.135585E-18
2.416224E+03	1.303302E-17	4.376312E-18
2.455835E+03	1.377801E-17	4.607676E-18
2.495445E+03	1.449961E-17	4.828710E-18
2.535055E+03	1.519950E-17	5.039993E-18
2.574665E+03	1.587906E-17	5.241988E-18
2.614276E+03	1.654049E-17	5.435426E-18
2.653886E+03	1.718457E-17	5.620557E-18
2.693496E+03	1.781152E-17	5.797458E-18
2.733106E+03	1.842103E-17	5.966026E-18
2.772716E+03	1.901163E-17	6.125789E-18
2.812327E+03	1.958140E-17	6.276151E-18
2.851937E+03	2.012908E-17	6.416735E-18
2.891547E+03	2.065197E-17	6.546724E-18
2.931157E+03	2.114967E-17	6.666052E-18
2.970768E+03	2.161987E-17	6.774062E-18
2.980670E+03	2.173357E-17	6.799443E-18
2.990573E+03	2.184511E-17	6.823989E-18
3.000475E+03	2.195445E-17	6.847684E-18
3.010378E+03	2.206248E-17	6.870808E-18
3.020280E+03	2.216863E-17	6.893187E-18
3.030183E+03	2.227284E-17	6.914798E-18
3.040086E+03	2.237574E-17	6.935848E-18
3.049988E+03	2.247770E-17	6.956445E-18
3.059891E+03	2.257956E-17	6.976851E-18
3.069793E+03	2.268187E-17	6.997234E-18
3.079696E+03	2.278334E-17	7.017197E-18
3.089598E+03	2.288409E-17	7.036777E-18
3.099501E+03	2.298337E-17	7.055743E-18
3.109403E+03	2.308226E-17	7.074425E-18
3.119306E+03	2.317910E-17	7.092319E-18
3.129209E+03	2.327411E-17	7.109492E-18
3.139111E+03	2.336748E-17	7.126006E-18
3.149014E+03	2.345901E-17	7.141797E-18
3.158916E+03	2.354758E-17	7.156534E-18
3.168819E+03	2.363433E-17	7.170559E-18
3.178721E+03	2.371820E-17	7.183558E-18
3.188624E+03	2.379946E-17	7.195613E-18
3.198526E+03	2.387752E-17	7.206553E-18
3.208429E+03	2.395266E-17	7.216463E-18
3.218332E+03	2.402475E-17	7.225311E-18
3.228234E+03	2.409366E-17	7.233061E-18
3.238137E+03	2.415887E-17	7.239561E-18
3.248039E+03	2.422068E-17	7.244906E-18
3.257942E+03	2.427900E-17	7.249073E-18
3.267844E+03	2.433333E-17	7.251923E-18
3.277747E+03	2.438401E-17	7.253558E-18
3.287650E+03	2.443057E-17	7.253846E-18
3.297552E+03	2.447333E-17	7.252889E-18
3.307455E+03	2.451186E-17	7.250565E-18
3.317357E+03	2.454611E-17	7.246867E-18
3.327260E+03	2.457606E-17	7.241791E-18
3.337162E+03	2.460166E-17	7.235338E-18
3.347065E+03	2.462290E-17	7.227504E-18
3.356967E+03	2.463939E-17	7.218187E-18
3.366870E+03	2.465150E-17	7.207500E-18
3.376773E+03	2.465849E-17	7.195240E-18
3.386675E+03	2.466110E-17	7.181623E-18
3.396578E+03	2.465864E-17	7.166461E-18
3.406480E+03	2.465111E-17	7.149766E-18
3.416383E+03	2.463857E-17	7.131559E-18
3.426285E+03	2.462072E-17	7.111762E-18
3.436188E+03	2.459792E-17	7.090494E-18
3.446090E+03	2.456990E-17	7.067682E-18
3.455993E+03	2.453639E-17	7.043259E-18
3.465896E+03	2.449747E-17	7.017258E-18
3.475798E+03	2.445290E-17	6.989620E-18
3.485701E+03	2.440307E-17	6.960468E-18
3.495603E+03	2.434715E-17	6.929577E-18
3.505506E+03	2.428556E-17	6.897074E-18
3.515408E+03	2.421810E-17	6.862918E-18
3.525311E+03	2.414490E-17	6.827155E-18
3.535213E+03	2.406549E-17	6.789665E-18
3.545116E+03	2.397975E-17	6.750425E-18
3.555019E+03	2.388811E-17	6.709569E-18
3.564921E+03	2.378988E-17	6.666918E-18
3.574824E+03	2.368553E-17	6.622613E-18
3.584726E+03	2.357496E-17	6.576639E-18
3.594629E+03	2.345782E-17	6.528914E-18
3.604531E+03	2.333405E-17	6.479435E-18
3.614434E+03	2.320387E-17	6.428276E-18
3.624337E+03	2.306699E-17	6.375370E-18
3.634239E+03	2.292390E-17	6.320867E-18
3.644142E+03	2.277408E-17	6.264637E-18
3.654044E+03	2.261779E-17	6.206767E-18
3.663947E+03	2.245505E-17	6.147275E-18
3.673849E+03	2.228611E-17	6.086244E-18
3.683752E+03	2.211077E-17	6.023636E-18
3.693654E+03	2.192932E-17	5.959541E-18
3.703557E+03	2.174180E-17	5.893986E-18
3.713460E+03	2.154850E-17	5.827061E-18
3.723362E+03	2.134948E-17	5.758795E-18
3.733265E+03	2.114501E-17	5.689279E-18
3.743167E+03	2.093519E-17	5.618548E-18
3.753070E+03	2.072008E-17	5.546632E-18
3.762972E+03	2.050038E-17	5.473733E-18
3.772875E+03	2.027577E-17	5.399775E-18
3.782777E+03	2.004673E-17	5.324898E-18
3.792680E+03	1.981373E-17	5.249239E-18
3.802583E+03	1.957667E-17	5.172777E-18
3.812485E+03	1.933581E-17	5.095599E-18
3.822388E+03	1.909162E-17	5.017832E-18
3.832290E+03	1.884435E-17	4.939554E-18
3.842193E+03	1.859425E-17	4.860839E-18
3.852095E+03	1.834141E-17	4.781718E-18
3.861998E+03	1.808624E-17	4.702303E-18
3.871900E+03	1.782898E-17	4.622667E-18
3.881803E+03	1.756985E-17	4.542874E-18
3.891706E+03	1.730910E-17	4.462991E-18
3.901608E+03	1.704694E-17	4.383082E-18
3.911511E+03	1.678374E-17	4.303243E-18
3.921413E+03	1.651970E-17	4.223533E-18
3.931316E+03	1.625488E-17	4.143968E-18
3.941218E+03	1.598975E-17	4.064676E-18
3.951121E+03	1.572437E-17	3.985669E-18
3.961024E+03	1.545905E-17	3.907033E-18
3.970926E+03	1.519396E-17	3.828812E-18
3.980829E+03	1.492913E-17	3.751014E-18
3.990731E+03	1.466499E-17	3.673748E-18
4.000634E+03	1.440156E-17	3.597020E-18
4.010536E+03	1.413911E-17	3.520899E-18
4.020439E+03	1.387778E-17	3.445420E-18
4.030341E+03	1.361771E-17	3.370612E-18
4.040244E+03	1.335901E-17	3.296508E-18
4.050147E+03	1.310194E-17	3.223166E-18
4.060049E+03	1.284648E-17	3.150584E-18
4.069952E+03	1.259276E-17	3.078786E-18
4.079854E+03	1.234109E-17	3.007851E-18
4.089757E+03	1.209136E-17	2.937747E-18
4.099659E+03	1.184378E-17	2.868522E-18
4.109562E+03	1.159843E-17	2.800193E-18
4.119464E+03	1.135540E-17	2.732776E-18
4.129367E+03	1.111477E-17	2.666290E-18
4.139270E+03	1.087661E-17	2.600748E-18
4.149172E+03	1.064102E-17	2.536165E-18
4.159075E+03	1.040805E-17	2.472552E-18
4.168977E+03	1.017778E-17	2.409921E-18
4.178880E+03	9.950270E-18	2.348282E-18
4.188782E+03	9.725486E-18	2.287622E-18
4.198685E+03	9.503497E-18	2.227953E-18
4.208587E+03	9.284442E-18	2.169302E-18
4.218490E+03	9.068362E-18	2.111672E-18
4.228393E+03	8.855156E-18	2.055034E-18
4.238295E+03	8.644938E-18	1.999409E-18
4.248198E+03	8.437749E-18	1.944800E-18
4.258100E+03	8.233632E-18	1.891212E-18
4.268003E+03	8.032621E-18	1.838646E-18
4.277905E+03	7.834665E-18	1.787084E-18
4.287808E+03	7.639944E-18	1.736560E-18
4.297711E+03	7.448330E-18	1.687041E-18
4.307613E+03	7.259981E-18	1.638553E-18
4.317516E+03	7.074908E-18	1.591094E-18
4.327418E+03	6.893176E-18	1.544670E-18
4.337321E+03	6.714790E-18	1.499276E-18
4.347223E+03	6.539803E-18	1.454917E-18
4.357126E+03	6.368206E-18	1.411582E-18
4.367028E+03	6.200099E-18	1.369286E-18
4.376931E+03	6.035461E-18	1.328017E-18
4.386834E+03	5.874272E-18	1.287762E-18
4.396736E+03	5.716601E-18	1.248528E-18
4.406639E+03	5.562426E-18	1.210303E-18
4.416541E+03	5.411752E-18	1.173079E-18
4.426444E+03	5.264637E-18	1.136862E-18
4.436346E+03	5.120982E-18	1.101622E-18
4.446249E+03	4.980834E-18	1.067361E-18
4.456151E+03	4.844182E-18	1.034068E-18
4.466054E+03	4.710969E-18	1.001724E-18
4.475957E+03	4.581178E-18	9.703169E-19
4.485859E+03	4.454790E-18	9.398349E-19
4.495762E+03	4.331779E-18	9.102649E-19
4.505664E+03	4.212119E-18	8.815932E-19
4.515567E+03	4.095739E-18	8.537976E-19
4.525469E+03	3.982568E-18	8.268556E-19
4.535372E+03	3.872650E-18	8.007687E-19
4.545274E+03	3.765870E-18	7.755060E-19
4.555177E+03	3.662157E-18	7.510451E-19
4.565080E+03	3.561506E-18	7.273784E-19
4.574982E+03	3.463876E-18	7.044897E-19
4.584885E+03	3.369123E-18	6.823433E-19
4.594787E+03	3.277305E-18	6.609437E-19
4.604690E+03	3.188249E-18	6.402493E-19
4.614592E+03	3.101975E-18	6.202575E-19
4.624495E+03	3.018407E-18	6.009469E-19
4.634398E+03	2.937471E-18	5.822960E-19
4.644300E+03	2.859094E-18	5.642842E-19
4.654203E+03	2.783205E-18	5.468914E-19
4.664105E+03	2.709788E-18	5.301085E-19
4.674008E+03	2.638745E-18	5.139106E-19
4.683910E+03	2.570008E-18	4.982787E-19
4.693813E+03	2.503536E-18	4.831991E-19
4.703715E+03	2.439213E-18	4.686443E-19
4.713618E+03	2.377050E-18	4.546110E-19
4.723521E+03	2.316911E-18	4.410682E-19
4.733423E+03	2.258784E-18	4.280085E-19
4.743326E+03	2.202610E-18	4.154159E-19
4.753228E+03	2.148285E-18	4.032663E-19
4.763131E+03	2.095779E-18	3.915493E-19
4.773033E+03	2.045058E-18	3.802542E-19
4.782936E+03	1.996028E-18	3.693589E-19
4.792838E+03	1.948659E-18	3.588543E-19
4.802741E+03	1.902903E-18	3.487269E-19
4.812644E+03	1.858692E-18	3.389606E-19
4.822546E+03	1.815981E-18	3.295433E-19
4.832449E+03	1.774744E-18	3.204667E-19
4.842351E+03	1.734920E-18	3.117160E-19
4.852254E+03	1.696485E-18	3.032832E-19
4.862156E+03	1.659364E-18	2.951518E-19
4.872059E+03	1.623535E-18	2.873145E-19
4.881961E+03	1.588961E-18	2.797614E-19
4.891864E+03	1.555589E-18	2.724802E-19
4.901767E+03	1.523401E-18	2.654646E-19
4.911669E+03	1.492346E-18	2.587030E-19
4.921572E+03	1.462409E-18	2.521896E-19
4.931474E+03	1.433541E-18	2.459134E-19
4.941377E+03	1.405712E-18	2.398667E-19
4.951279E+03	1.378880E-18	2.340393E-19
4.961182E+03	1.353044E-18	2.284288E-19
4.971085E+03	1.328149E-18	2.230235E-19
4.980987E+03	1.304171E-18	2.178166E-19
4.990890E+03	1.281096E-18	2.128038E-19
5.000792E+03	1.258888E-18	2.079768E-19
5.010695E+03	1.237524E-18	2.033295E-19
5.020597E+03	1.216980E-18	1.988561E-19
5.030500E+03	1.197237E-18	1.945510E-19
5.040402E+03	1.178261E-18	1.904070E-19
5.050305E+03	1.160035E-18	1.864191E-19
5.060208E+03	1.142548E-18	1.825842E-19
5.070110E+03	1.125763E-18	1.788939E-19
5.080013E+03	1.109684E-18	1.753475E-19
5.089915E+03	1.094260E-18	1.719351E-19
5.099818E+03	1.079499E-18	1.686563E-19
5.109720E+03	1.065376E-18	1.655056E-19
5.119623E+03	1.051876E-18	1.624790E-19
5.129525E+03	1.038987E-18	1.595730E-19
5.139428E+03	1.026683E-18	1.567825E-19
5.149331E+03	1.014955E-18	1.541044E-19
5.159233E+03	1.003781E-18	1.515341E-19
5.169136E+03	9.931697E-19	1.490716E-19
5.179038E+03	9.830818E-19	1.467095E-19
5.188941E+03	9.735175E-19	1.444468E-19
5.198843E+03	9.644685E-19	1.422809E-19
5.208746E+03	9.559266E-19	1.402095E-19
5.218648E+03	9.478637E-19	1.382273E-19
5.228551E+03	9.402842E-19	1.363338E-19
5.238454E+03	9.331703E-19	1.345254E-19
5.248356E+03	9.265176E-19	1.328004E-19
5.258259E+03	9.203095E-19	1.311555E-19
5.268161E+03	9.145519E-19	1.295905E-19
5.278064E+03	9.092206E-19	1.281011E-19
5.287966E+03	9.043118E-19	1.266859E-19
5.297869E+03	8.998132E-19	1.253423E-19
5.307772E+03	8.957301E-19	1.240702E-19
5.317674E+03	8.920330E-19	1.228648E-19
5.327577E+03	8.887282E-19	1.217262E-19
5.337479E+03	8.858049E-19	1.206523E-19
5.347382E+03	8.832529E-19	1.196409E-19
5.357284E+03	8.810435E-19	1.186876E-19
5.367187E+03	8.791670E-19	1.177906E-19
5.377089E+03	8.776145E-19	1.169481E-19
5.386992E+03	8.763411E-19	1.161537E-19
5.396895E+03	8.753376E-19	1.154059E-19
5.406797E+03	8.745696E-19	1.146999E-19
5.416700E+03	8.740174E-19	1.140328E-19
5.426602E+03	8.737072E-19	1.134078E-19
5.436505E+03	8.736279E-19	1.128233E-19
5.446407E+03	8.738043E-19	1.122823E-19
5.456310E+03	8.742427E-19	1.117854E-19
5.466212E+03	8.749736E-19	1.113361E-19
5.476115E+03	8.759863E-19	1.109323E-19
5.486018E+03	8.772939E-19	1.105751E-19
5.495920E+03	8.788944E-19	1.102638E-19
5.505823E+03	8.808117E-19	1.100009E-19
5.515725E+03	8.830328E-19	1.097840E-19
5.525628E+03	8.855644E-19	1.096136E-19
5.535530E+03	8.884039E-19	1.094888E-19
5.545433E+03	8.915679E-19	1.094111E-19
5.555335E+03	8.950437E-19	1.093786E-19
5.565238E+03	8.988393E-19	1.093916E-19
5.575141E+03	9.029616E-19	1.094508E-19
5.585043E+03	9.074091E-19	1.095553E-19
5.594946E+03	9.121889E-19	1.097057E-19
5.604848E+03	9.172905E-19	1.099003E-19
5.614751E+03	9.227225E-19	1.101398E-19
5.624653E+03	9.284924E-19	1.104247E-19
5.634556E+03	9.345997E-19	1.107547E-19
5.644459E+03	9.410426E-19	1.111292E-19
5.654361E+03	9.478215E-19	1.115479E-19
5.664264E+03	9.549550E-19	1.120128E-19
5.674166E+03	9.624224E-19	1.125212E-19
5.684069E+03	9.702432E-19	1.130752E-19
5.693971E+03	9.784180E-19	1.136745E-19
5.703874E+03	9.869353E-19	1.143178E-19
5.713776E+03	9.958053E-19	1.150060E-19
5.723679E+03	1.005038E-18	1.157401E-19
5.733582E+03	1.014624E-18	1.165190E-19
5.743484E+03	1.024562E-18	1.173423E-19
5.753387E+03	1.034875E-18	1.182127E-19
5.763289E+03	1.045540E-18	1.191275E-19
5.773192E+03	1.056568E-18	1.200879E-19
5.783094E+03	1.067959E-18	1.210939E-19
5.792997E+03	1.079712E-18	1.221456E-19
5.802899E+03	1.091840E-18	1.232444E-19
5.812802E+03	1.104318E-18	1.243875E-19
5.822705E+03	1.117169E-18	1.255779E-19
5.832607E+03	1.130382E-18	1.268142E-19
5.842510E+03	1.143954E-18	1.280965E-19
5.852412E+03	1.157886E-18	1.294250E-19
5.862315E+03	1.172174E-18	1.307997E-19
5.872217E+03	1.186834E-18	1.322223E-19
5.882120E+03	1.201833E-18	1.336899E-19
5.892022E+03	1.217171E-18	1.352026E-19
5.901925E+03	1.232859E-18	1.367620E-19
5.911828E+03	1.248895E-18	1.383684E-19
5.921730E+03	1.265244E-18	1.400186E-19
5.931633E+03	1.281935E-18	1.417160E-19
5.941535E+03	1.298916E-18	1.434557E-19
5.951438E+03	1.316229E-18	1.452427E-19
5.961340E+03	1.333822E-18	1.470720E-19
5.971243E+03	1.351688E-18	1.489434E-19
5.981146E+03	1.369836E-18	1.508588E-19
5.991048E+03	1.388243E-18	1.528162E-19
6.000951E+03	1.406900E-18	1.548157E-19
6.010853E+03	1.425763E-18	1.568531E-19
6.020756E+03	1.444857E-18	1.589318E-19
6.030658E+03	1.464119E-18	1.610461E-19
6.040561E+03	1.483571E-18	1.631993E-19
6.050463E+03	1.503183E-18	1.653889E-19
6.060366E+03	1.522922E-18	1.676125E-19
6.070269E+03	1.542775E-18	1.698694E-19
6.080171E+03	1.562743E-18	1.721610E-19
6.090074E+03	1.582792E-18	1.744846E-19
6.099976E+03	1.602906E-18	1.768394E-19
6.109879E+03	1.623107E-18	1.792290E-19
6.119781E+03	1.643337E-18	1.816482E-19
6.129684E+03	1.663600E-18	1.840985E-19
6.139586E+03	1.683898E-18	1.865814E-19
6.149489E+03	1.704234E-18	1.890983E-19
6.159392E+03	1.724570E-18	1.916463E-19
6.169294E+03	1.744887E-18	1.942244E-19
6.179197E+03	1.765189E-18	1.968343E-19
6.189099E+03	1.785433E-18	1.994724E-19
6.199002E+03	1.805622E-18	2.021404E-19
6.208904E+03	1.825739E-18	2.048374E-19
6.218807E+03	1.845787E-18	2.075651E-19
6.228709E+03	1.865751E-18	2.103229E-19
6.238612E+03	1.885614E-18	2.131101E-19
6.248515E+03	1.905386E-18	2.159287E-19
6.258417E+03	1.925083E-18	2.187803E-19
6.268320E+03	1.944665E-18	2.216607E-19
6.278222E+03	1.964148E-18	2.245714E-19
6.288125E+03	1.983547E-18	2.275141E-19
6.298027E+03	2.002824E-18	2.304843E-19
6.307930E+03	2.022025E-18	2.334872E-19
6.317833E+03	2.041141E-18	2.365213E-19
6.327735E+03	2.060163E-18	2.395855E-19
6.337638E+03	2.079084E-18	2.426786E-19
6.347540E+03	2.097956E-18	2.458064E-19
6.357443E+03	2.116741E-18	2.489642E-19
6.367345E+03	2.135497E-18	2.521583E-19
6.377248E+03	2.154220E-18	2.553881E-19
6.387150E+03	2.172905E-18	2.586526E-19
6.397053E+03	2.191583E-18	2.619550E-19
6.406956E+03	2.210253E-18	2.652949E-19
6.416858E+03	2.228947E-18	2.686757E-19
6.426761E+03	2.247594E-18	2.720888E-19
6.436663E+03	2.266265E-18	2.755419E-19
6.446566E+03	2.284957E-18	2.790345E-19
6.456468E+03	2.303640E-18	2.825625E-19
6.466371E+03	2.322346E-18	2.861293E-19
6.476273E+03	2.341078E-18	2.897350E-19
6.486176E+03	2.359838E-18	2.933792E-19
6.496079E+03	2.378627E-18	2.970619E-19
6.505981E+03	2.397487E-18	3.007877E-19
6.515884E+03	2.416384E-18	3.045520E-19
6.525786E+03	2.435318E-18	3.083544E-19
6.535689E+03	2.454334E-18	3.122000E-19
6.545591E+03	2.473436E-18	3.160893E-19
6.555494E+03	2.492589E-18	3.200171E-19
6.565396E+03	2.511838E-18	3.239889E-19
6.575299E+03	2.531146E-18	3.279994E-19
6.585202E+03	2.550605E-18	3.320603E-19
6.595104E+03	2.570133E-18	3.361605E-19
6.605007E+03	2.589736E-18	3.403005E-19
6.614909E+03	2.609464E-18	3.444863E-19
6.624812E+03	2.629323E-18	3.487185E-19
6.634714E+03	2.649277E-18	3.529919E-19
6.644617E+03	2.669328E-18	3.573064E-19
6.654520E+03	2.689531E-18	3.616689E-19
6.664422E+03	2.709845E-18	3.660738E-19
6.674325E+03	2.730327E-18	3.705283E-19
6.684227E+03	2.750885E-18	3.750195E-19
6.694130E+03	2.771624E-18	3.795617E-19
6.704032E+03	2.792454E-18	3.841418E-19
6.713935E+03	2.813480E-18	3.887740E-19
6.723837E+03	2.834609E-18	3.934455E-19
6.733740E+03	2.855899E-18	3.981637E-19
6.743643E+03	2.877358E-18	4.029294E-19
6.753545E+03	2.898940E-18	4.077360E-19
6.763448E+03	2.920707E-18	4.125917E-19
6.773350E+03	2.942613E-18	4.174899E-19
6.783253E+03	2.964717E-18	4.224386E-19
6.793155E+03	2.986919E-18	4.274232E-19
6.803058E+03	3.009338E-18	4.324603E-19
6.812960E+03	3.031924E-18	4.375427E-19
6.822863E+03	3.054685E-18	4.426711E-19
6.832766E+03	3.077572E-18	4.478380E-19
6.842668E+03	3.100708E-18	4.530612E-19
6.852571E+03	3.123924E-18	4.583156E-19
6.862473E+03	3.147406E-18	4.636281E-19
6.872376E+03	3.171041E-18	4.689819E-19
6.882278E+03	3.194839E-18	4.743781E-19
6.892181E+03	3.218867E-18	4.798263E-19
6.902083E+03	3.243070E-18	4.853183E-19
6.911986E+03	3.267458E-18	4.908550E-19
6.921889E+03	3.292036E-18	4.964370E-19
6.931791E+03	3.316814E-18	5.020654E-19
6.941694E+03	3.341799E-18	5.077411E-19
6.951596E+03	3.366933E-18	5.134549E-19
6.961499E+03	3.392354E-18	5.192276E-19
6.971401E+03	3.417873E-18	5.250298E-19
6.981304E+03	3.443695E-18	5.308929E-19
6.991207E+03	3.469627E-18	5.367870E-19
7.001109E+03	3.495813E-18	5.427336E-19
7.011012E+03	3.522189E-18	5.487228E-19
7.020914E+03	3.548766E-18	5.547557E-19
7.030817E+03	3.575620E-18	5.608443E-19
7.040719E+03	3.602616E-18	5.669670E-19
7.050622E+03	3.629834E-18	5.731358E-19
7.060524E+03	3.657206E-18	5.793400E-19
7.070427E+03	3.684814E-18	5.855919E-19
7.080330E+03	3.712664E-18	5.918924E-19
7.090232E+03	3.740691E-18	5.982307E-19
7.100135E+03	3.768975E-18	6.046193E-19
7.110037E+03	3.797371E-18	6.110345E-19
7.119940E+03	3.826041E-18	6.175021E-19
7.129842E+03	3.854911E-18	6.240099E-19
7.139745E+03	3.883913E-18	6.305464E-19
7.149647E+03	3.913127E-18	6.371243E-19
7.159550E+03	3.942564E-18	6.437448E-19
7.169453E+03	3.972148E-18	6.503954E-19
7.179355E+03	4.001882E-18	6.570761E-19
7.189258E+03	4.031773E-18	6.637875E-19
7.199160E+03	4.061828E-18	6.705303E-19
7.209063E+03	4.092049E-18	6.773047E-19
7.218965E+03	4.122271E-18	6.840827E-19
7.228868E+03	4.152670E-18	6.908928E-19
7.238770E+03	4.183161E-18	6.977208E-19
7.248673E+03	4.213661E-18	7.045521E-19
7.258576E+03	4.244262E-18	7.114013E-19
7.268478E+03	4.274785E-18	7.182384E-19
7.278381E+03	4.305230E-18	7.250623E-19
7.288283E+03	4.335598E-18	7.318725E-19
7.298186E+03	4.365793E-18	7.386522E-19
7.308088E+03	4.395905E-18	7.454160E-19
7.317991E+03	4.425654E-18	7.521153E-19
7.327894E+03	4.455218E-18	7.587797E-19
7.337796E+03	4.484404E-18	7.653754E-19
7.347699E+03	4.513300E-18	7.719167E-19
7.357601E+03	4.541801E-18	7.783846E-19
7.367504E+03	4.569900E-18	7.847771E-19
7.377406E+03	4.597686E-18	7.911085E-19
7.387309E+03	4.625051E-18	7.973595E-19
7.397211E+03	4.652289E-18	8.035800E-19
7.407114E+03	4.679194E-18	8.097337E-19
7.417017E+03	4.705964E-18	8.158543E-19
7.426919E+03	4.732494E-18	8.219228E-19
7.436822E+03	4.759090E-18	8.279920E-19
7.446724E+03	4.785651E-18	8.340439E-19
7.456627E+03	4.812178E-18	8.400784E-19
7.466529E+03	4.838776E-18	8.461133E-19
7.476432E+03	4.865449E-18	8.521492E-19
7.486334E+03	4.892419E-18	8.582243E-19
7.496237E+03	4.919473E-18	8.643015E-19
7.506140E+03	4.946725E-18	8.704004E-19
7.516042E+03	4.974292E-18	8.765417E-19
7.525945E+03	5.002073E-18	8.827070E-19
7.535847E+03	5.030184E-18	8.889170E-19
7.545750E+03	5.058517E-18	8.951521E-19
7.555652E+03	5.087307E-18	9.014538E-19
7.565555E+03	5.116329E-18	9.077818E-19
7.575457E+03	5.145821E-18	9.141782E-19
7.585360E+03	5.175554E-18	9.206021E-19
7.595263E+03	5.205772E-18	9.270964E-19
7.605165E+03	5.236240E-18	9.336194E-19
7.615068E+03	5.267205E-18	9.402147E-19
7.624970E+03	5.298555E-18	9.468621E-19
7.634873E+03	5.330293E-18	9.535621E-19
7.644775E+03	5.362428E-18	9.603158E-19
7.654678E+03	5.394963E-18	9.671239E-19
7.664581E+03	5.427906E-18	9.739871E-19
7.674483E+03	5.461136E-18	9.808839E-19
7.684386E+03	5.494910E-18	9.878602E-19
