#wls	flux	fluxerr
1.584409E+03	1.454917E-17	6.110123E-18
1.624020E+03	1.489009E-17	6.232955E-18
1.663630E+03	1.520840E-17	6.344653E-18
1.703240E+03	1.550070E-17	6.443829E-18
1.742850E+03	1.576441E-17	6.529463E-18
1.782461E+03	1.599237E-17	6.598670E-18
1.822071E+03	1.616739E-17	6.644491E-18
1.861681E+03	1.627596E-17	6.661607E-18
1.901291E+03	1.629874E-17	6.642430E-18
1.940902E+03	1.621875E-17	6.580495E-18
1.980512E+03	1.602905E-17	6.473548E-18
2.020122E+03	1.575006E-17	6.330422E-18
2.059732E+03	1.544256E-17	6.175982E-18
2.099342E+03	1.521098E-17	6.051978E-18
2.138953E+03	1.517904E-17	6.006925E-18
2.178563E+03	1.542800E-17	6.071517E-18
2.218173E+03	1.596056E-17	6.244881E-18
2.257783E+03	1.670868E-17	6.498490E-18
2.297394E+03	1.757560E-17	6.793243E-18
2.337004E+03	1.847675E-17	7.095589E-18
2.376614E+03	1.935598E-17	7.383633E-18
2.416224E+03	2.018413E-17	7.646269E-18
2.455835E+03	2.095373E-17	7.880875E-18
2.495445E+03	2.166565E-17	8.088048E-18
2.535055E+03	2.232779E-17	8.271008E-18
2.574665E+03	2.294735E-17	8.432645E-18
2.614276E+03	2.353255E-17	8.576155E-18
2.653886E+03	2.408934E-17	8.703839E-18
2.693496E+03	2.462288E-17	8.817653E-18
2.733106E+03	2.513752E-17	8.919211E-18
2.772716E+03	2.563607E-17	9.009539E-18
2.812327E+03	2.612083E-17	9.089465E-18
2.851937E+03	2.659505E-17	9.160115E-18
2.891547E+03	2.706011E-17	9.221951E-18
2.931157E+03	2.752050E-17	9.276462E-18
2.970768E+03	2.797819E-17	9.324250E-18
2.980670E+03	2.809333E-17	9.335516E-18
2.990573E+03	2.820815E-17	9.346303E-18
3.000475E+03	2.832262E-17	9.356603E-18
3.010378E+03	2.843800E-17	9.366827E-18
3.020280E+03	2.855362E-17	9.376753E-18
3.030183E+03	2.866947E-17	9.386374E-18
3.040086E+03	2.878647E-17	9.395989E-18
3.049988E+03	2.890514E-17	9.405765E-18
3.059891E+03	2.902664E-17	9.416069E-18
3.069793E+03	2.915177E-17	9.427147E-18
3.079696E+03	2.927893E-17	9.438478E-18
3.089598E+03	2.940837E-17	9.450130E-18
3.099501E+03	2.953920E-17	9.461809E-18
3.109403E+03	2.967287E-17	9.473974E-18
3.119306E+03	2.980734E-17	9.485968E-18
3.129209E+03	2.994298E-17	9.497899E-18
3.139111E+03	3.008012E-17	9.509872E-18
3.149014E+03	3.021856E-17	9.521813E-18
3.158916E+03	3.035696E-17	9.533301E-18
3.168819E+03	3.049685E-17	9.544811E-18
3.178721E+03	3.063695E-17	9.555938E-18
3.188624E+03	3.077769E-17	9.566812E-18
3.198526E+03	3.091838E-17	9.577220E-18
3.208429E+03	3.105946E-17	9.587296E-18
3.218332E+03	3.120082E-17	9.597004E-18
3.228234E+03	3.134239E-17	9.606319E-18
3.238137E+03	3.148352E-17	9.615044E-18
3.248039E+03	3.162471E-17	9.623330E-18
3.257942E+03	3.176589E-17	9.631157E-18
3.267844E+03	3.190648E-17	9.638345E-18
3.277747E+03	3.204695E-17	9.645044E-18
3.287650E+03	3.218678E-17	9.651092E-18
3.297552E+03	3.232644E-17	9.656634E-18
3.307455E+03	3.246539E-17	9.661514E-18
3.317357E+03	3.260365E-17	9.665730E-18
3.327260E+03	3.274120E-17	9.669287E-18
3.337162E+03	3.287802E-17	9.672182E-18
3.347065E+03	3.301415E-17	9.674427E-18
3.356967E+03	3.314910E-17	9.675880E-18
3.366870E+03	3.328339E-17	9.676699E-18
3.376773E+03	3.341606E-17	9.676610E-18
3.386675E+03	3.354810E-17	9.675904E-18
3.396578E+03	3.367860E-17	9.674323E-18
3.406480E+03	3.380760E-17	9.671886E-18
3.416383E+03	3.393516E-17	9.668615E-18
3.426285E+03	3.406085E-17	9.664394E-18
3.436188E+03	3.418520E-17	9.659382E-18
3.446090E+03	3.430778E-17	9.653467E-18
3.455993E+03	3.442824E-17	9.646554E-18
3.465896E+03	3.454663E-17	9.638671E-18
3.475798E+03	3.466258E-17	9.629723E-18
3.485701E+03	3.477660E-17	9.619862E-18
3.495603E+03	3.488749E-17	9.608766E-18
3.505506E+03	3.499575E-17	9.596588E-18
3.515408E+03	3.510103E-17	9.583246E-18
3.525311E+03	3.520346E-17	9.568787E-18
3.535213E+03	3.530228E-17	9.553017E-18
3.545116E+03	3.539717E-17	9.535870E-18
3.555019E+03	3.548868E-17	9.517510E-18
3.564921E+03	3.557567E-17	9.497650E-18
3.574824E+03	3.565870E-17	9.476456E-18
3.584726E+03	3.573747E-17	9.453871E-18
3.594629E+03	3.581130E-17	9.429735E-18
3.604531E+03	3.587995E-17	9.404005E-18
3.614434E+03	3.594355E-17	9.376741E-18
3.624337E+03	3.600147E-17	9.347803E-18
3.634239E+03	3.605424E-17	9.317354E-18
3.644142E+03	3.610086E-17	9.285159E-18
3.654044E+03	3.614148E-17	9.251286E-18
3.663947E+03	3.617588E-17	9.215709E-18
3.673849E+03	3.620423E-17	9.178498E-18
3.683752E+03	3.622593E-17	9.139529E-18
3.693654E+03	3.624115E-17	9.098875E-18
3.703557E+03	3.624970E-17	9.056519E-18
3.713460E+03	3.625171E-17	9.012528E-18
3.723362E+03	3.624701E-17	8.966887E-18
3.733265E+03	3.623576E-17	8.919666E-18
3.743167E+03	3.621773E-17	8.870845E-18
3.753070E+03	3.619275E-17	8.820407E-18
3.762972E+03	3.616167E-17	8.768600E-18
3.772875E+03	3.612361E-17	8.715232E-18
3.782777E+03	3.607904E-17	8.660455E-18
3.792680E+03	3.602846E-17	8.604418E-18
3.802583E+03	3.597132E-17	8.547019E-18
3.812485E+03	3.590776E-17	8.488324E-18
3.822388E+03	3.583825E-17	8.428475E-18
3.832290E+03	3.576292E-17	8.367530E-18
3.842193E+03	3.568188E-17	8.305545E-18
3.852095E+03	3.559492E-17	8.242496E-18
3.861998E+03	3.550247E-17	8.178518E-18
3.871900E+03	3.540464E-17	8.113659E-18
3.881803E+03	3.530154E-17	8.047973E-18
3.891706E+03	3.519325E-17	7.981503E-18
3.901608E+03	3.507986E-17	7.914299E-18
3.911511E+03	3.496178E-17	7.846474E-18
3.921413E+03	3.483907E-17	7.778071E-18
3.931316E+03	3.471150E-17	7.709060E-18
3.941218E+03	3.457977E-17	7.639619E-18
3.951121E+03	3.444361E-17	7.569714E-18
3.961024E+03	3.430340E-17	7.499449E-18
3.970926E+03	3.415918E-17	7.428854E-18
3.980829E+03	3.401069E-17	7.357894E-18
3.990731E+03	3.385859E-17	7.286731E-18
4.000634E+03	3.370262E-17	7.215330E-18
4.010536E+03	3.354308E-17	7.143776E-18
4.020439E+03	3.338003E-17	7.072098E-18
4.030341E+03	3.321347E-17	7.000316E-18
4.040244E+03	3.304344E-17	6.928454E-18
4.050147E+03	3.287024E-17	6.856592E-18
4.060049E+03	3.269358E-17	6.784688E-18
4.069952E+03	3.251348E-17	6.712761E-18
4.079854E+03	3.233053E-17	6.640948E-18
4.089757E+03	3.214414E-17	6.569145E-18
4.099659E+03	3.195462E-17	6.497426E-18
4.109562E+03	3.176195E-17	6.425803E-18
4.119464E+03	3.156612E-17	6.354290E-18
4.129367E+03	3.136714E-17	6.282899E-18
4.139270E+03	3.116499E-17	6.211641E-18
4.149172E+03	3.095967E-17	6.140525E-18
4.159075E+03	3.075116E-17	6.069560E-18
4.168977E+03	3.053945E-17	5.998757E-18
4.178880E+03	3.032452E-17	5.928122E-18
4.188782E+03	3.010612E-17	5.857614E-18
4.198685E+03	2.988420E-17	5.787237E-18
4.208587E+03	2.965903E-17	5.717050E-18
4.218490E+03	2.943059E-17	5.647058E-18
4.228393E+03	2.919834E-17	5.577156E-18
4.238295E+03	2.896250E-17	5.507379E-18
4.248198E+03	2.872302E-17	5.437712E-18
4.258100E+03	2.847986E-17	5.368136E-18
4.268003E+03	2.823296E-17	5.298635E-18
4.277905E+03	2.798204E-17	5.229148E-18
4.287808E+03	2.772756E-17	5.159752E-18
4.297711E+03	2.746900E-17	5.090342E-18
4.307613E+03	2.720680E-17	5.020993E-18
4.317516E+03	2.694094E-17	4.951691E-18
4.327418E+03	2.667162E-17	4.882466E-18
4.337321E+03	2.639880E-17	4.813298E-18
4.347223E+03	2.612266E-17	4.744214E-18
4.357126E+03	2.584310E-17	4.675184E-18
4.367028E+03	2.556046E-17	4.606263E-18
4.376931E+03	2.527459E-17	4.537412E-18
4.386834E+03	2.498537E-17	4.468600E-18
4.396736E+03	2.469311E-17	4.399874E-18
4.406639E+03	2.439768E-17	4.331202E-18
4.416541E+03	2.409919E-17	4.262594E-18
4.426444E+03	2.379798E-17	4.194100E-18
4.436346E+03	2.349372E-17	4.125654E-18
4.446249E+03	2.318676E-17	4.057308E-18
4.456151E+03	2.287725E-17	3.989077E-18
4.466054E+03	2.256514E-17	3.920940E-18
4.475957E+03	2.225061E-17	3.852917E-18
4.485859E+03	2.193385E-17	3.785030E-18
4.495762E+03	2.161509E-17	3.717307E-18
4.505664E+03	2.129453E-17	3.649769E-18
4.515567E+03	2.097218E-17	3.582410E-18
4.525469E+03	2.064810E-17	3.515228E-18
4.535372E+03	2.032292E-17	3.448320E-18
4.545274E+03	1.999649E-17	3.381651E-18
4.555177E+03	1.966886E-17	3.315222E-18
4.565080E+03	1.934051E-17	3.249101E-18
4.574982E+03	1.901166E-17	3.183318E-18
4.584885E+03	1.868204E-17	3.117818E-18
4.594787E+03	1.835246E-17	3.052730E-18
4.604690E+03	1.802247E-17	2.987970E-18
4.614592E+03	1.769270E-17	2.923635E-18
4.624495E+03	1.736325E-17	2.859733E-18
4.634398E+03	1.703422E-17	2.796276E-18
4.644300E+03	1.670574E-17	2.733274E-18
4.654203E+03	1.637792E-17	2.670742E-18
4.664105E+03	1.605124E-17	2.608752E-18
4.674008E+03	1.572571E-17	2.547297E-18
4.683910E+03	1.540157E-17	2.486413E-18
4.693813E+03	1.507929E-17	2.426169E-18
4.703715E+03	1.475891E-17	2.366566E-18
4.713618E+03	1.444124E-17	2.307725E-18
4.723521E+03	1.412617E-17	2.249626E-18
4.733423E+03	1.381430E-17	2.192359E-18
4.743326E+03	1.350596E-17	2.135965E-18
4.753228E+03	1.320114E-17	2.080439E-18
4.763131E+03	1.290025E-17	2.025841E-18
4.773033E+03	1.260368E-17	1.972221E-18
4.782936E+03	1.231138E-17	1.919569E-18
4.792838E+03	1.202371E-17	1.867932E-18
4.802741E+03	1.174086E-17	1.817332E-18
4.812644E+03	1.146288E-17	1.767771E-18
4.822546E+03	1.118994E-17	1.719267E-18
4.832449E+03	1.092229E-17	1.671853E-18
4.842351E+03	1.065994E-17	1.625522E-18
4.852254E+03	1.040313E-17	1.580302E-18
4.862156E+03	1.015172E-17	1.536168E-18
4.872059E+03	9.905913E-18	1.493140E-18
4.881961E+03	9.665771E-18	1.451221E-18
4.891864E+03	9.431254E-18	1.410398E-18
4.901767E+03	9.202504E-18	1.370684E-18
4.911669E+03	8.979458E-18	1.332063E-18
4.921572E+03	8.762226E-18	1.294541E-18
4.931474E+03	8.550729E-18	1.258102E-18
4.941377E+03	8.344968E-18	1.222735E-18
4.951279E+03	8.144849E-18	1.188422E-18
4.961182E+03	7.950528E-18	1.155175E-18
4.971085E+03	7.761810E-18	1.122960E-18
4.980987E+03	7.578665E-18	1.091764E-18
4.990890E+03	7.401136E-18	1.061585E-18
5.000792E+03	7.229104E-18	1.032400E-18
5.010695E+03	7.062522E-18	1.004193E-18
5.020597E+03	6.901330E-18	9.769480E-19
5.030500E+03	6.745474E-18	9.506504E-19
5.040402E+03	6.594826E-18	9.252744E-19
5.050305E+03	6.449325E-18	9.008041E-19
5.060208E+03	6.308969E-18	8.772316E-19
5.070110E+03	6.173559E-18	8.545223E-19
5.080013E+03	6.043153E-18	8.326768E-19
5.089915E+03	5.917496E-18	8.116529E-19
5.099818E+03	5.796641E-18	7.914510E-19
5.109720E+03	5.680453E-18	7.720457E-19
5.119623E+03	5.568868E-18	7.534217E-19
5.129525E+03	5.461808E-18	7.355617E-19
5.139428E+03	5.359148E-18	7.184426E-19
5.149331E+03	5.260826E-18	7.020495E-19
5.159233E+03	5.166720E-18	6.863602E-19
5.169136E+03	5.076867E-18	6.713736E-19
5.179038E+03	4.991053E-18	6.570554E-19
5.188941E+03	4.909264E-18	6.433985E-19
5.198843E+03	4.831442E-18	6.303894E-19
5.208746E+03	4.757531E-18	6.180159E-19
5.218648E+03	4.687384E-18	6.062535E-19
5.228551E+03	4.620996E-18	5.950969E-19
5.238454E+03	4.558274E-18	5.845293E-19
5.248356E+03	4.499174E-18	5.745409E-19
5.258259E+03	4.443611E-18	5.651166E-19
5.268161E+03	4.391594E-18	5.562534E-19
5.278064E+03	4.343001E-18	5.479323E-19
5.287966E+03	4.297803E-18	5.401461E-19
5.297869E+03	4.255934E-18	5.328834E-19
5.307772E+03	4.217415E-18	5.261440E-19
5.317674E+03	4.182104E-18	5.199073E-19
5.327577E+03	4.150032E-18	5.141751E-19
5.337479E+03	4.121150E-18	5.089392E-19
5.347382E+03	4.095414E-18	5.041926E-19
5.357284E+03	4.072704E-18	4.999190E-19
5.367187E+03	4.052988E-18	4.961135E-19
5.377089E+03	4.036238E-18	4.927723E-19
5.386992E+03	4.022269E-18	4.898724E-19
5.396895E+03	4.011063E-18	4.874120E-19
5.406797E+03	4.002485E-18	4.853752E-19
5.416700E+03	3.996484E-18	4.837568E-19
5.426602E+03	3.993208E-18	4.825760E-19
5.436505E+03	3.992644E-18	4.818329E-19
5.446407E+03	3.994925E-18	4.815455E-19
5.456310E+03	4.000095E-18	4.817214E-19
5.466212E+03	4.008313E-18	4.823825E-19
5.476115E+03	4.019532E-18	4.835262E-19
5.486018E+03	4.033833E-18	4.851658E-19
5.495920E+03	4.051219E-18	4.873059E-19
5.505823E+03	4.071823E-18	4.899668E-19
5.515725E+03	4.095612E-18	4.931493E-19
5.525628E+03	4.122633E-18	4.968604E-19
5.535530E+03	4.152889E-18	5.011008E-19
5.545433E+03	4.186473E-18	5.058827E-19
5.555335E+03	4.223357E-18	5.112039E-19
5.565238E+03	4.263602E-18	5.170735E-19
5.575141E+03	4.307274E-18	5.235014E-19
5.585043E+03	4.354403E-18	5.304936E-19
5.594946E+03	4.405065E-18	5.380621E-19
5.604848E+03	4.459250E-18	5.462089E-19
5.614751E+03	4.517046E-18	5.549479E-19
5.624653E+03	4.578542E-18	5.642942E-19
5.634556E+03	4.643784E-18	5.742574E-19
5.644459E+03	4.712833E-18	5.848494E-19
5.654361E+03	4.785734E-18	5.960805E-19
5.664264E+03	4.862652E-18	6.079765E-19
5.674166E+03	4.943547E-18	6.205375E-19
5.684069E+03	5.028588E-18	6.337907E-19
5.693971E+03	5.117841E-18	6.477499E-19
5.703874E+03	5.211327E-18	6.624245E-19
5.713776E+03	5.309167E-18	6.778357E-19
5.723679E+03	5.411494E-18	6.940075E-19
5.733582E+03	5.518334E-18	7.109499E-19
5.743484E+03	5.629755E-18	7.286791E-19
5.753387E+03	5.745966E-18	7.472290E-19
5.763289E+03	5.866916E-18	7.666009E-19
5.773192E+03	5.992747E-18	7.868207E-19
5.783094E+03	6.123536E-18	8.079063E-19
5.792997E+03	6.259370E-18	8.298770E-19
5.802899E+03	6.400383E-18	8.527586E-19
5.812802E+03	6.546517E-18	8.765515E-19
5.822705E+03	6.697981E-18	9.012915E-19
5.832607E+03	6.854768E-18	9.269860E-19
5.842510E+03	7.016949E-18	9.536524E-19
5.852412E+03	7.184576E-18	9.813061E-19
5.862315E+03	7.357704E-18	1.009962E-18
5.872217E+03	7.536459E-18	1.039646E-18
5.882120E+03	7.720716E-18	1.070348E-18
5.892022E+03	7.910492E-18	1.102079E-18
5.901925E+03	8.105897E-18	1.134859E-18
5.911828E+03	8.306949E-18	1.168700E-18
5.921730E+03	8.513443E-18	1.203578E-18
5.931633E+03	8.725559E-18	1.239527E-18
5.941535E+03	8.942966E-18	1.276504E-18
5.951438E+03	9.165922E-18	1.314552E-18
5.961340E+03	9.394045E-18	1.353620E-18
5.971243E+03	9.627238E-18	1.393701E-18
5.981146E+03	9.865516E-18	1.434798E-18
5.991048E+03	1.010863E-17	1.476881E-18
6.000951E+03	1.035644E-17	1.519930E-18
6.010853E+03	1.060853E-17	1.563885E-18
6.020756E+03	1.086494E-17	1.608755E-18
6.030658E+03	1.112505E-17	1.654449E-18
6.040561E+03	1.138889E-17	1.700967E-18
6.050463E+03	1.165604E-17	1.748248E-18
6.060366E+03	1.192605E-17	1.796221E-18
6.070269E+03	1.219858E-17	1.844831E-18
6.080171E+03	1.247343E-17	1.894044E-18
6.090074E+03	1.275004E-17	1.943770E-18
6.099976E+03	1.302800E-17	1.993941E-18
6.109879E+03	1.330722E-17	2.044535E-18
6.119781E+03	1.358692E-17	2.095424E-18
6.129684E+03	1.386682E-17	2.146559E-18
6.139586E+03	1.414670E-17	2.197893E-18
6.149489E+03	1.442638E-17	2.249391E-18
6.159392E+03	1.470535E-17	2.300962E-18
6.169294E+03	1.498330E-17	2.352546E-18
6.179197E+03	1.526009E-17	2.404112E-18
6.189099E+03	1.553521E-17	2.455566E-18
6.199002E+03	1.580852E-17	2.506875E-18
6.208904E+03	1.607972E-17	2.557978E-18
6.218807E+03	1.634869E-17	2.608844E-18
6.228709E+03	1.661512E-17	2.659409E-18
6.238612E+03	1.687868E-17	2.709611E-18
6.248515E+03	1.713930E-17	2.759422E-18
6.258417E+03	1.739691E-17	2.808821E-18
6.268320E+03	1.765098E-17	2.857706E-18
6.278222E+03	1.790145E-17	2.906058E-18
6.288125E+03	1.814833E-17	2.953860E-18
6.298027E+03	1.839108E-17	3.001018E-18
6.307930E+03	1.863002E-17	3.047564E-18
6.317833E+03	1.886492E-17	3.093448E-18
6.327735E+03	1.909560E-17	3.138626E-18
6.337638E+03	1.932184E-17	3.183050E-18
6.347540E+03	1.954403E-17	3.226767E-18
6.357443E+03	1.976174E-17	3.269694E-18
6.367345E+03	1.997539E-17	3.311887E-18
6.377248E+03	2.018485E-17	3.353312E-18
6.387150E+03	2.039001E-17	3.393937E-18
6.397053E+03	2.059106E-17	3.433783E-18
6.406956E+03	2.078792E-17	3.472825E-18
6.416858E+03	2.098083E-17	3.511089E-18
6.426761E+03	2.116908E-17	3.548446E-18
6.436663E+03	2.135324E-17	3.584982E-18
6.446566E+03	2.153327E-17	3.620680E-18
6.456468E+03	2.170879E-17	3.655463E-18
6.466371E+03	2.188010E-17	3.689376E-18
6.476273E+03	2.204718E-17	3.722402E-18
6.486176E+03	2.221001E-17	3.754531E-18
6.496079E+03	2.236856E-17	3.785750E-18
6.505981E+03	2.252322E-17	3.816115E-18
6.515884E+03	2.267361E-17	3.845555E-18
6.525786E+03	2.281975E-17	3.874067E-18
6.535689E+03	2.296204E-17	3.901710E-18
6.545591E+03	2.310049E-17	3.928482E-18
6.555494E+03	2.323477E-17	3.954318E-18
6.565396E+03	2.336530E-17	3.979284E-18
6.575299E+03	2.349172E-17	4.003317E-18
6.585202E+03	2.361490E-17	4.026556E-18
6.595104E+03	2.373407E-17	4.048870E-18
6.605007E+03	2.384930E-17	4.070264E-18
6.614909E+03	2.396105E-17	4.090813E-18
6.624812E+03	2.406940E-17	4.110529E-18
6.634714E+03	2.417400E-17	4.129350E-18
6.644617E+03	2.427492E-17	4.147283E-18
6.654520E+03	2.437266E-17	4.164414E-18
6.664422E+03	2.446687E-17	4.180681E-18
6.674325E+03	2.455807E-17	4.196171E-18
6.684227E+03	2.464547E-17	4.210749E-18
6.694130E+03	2.473004E-17	4.224581E-18
6.704032E+03	2.481098E-17	4.237529E-18
6.713935E+03	2.488926E-17	4.249760E-18
6.723837E+03	2.496408E-17	4.261140E-18
6.733740E+03	2.503599E-17	4.271761E-18
6.743643E+03	2.510509E-17	4.281643E-18
6.753545E+03	2.517101E-17	4.290723E-18
6.763448E+03	2.523430E-17	4.299101E-18
6.773350E+03	2.529460E-17	4.306716E-18
6.783253E+03	2.535248E-17	4.313667E-18
6.793155E+03	2.540710E-17	4.319814E-18
6.803058E+03	2.545949E-17	4.325339E-18
6.812960E+03	2.550929E-17	4.330181E-18
6.822863E+03	2.555660E-17	4.334365E-18
6.832766E+03	2.560103E-17	4.337826E-18
6.842668E+03	2.564366E-17	4.340752E-18
6.852571E+03	2.568312E-17	4.342919E-18
6.862473E+03	2.572098E-17	4.344596E-18
6.872376E+03	2.575637E-17	4.345642E-18
6.882278E+03	2.578938E-17	4.346078E-18
6.892181E+03	2.582060E-17	4.346011E-18
6.902083E+03	2.584965E-17	4.345382E-18
6.911986E+03	2.587663E-17	4.344216E-18
6.921889E+03	2.590163E-17	4.342533E-18
6.931791E+03	2.592475E-17	4.340360E-18
6.941694E+03	2.594609E-17	4.337720E-18
6.951596E+03	2.596525E-17	4.334553E-18
6.961499E+03	2.598334E-17	4.331053E-18
6.971401E+03	2.599892E-17	4.326990E-18
6.981304E+03	2.601362E-17	4.322643E-18
6.991207E+03	2.602602E-17	4.317782E-18
7.001109E+03	2.603722E-17	4.312603E-18
7.011012E+03	2.604681E-17	4.307045E-18
7.020914E+03	2.605488E-17	4.301132E-18
7.030817E+03	2.606204E-17	4.294975E-18
7.040719E+03	2.606735E-17	4.288429E-18
7.050622E+03	2.607141E-17	4.281603E-18
7.060524E+03	2.607380E-17	4.274438E-18
7.070427E+03	2.607512E-17	4.267042E-18
7.080330E+03	2.607548E-17	4.259444E-18
7.090232E+03	2.607441E-17	4.251580E-18
7.100135E+03	2.607256E-17	4.243564E-18
7.110037E+03	2.606893E-17	4.235246E-18
7.119940E+03	2.606467E-17	4.226824E-18
7.129842E+03	2.605934E-17	4.218238E-18
7.139745E+03	2.605248E-17	4.209425E-18
7.149647E+03	2.604471E-17	4.200498E-18
7.159550E+03	2.603611E-17	4.191480E-18
7.169453E+03	2.602622E-17	4.182311E-18
7.179355E+03	2.601512E-17	4.173014E-18
7.189258E+03	2.600288E-17	4.163615E-18
7.199160E+03	2.598959E-17	4.154138E-18
7.209063E+03	2.597530E-17	4.144607E-18
7.218965E+03	2.595903E-17	4.134875E-18
7.228868E+03	2.594190E-17	4.125136E-18
7.238770E+03	2.592347E-17	4.115331E-18
7.248673E+03	2.590325E-17	4.105396E-18
7.258576E+03	2.588185E-17	4.095442E-18
7.268478E+03	2.585825E-17	4.085319E-18
7.278381E+03	2.583252E-17	4.075052E-18
7.288283E+03	2.580471E-17	4.064663E-18
7.298186E+03	2.577435E-17	4.054091E-18
7.308088E+03	2.574204E-17	4.043443E-18
7.317991E+03	2.570620E-17	4.032485E-18
7.327894E+03	2.566798E-17	4.021409E-18
7.337796E+03	2.562634E-17	4.010067E-18
7.347699E+03	2.558189E-17	3.998566E-18
7.357601E+03	2.553413E-17	3.986841E-18
7.367504E+03	2.548310E-17	3.974909E-18
7.377406E+03	2.542940E-17	3.962879E-18
7.387309E+03	2.537254E-17	3.950681E-18
7.397211E+03	2.531419E-17	3.938588E-18
7.407114E+03	2.525332E-17	3.926450E-18
7.417017E+03	2.519105E-17	3.914448E-18
7.426919E+03	2.512689E-17	3.902504E-18
7.436822E+03	2.506253E-17	3.890866E-18
7.446724E+03	2.499746E-17	3.879443E-18
7.456627E+03	2.493174E-17	3.868232E-18
7.466529E+03	2.486596E-17	3.857311E-18
7.476432E+03	2.480015E-17	3.846672E-18
7.486334E+03	2.473546E-17	3.836482E-18
7.496237E+03	2.467082E-17	3.826561E-18
7.506140E+03	2.460684E-17	3.816990E-18
7.516042E+03	2.454408E-17	3.807845E-18
7.525945E+03	2.448206E-17	3.799036E-18
7.535847E+03	2.442133E-17	3.790640E-18
7.545750E+03	2.436140E-17	3.782565E-18
7.555652E+03	2.430337E-17	3.774973E-18
7.565555E+03	2.424621E-17	3.767688E-18
7.575457E+03	2.419103E-17	3.760875E-18
7.585360E+03	2.413676E-17	3.754352E-18
7.595263E+03	2.408452E-17	3.748286E-18
7.605165E+03	2.403325E-17	3.742499E-18
7.615068E+03	2.398407E-17	3.737154E-18
7.624970E+03	2.393644E-17	3.732158E-18
7.634873E+03	2.389041E-17	3.727507E-18
7.644775E+03	2.384598E-17	3.723193E-18
7.654678E+03	2.380319E-17	3.719210E-18
7.664581E+03	2.376204E-17	3.715550E-18
7.674483E+03	2.372201E-17	3.712121E-18
7.684386E+03	2.368422E-17	3.709092E-18
