#wls	flux	fluxerr
1.584409E+03	7.119058E-19	0.000000E+00
1.624020E+03	7.326365E-19	0.000000E+00
1.663630E+03	7.527701E-19	0.000000E+00
1.703240E+03	7.721465E-19	0.000000E+00
1.742850E+03	7.906390E-19	0.000000E+00
1.782461E+03	8.078827E-19	0.000000E+00
1.822071E+03	8.229879E-19	0.000000E+00
1.861681E+03	8.352198E-19	0.000000E+00
1.901291E+03	8.435108E-19	0.000000E+00
1.940902E+03	8.468685E-19	0.000000E+00
1.980512E+03	8.447855E-19	0.000000E+00
2.020122E+03	8.381775E-19	0.000000E+00
2.059732E+03	8.301571E-19	0.000000E+00
2.099342E+03	8.263301E-19	0.000000E+00
2.138953E+03	8.336045E-19	0.000000E+00
2.178563E+03	8.568469E-19	0.000000E+00
2.218173E+03	8.967538E-19	0.000000E+00
2.257783E+03	9.500480E-19	0.000000E+00
2.297394E+03	1.011654E-18	0.000000E+00
2.337004E+03	1.076957E-18	0.000000E+00
2.376614E+03	1.142783E-18	0.000000E+00
2.416224E+03	1.207398E-18	0.000000E+00
2.455835E+03	1.270282E-18	0.000000E+00
2.495445E+03	1.331392E-18	0.000000E+00
2.535055E+03	1.391113E-18	0.000000E+00
2.574665E+03	1.449799E-18	0.000000E+00
2.614276E+03	1.507882E-18	0.000000E+00
2.653886E+03	1.565670E-18	0.000000E+00
2.693496E+03	1.623428E-18	0.000000E+00
2.733106E+03	1.681377E-18	0.000000E+00
2.772716E+03	1.739642E-18	0.000000E+00
2.812327E+03	1.798318E-18	0.000000E+00
2.851937E+03	1.857565E-18	0.000000E+00
2.891547E+03	1.917420E-18	0.000000E+00
2.931157E+03	1.978140E-18	0.000000E+00
2.970768E+03	2.039811E-18	0.000000E+00
2.980670E+03	2.055455E-18	0.000000E+00
2.990573E+03	2.071143E-18	0.000000E+00
3.000475E+03	2.086873E-18	0.000000E+00
3.010378E+03	2.102735E-18	0.000000E+00
3.020280E+03	2.118682E-18	0.000000E+00
3.030183E+03	2.134710E-18	0.000000E+00
3.040086E+03	2.150888E-18	0.000000E+00
3.049988E+03	2.167256E-18	0.000000E+00
3.059891E+03	2.183900E-18	0.000000E+00
3.069793E+03	2.200883E-18	0.000000E+00
3.079696E+03	2.218084E-18	0.000000E+00
3.089598E+03	2.235525E-18	0.000000E+00
3.099501E+03	2.253137E-18	0.000000E+00
3.109403E+03	2.271033E-18	0.000000E+00
3.119306E+03	2.289056E-18	0.000000E+00
3.129209E+03	2.307234E-18	0.000000E+00
3.139111E+03	2.325594E-18	0.000000E+00
3.149014E+03	2.344118E-18	0.000000E+00
3.158916E+03	2.362705E-18	0.000000E+00
3.168819E+03	2.381472E-18	0.000000E+00
3.178721E+03	2.400318E-18	0.000000E+00
3.188624E+03	2.419276E-18	0.000000E+00
3.198526E+03	2.438293E-18	0.000000E+00
3.208429E+03	2.457400E-18	0.000000E+00
3.218332E+03	2.476591E-18	0.000000E+00
3.228234E+03	2.495855E-18	0.000000E+00
3.238137E+03	2.515144E-18	0.000000E+00
3.248039E+03	2.534494E-18	0.000000E+00
3.257942E+03	2.553899E-18	0.000000E+00
3.267844E+03	2.573311E-18	0.000000E+00
3.277747E+03	2.592768E-18	0.000000E+00
3.287650E+03	2.612225E-18	0.000000E+00
3.297552E+03	2.631719E-18	0.000000E+00
3.307455E+03	2.651206E-18	0.000000E+00
3.317357E+03	2.670685E-18	0.000000E+00
3.327260E+03	2.690154E-18	0.000000E+00
3.337162E+03	2.709610E-18	0.000000E+00
3.347065E+03	2.729054E-18	0.000000E+00
3.356967E+03	2.748445E-18	0.000000E+00
3.366870E+03	2.767824E-18	0.000000E+00
3.376773E+03	2.787110E-18	0.000000E+00
3.386675E+03	2.806382E-18	0.000000E+00
3.396578E+03	2.825567E-18	0.000000E+00
3.406480E+03	2.844663E-18	0.000000E+00
3.416383E+03	2.863674E-18	0.000000E+00
3.426285E+03	2.882563E-18	0.000000E+00
3.436188E+03	2.901372E-18	0.000000E+00
3.446090E+03	2.920065E-18	0.000000E+00
3.455993E+03	2.938609E-18	0.000000E+00
3.465896E+03	2.957005E-18	0.000000E+00
3.475798E+03	2.975221E-18	0.000000E+00
3.485701E+03	2.993300E-18	0.000000E+00
3.495603E+03	3.011138E-18	0.000000E+00
3.505506E+03	3.028770E-18	0.000000E+00
3.515408E+03	3.046171E-18	0.000000E+00
3.525311E+03	3.063346E-18	0.000000E+00
3.535213E+03	3.080228E-18	0.000000E+00
3.545116E+03	3.096789E-18	0.000000E+00
3.555019E+03	3.113071E-18	0.000000E+00
3.564921E+03	3.128972E-18	0.000000E+00
3.574824E+03	3.144543E-18	0.000000E+00
3.584726E+03	3.159751E-18	0.000000E+00
3.594629E+03	3.174535E-18	0.000000E+00
3.604531E+03	3.188871E-18	0.000000E+00
3.614434E+03	3.202770E-18	0.000000E+00
3.624337E+03	3.216168E-18	0.000000E+00
3.634239E+03	3.229116E-18	0.000000E+00
3.644142E+03	3.241516E-18	0.000000E+00
3.654044E+03	3.253383E-18	0.000000E+00
3.663947E+03	3.264694E-18	0.000000E+00
3.673849E+03	3.275457E-18	0.000000E+00
3.683752E+03	3.285622E-18	0.000000E+00
3.693654E+03	3.295198E-18	0.000000E+00
3.703557E+03	3.304162E-18	0.000000E+00
3.713460E+03	3.312532E-18	0.000000E+00
3.723362E+03	3.320278E-18	0.000000E+00
3.733265E+03	3.327422E-18	0.000000E+00
3.743167E+03	3.333938E-18	0.000000E+00
3.753070E+03	3.339808E-18	0.000000E+00
3.762972E+03	3.345107E-18	0.000000E+00
3.772875E+03	3.349752E-18	0.000000E+00
3.782777E+03	3.353785E-18	0.000000E+00
3.792680E+03	3.357253E-18	0.000000E+00
3.802583E+03	3.360100E-18	0.000000E+00
3.812485E+03	3.362339E-18	0.000000E+00
3.822388E+03	3.364011E-18	0.000000E+00
3.832290E+03	3.365131E-18	0.000000E+00
3.842193E+03	3.365702E-18	0.000000E+00
3.852095E+03	3.365710E-18	0.000000E+00
3.861998E+03	3.365194E-18	0.000000E+00
3.871900E+03	3.364162E-18	0.000000E+00
3.881803E+03	3.362624E-18	0.000000E+00
3.891706E+03	3.360586E-18	0.000000E+00
3.901608E+03	3.358061E-18	0.000000E+00
3.911511E+03	3.355085E-18	0.000000E+00
3.921413E+03	3.351665E-18	0.000000E+00
3.931316E+03	3.347780E-18	0.000000E+00
3.941218E+03	3.343497E-18	0.000000E+00
3.951121E+03	3.338790E-18	0.000000E+00
3.961024E+03	3.333694E-18	0.000000E+00
3.970926E+03	3.328222E-18	0.000000E+00
3.980829E+03	3.322341E-18	0.000000E+00
3.990731E+03	3.316124E-18	0.000000E+00
4.000634E+03	3.309540E-18	0.000000E+00
4.010536E+03	3.302620E-18	0.000000E+00
4.020439E+03	3.295377E-18	0.000000E+00
4.030341E+03	3.287810E-18	0.000000E+00
4.040244E+03	3.279920E-18	0.000000E+00
4.050147E+03	3.271742E-18	0.000000E+00
4.060049E+03	3.263249E-18	0.000000E+00
4.069952E+03	3.254447E-18	0.000000E+00
4.079854E+03	3.245388E-18	0.000000E+00
4.089757E+03	3.236021E-18	0.000000E+00
4.099659E+03	3.226377E-18	0.000000E+00
4.109562E+03	3.216454E-18	0.000000E+00
4.119464E+03	3.206256E-18	0.000000E+00
4.129367E+03	3.195781E-18	0.000000E+00
4.139270E+03	3.185034E-18	0.000000E+00
4.149172E+03	3.174009E-18	0.000000E+00
4.159075E+03	3.162712E-18	0.000000E+00
4.168977E+03	3.151136E-18	0.000000E+00
4.178880E+03	3.139287E-18	0.000000E+00
4.188782E+03	3.127130E-18	0.000000E+00
4.198685E+03	3.114672E-18	0.000000E+00
4.208587E+03	3.101933E-18	0.000000E+00
4.218490E+03	3.088915E-18	0.000000E+00
4.228393E+03	3.075559E-18	0.000000E+00
4.238295E+03	3.061895E-18	0.000000E+00
4.248198E+03	3.047915E-18	0.000000E+00
4.258100E+03	3.033624E-18	0.000000E+00
4.268003E+03	3.019017E-18	0.000000E+00
4.277905E+03	3.004061E-18	0.000000E+00
4.287808E+03	2.988813E-18	0.000000E+00
4.297711E+03	2.973216E-18	0.000000E+00
4.307613E+03	2.957317E-18	0.000000E+00
4.317516E+03	2.941116E-18	0.000000E+00
4.327418E+03	2.924634E-18	0.000000E+00
4.337321E+03	2.907870E-18	0.000000E+00
4.347223E+03	2.890844E-18	0.000000E+00
4.357126E+03	2.873555E-18	0.000000E+00
4.367028E+03	2.856049E-18	0.000000E+00
4.376931E+03	2.838323E-18	0.000000E+00
4.386834E+03	2.820372E-18	0.000000E+00
4.396736E+03	2.802245E-18	0.000000E+00
4.406639E+03	2.783937E-18	0.000000E+00
4.416541E+03	2.765470E-18	0.000000E+00
4.426444E+03	2.746889E-18	0.000000E+00
4.436346E+03	2.728165E-18	0.000000E+00
4.446249E+03	2.709345E-18	0.000000E+00
4.456151E+03	2.690450E-18	0.000000E+00
4.466054E+03	2.671475E-18	0.000000E+00
4.475957E+03	2.652442E-18	0.000000E+00
4.485859E+03	2.633372E-18	0.000000E+00
4.495762E+03	2.614285E-18	0.000000E+00
4.505664E+03	2.595203E-18	0.000000E+00
4.515567E+03	2.576122E-18	0.000000E+00
4.525469E+03	2.557039E-18	0.000000E+00
4.535372E+03	2.538025E-18	0.000000E+00
4.545274E+03	2.519051E-18	0.000000E+00
4.555177E+03	2.500117E-18	0.000000E+00
4.565080E+03	2.481267E-18	0.000000E+00
4.574982E+03	2.462522E-18	0.000000E+00
4.584885E+03	2.443836E-18	0.000000E+00
4.594787E+03	2.425299E-18	0.000000E+00
4.604690E+03	2.406842E-18	0.000000E+00
4.614592E+03	2.388532E-18	0.000000E+00
4.624495E+03	2.370369E-18	0.000000E+00
4.634398E+03	2.352354E-18	0.000000E+00
4.644300E+03	2.334485E-18	0.000000E+00
4.654203E+03	2.316764E-18	0.000000E+00
4.664105E+03	2.299237E-18	0.000000E+00
4.674008E+03	2.281882E-18	0.000000E+00
4.683910E+03	2.264700E-18	0.000000E+00
4.693813E+03	2.247715E-18	0.000000E+00
4.703715E+03	2.230885E-18	0.000000E+00
4.713618E+03	2.214278E-18	0.000000E+00
4.723521E+03	2.197832E-18	0.000000E+00
4.733423E+03	2.181592E-18	0.000000E+00
4.743326E+03	2.165563E-18	0.000000E+00
4.753228E+03	2.149704E-18	0.000000E+00
4.763131E+03	2.134041E-18	0.000000E+00
4.773033E+03	2.118601E-18	0.000000E+00
4.782936E+03	2.103343E-18	0.000000E+00
4.792838E+03	2.088296E-18	0.000000E+00
4.802741E+03	2.073463E-18	0.000000E+00
4.812644E+03	2.058829E-18	0.000000E+00
4.822546E+03	2.044400E-18	0.000000E+00
4.832449E+03	2.030202E-18	0.000000E+00
4.842351E+03	2.016221E-18	0.000000E+00
4.852254E+03	2.002483E-18	0.000000E+00
4.862156E+03	1.988954E-18	0.000000E+00
4.872059E+03	1.975659E-18	0.000000E+00
4.881961E+03	1.962607E-18	0.000000E+00
4.891864E+03	1.949783E-18	0.000000E+00
4.901767E+03	1.937214E-18	0.000000E+00
4.911669E+03	1.924888E-18	0.000000E+00
4.921572E+03	1.912830E-18	0.000000E+00
4.931474E+03	1.901029E-18	0.000000E+00
4.941377E+03	1.889492E-18	0.000000E+00
4.951279E+03	1.878205E-18	0.000000E+00
4.961182E+03	1.867215E-18	0.000000E+00
4.971085E+03	1.856491E-18	0.000000E+00
4.980987E+03	1.846040E-18	0.000000E+00
4.990890E+03	1.835889E-18	0.000000E+00
5.000792E+03	1.826025E-18	0.000000E+00
5.010695E+03	1.816456E-18	0.000000E+00
5.020597E+03	1.807189E-18	0.000000E+00
5.030500E+03	1.798231E-18	0.000000E+00
5.040402E+03	1.789572E-18	0.000000E+00
5.050305E+03	1.781218E-18	0.000000E+00
5.060208E+03	1.773195E-18	0.000000E+00
5.070110E+03	1.765474E-18	0.000000E+00
5.080013E+03	1.758100E-18	0.000000E+00
5.089915E+03	1.751023E-18	0.000000E+00
5.099818E+03	1.744289E-18	0.000000E+00
5.109720E+03	1.737886E-18	0.000000E+00
5.119623E+03	1.731822E-18	0.000000E+00
5.129525E+03	1.726103E-18	0.000000E+00
5.139428E+03	1.720719E-18	0.000000E+00
5.149331E+03	1.715678E-18	0.000000E+00
5.159233E+03	1.710970E-18	0.000000E+00
5.169136E+03	1.706636E-18	0.000000E+00
5.179038E+03	1.702631E-18	0.000000E+00
5.188941E+03	1.698980E-18	0.000000E+00
5.198843E+03	1.695690E-18	0.000000E+00
5.208746E+03	1.692768E-18	0.000000E+00
5.218648E+03	1.690187E-18	0.000000E+00
5.228551E+03	1.687971E-18	0.000000E+00
5.238454E+03	1.686109E-18	0.000000E+00
5.248356E+03	1.684609E-18	0.000000E+00
5.258259E+03	1.683461E-18	0.000000E+00
5.268161E+03	1.682689E-18	0.000000E+00
5.278064E+03	1.682265E-18	0.000000E+00
5.287966E+03	1.682195E-18	0.000000E+00
5.297869E+03	1.682470E-18	0.000000E+00
5.307772E+03	1.683113E-18	0.000000E+00
5.317674E+03	1.684080E-18	0.000000E+00
5.327577E+03	1.685392E-18	0.000000E+00
5.337479E+03	1.687041E-18	0.000000E+00
5.347382E+03	1.689014E-18	0.000000E+00
5.357284E+03	1.691265E-18	0.000000E+00
5.367187E+03	1.693784E-18	0.000000E+00
5.377089E+03	1.696558E-18	0.000000E+00
5.386992E+03	1.699506E-18	0.000000E+00
5.396895E+03	1.702614E-18	0.000000E+00
5.406797E+03	1.705817E-18	0.000000E+00
5.416700E+03	1.709082E-18	0.000000E+00
5.426602E+03	1.712462E-18	0.000000E+00
5.436505E+03	1.715940E-18	0.000000E+00
5.446407E+03	1.719569E-18	0.000000E+00
5.456310E+03	1.723365E-18	0.000000E+00
5.466212E+03	1.727398E-18	0.000000E+00
5.476115E+03	1.731648E-18	0.000000E+00
5.486018E+03	1.736152E-18	0.000000E+00
5.495920E+03	1.740906E-18	0.000000E+00
5.505823E+03	1.745964E-18	0.000000E+00
5.515725E+03	1.751305E-18	0.000000E+00
5.525628E+03	1.756946E-18	0.000000E+00
5.535530E+03	1.762884E-18	0.000000E+00
5.545433E+03	1.769153E-18	0.000000E+00
5.555335E+03	1.775732E-18	0.000000E+00
5.565238E+03	1.782637E-18	0.000000E+00
5.575141E+03	1.789884E-18	0.000000E+00
5.585043E+03	1.797468E-18	0.000000E+00
5.594946E+03	1.805406E-18	0.000000E+00
5.604848E+03	1.813674E-18	0.000000E+00
5.614751E+03	1.822289E-18	0.000000E+00
5.624653E+03	1.831264E-18	0.000000E+00
5.634556E+03	1.840596E-18	0.000000E+00
5.644459E+03	1.850281E-18	0.000000E+00
5.654361E+03	1.860313E-18	0.000000E+00
5.664264E+03	1.870728E-18	0.000000E+00
5.674166E+03	1.881481E-18	0.000000E+00
5.684069E+03	1.892606E-18	0.000000E+00
5.693971E+03	1.904098E-18	0.000000E+00
5.703874E+03	1.915933E-18	0.000000E+00
5.713776E+03	1.928123E-18	0.000000E+00
5.723679E+03	1.940684E-18	0.000000E+00
5.733582E+03	1.953589E-18	0.000000E+00
5.743484E+03	1.966831E-18	0.000000E+00
5.753387E+03	1.980446E-18	0.000000E+00
5.763289E+03	1.994384E-18	0.000000E+00
5.773192E+03	2.008661E-18	0.000000E+00
5.783094E+03	2.023267E-18	0.000000E+00
5.792997E+03	2.038195E-18	0.000000E+00
5.802899E+03	2.053460E-18	0.000000E+00
5.812802E+03	2.069008E-18	0.000000E+00
5.822705E+03	2.084875E-18	0.000000E+00
5.832607E+03	2.101029E-18	0.000000E+00
5.842510E+03	2.117461E-18	0.000000E+00
5.852412E+03	2.134160E-18	0.000000E+00
5.862315E+03	2.151116E-18	0.000000E+00
5.872217E+03	2.168341E-18	0.000000E+00
5.882120E+03	2.185777E-18	0.000000E+00
5.892022E+03	2.203410E-18	0.000000E+00
5.901925E+03	2.221253E-18	0.000000E+00
5.911828E+03	2.239293E-18	0.000000E+00
5.921730E+03	2.257464E-18	0.000000E+00
5.931633E+03	2.275805E-18	0.000000E+00
5.941535E+03	2.294222E-18	0.000000E+00
5.951438E+03	2.312779E-18	0.000000E+00
5.961340E+03	2.331378E-18	0.000000E+00
5.971243E+03	2.350003E-18	0.000000E+00
5.981146E+03	2.368663E-18	0.000000E+00
5.991048E+03	2.387312E-18	0.000000E+00
6.000951E+03	2.405932E-18	0.000000E+00
6.010853E+03	2.424445E-18	0.000000E+00
6.020756E+03	2.442888E-18	0.000000E+00
6.030658E+03	2.461151E-18	0.000000E+00
6.040561E+03	2.479273E-18	0.000000E+00
6.050463E+03	2.497201E-18	0.000000E+00
6.060366E+03	2.514881E-18	0.000000E+00
6.070269E+03	2.532289E-18	0.000000E+00
6.080171E+03	2.549433E-18	0.000000E+00
6.090074E+03	2.566257E-18	0.000000E+00
6.099976E+03	2.582736E-18	0.000000E+00
6.109879E+03	2.598912E-18	0.000000E+00
6.119781E+03	2.614696E-18	0.000000E+00
6.129684E+03	2.630095E-18	0.000000E+00
6.139586E+03	2.645122E-18	0.000000E+00
6.149489E+03	2.659786E-18	0.000000E+00
6.159392E+03	2.674033E-18	0.000000E+00
6.169294E+03	2.687841E-18	0.000000E+00
6.179197E+03	2.701222E-18	0.000000E+00
6.189099E+03	2.714122E-18	0.000000E+00
6.199002E+03	2.726553E-18	0.000000E+00
6.208904E+03	2.738496E-18	0.000000E+00
6.218807E+03	2.749969E-18	0.000000E+00
6.228709E+03	2.760952E-18	0.000000E+00
6.238612E+03	2.771430E-18	0.000000E+00
6.248515E+03	2.781420E-18	0.000000E+00
6.258417E+03	2.790947E-18	0.000000E+00
6.268320E+03	2.799956E-18	0.000000E+00
6.278222E+03	2.808474E-18	0.000000E+00
6.288125E+03	2.816524E-18	0.000000E+00
6.298027E+03	2.824056E-18	0.000000E+00
6.307930E+03	2.831139E-18	0.000000E+00
6.317833E+03	2.837761E-18	0.000000E+00
6.327735E+03	2.843915E-18	0.000000E+00
6.337638E+03	2.849592E-18	0.000000E+00
6.347540E+03	2.854867E-18	0.000000E+00
6.357443E+03	2.859692E-18	0.000000E+00
6.367345E+03	2.864147E-18	0.000000E+00
6.377248E+03	2.868229E-18	0.000000E+00
6.387150E+03	2.871934E-18	0.000000E+00
6.397053E+03	2.875304E-18	0.000000E+00
6.406956E+03	2.878339E-18	0.000000E+00
6.416858E+03	2.881081E-18	0.000000E+00
6.426761E+03	2.883444E-18	0.000000E+00
6.436663E+03	2.885517E-18	0.000000E+00
6.446566E+03	2.887302E-18	0.000000E+00
6.456468E+03	2.888756E-18	0.000000E+00
6.466371E+03	2.889927E-18	0.000000E+00
6.476273E+03	2.890818E-18	0.000000E+00
6.486176E+03	2.891433E-18	0.000000E+00
6.496079E+03	2.891776E-18	0.000000E+00
6.505981E+03	2.891899E-18	0.000000E+00
6.515884E+03	2.891760E-18	0.000000E+00
6.525786E+03	2.891363E-18	0.000000E+00
6.535689E+03	2.890764E-18	0.000000E+00
6.545591E+03	2.889967E-18	0.000000E+00
6.555494E+03	2.888932E-18	0.000000E+00
6.565396E+03	2.887713E-18	0.000000E+00
6.575299E+03	2.886269E-18	0.000000E+00
6.585202E+03	2.884705E-18	0.000000E+00
6.595104E+03	2.882931E-18	0.000000E+00
6.605007E+03	2.880954E-18	0.000000E+00
6.614909E+03	2.878832E-18	0.000000E+00
6.624812E+03	2.876572E-18	0.000000E+00
6.634714E+03	2.874133E-18	0.000000E+00
6.644617E+03	2.871523E-18	0.000000E+00
6.654520E+03	2.868801E-18	0.000000E+00
6.664422E+03	2.865925E-18	0.000000E+00
6.674325E+03	2.862954E-18	0.000000E+00
6.684227E+03	2.859795E-18	0.000000E+00
6.694130E+03	2.856558E-18	0.000000E+00
6.704032E+03	2.853151E-18	0.000000E+00
6.713935E+03	2.849685E-18	0.000000E+00
6.723837E+03	2.846064E-18	0.000000E+00
6.733740E+03	2.842351E-18	0.000000E+00
6.743643E+03	2.838553E-18	0.000000E+00
6.753545E+03	2.834628E-18	0.000000E+00
6.763448E+03	2.830637E-18	0.000000E+00
6.773350E+03	2.826535E-18	0.000000E+00
6.783253E+03	2.822386E-18	0.000000E+00
6.793155E+03	2.818091E-18	0.000000E+00
6.803058E+03	2.813766E-18	0.000000E+00
6.812960E+03	2.809366E-18	0.000000E+00
6.822863E+03	2.804901E-18	0.000000E+00
6.832766E+03	2.800325E-18	0.000000E+00
6.842668E+03	2.795755E-18	0.000000E+00
6.852571E+03	2.791038E-18	0.000000E+00
6.862473E+03	2.786344E-18	0.000000E+00
6.872376E+03	2.781575E-18	0.000000E+00
6.882278E+03	2.776738E-18	0.000000E+00
6.892181E+03	2.771897E-18	0.000000E+00
6.902083E+03	2.767006E-18	0.000000E+00
6.911986E+03	2.762073E-18	0.000000E+00
6.921889E+03	2.757107E-18	0.000000E+00
6.931791E+03	2.752116E-18	0.000000E+00
6.941694E+03	2.747110E-18	0.000000E+00
6.951596E+03	2.742040E-18	0.000000E+00
6.961499E+03	2.737025E-18	0.000000E+00
6.971401E+03	2.731909E-18	0.000000E+00
6.981304E+03	2.726864E-18	0.000000E+00
6.991207E+03	2.721735E-18	0.000000E+00
7.001109E+03	2.716638E-18	0.000000E+00
7.011012E+03	2.711527E-18	0.000000E+00
7.020914E+03	2.706409E-18	0.000000E+00
7.030817E+03	2.701347E-18	0.000000E+00
7.040719E+03	2.696239E-18	0.000000E+00
7.050622E+03	2.691148E-18	0.000000E+00
7.060524E+03	2.686026E-18	0.000000E+00
7.070427E+03	2.680936E-18	0.000000E+00
7.080330E+03	2.675885E-18	0.000000E+00
7.090232E+03	2.670825E-18	0.000000E+00
7.100135E+03	2.665818E-18	0.000000E+00
7.110037E+03	2.660763E-18	0.000000E+00
7.119940E+03	2.655775E-18	0.000000E+00
7.129842E+03	2.650807E-18	0.000000E+00
7.139745E+03	2.645811E-18	0.000000E+00
7.149647E+03	2.640848E-18	0.000000E+00
7.159550E+03	2.635925E-18	0.000000E+00
7.169453E+03	2.630995E-18	0.000000E+00
7.179355E+03	2.626063E-18	0.000000E+00
7.189258E+03	2.621135E-18	0.000000E+00
7.199160E+03	2.616219E-18	0.000000E+00
7.209063E+03	2.611320E-18	0.000000E+00
7.218965E+03	2.606336E-18	0.000000E+00
7.228868E+03	2.601381E-18	0.000000E+00
7.238770E+03	2.596407E-18	0.000000E+00
7.248673E+03	2.591365E-18	0.000000E+00
7.258576E+03	2.586315E-18	0.000000E+00
7.268478E+03	2.581154E-18	0.000000E+00
7.278381E+03	2.575888E-18	0.000000E+00
7.288283E+03	2.570522E-18	0.000000E+00
7.298186E+03	2.565006E-18	0.000000E+00
7.308088E+03	2.559400E-18	0.000000E+00
7.317991E+03	2.553548E-18	0.000000E+00
7.327894E+03	2.547561E-18	0.000000E+00
7.337796E+03	2.541335E-18	0.000000E+00
7.347699E+03	2.534930E-18	0.000000E+00
7.357601E+03	2.528295E-18	0.000000E+00
7.367504E+03	2.521435E-18	0.000000E+00
7.377406E+03	2.514408E-18	0.000000E+00
7.387309E+03	2.507162E-18	0.000000E+00
7.397211E+03	2.499863E-18	0.000000E+00
7.407114E+03	2.492406E-18	0.000000E+00
7.417017E+03	2.484902E-18	0.000000E+00
7.426919E+03	2.477299E-18	0.000000E+00
7.436822E+03	2.469763E-18	0.000000E+00
7.446724E+03	2.462240E-18	0.000000E+00
7.456627E+03	2.454733E-18	0.000000E+00
7.466529E+03	2.447298E-18	0.000000E+00
7.476432E+03	2.439937E-18	0.000000E+00
7.486334E+03	2.432758E-18	0.000000E+00
7.496237E+03	2.425656E-18	0.000000E+00
7.506140E+03	2.418686E-18	0.000000E+00
7.516042E+03	2.411902E-18	0.000000E+00
7.525945E+03	2.405252E-18	0.000000E+00
7.535847E+03	2.398790E-18	0.000000E+00
7.545750E+03	2.392464E-18	0.000000E+00
7.555652E+03	2.386382E-18	0.000000E+00
7.565555E+03	2.380437E-18	0.000000E+00
7.575457E+03	2.374736E-18	0.000000E+00
7.585360E+03	2.369173E-18	0.000000E+00
7.595263E+03	2.363856E-18	0.000000E+00
7.605165E+03	2.358677E-18	0.000000E+00
7.615068E+03	2.353743E-18	0.000000E+00
7.624970E+03	2.349002E-18	0.000000E+00
7.634873E+03	2.344454E-18	0.000000E+00
7.644775E+03	2.340097E-18	0.000000E+00
7.654678E+03	2.335933E-18	0.000000E+00
7.664581E+03	2.331961E-18	0.000000E+00
7.674483E+03	2.328126E-18	0.000000E+00
7.684386E+03	2.324538E-18	0.000000E+00
