#wls	flux	fluxerr
1.584409E+03	1.698184E-17	7.578010E-18
1.624020E+03	1.742627E-17	7.747298E-18
1.663630E+03	1.784553E-17	7.902843E-18
1.703240E+03	1.823537E-17	8.042796E-18
1.742850E+03	1.859240E-17	8.165724E-18
1.782461E+03	1.890784E-17	8.267868E-18
1.822071E+03	1.916098E-17	8.340355E-18
1.861681E+03	1.933526E-17	8.376299E-18
1.901291E+03	1.940711E-17	8.365960E-18
1.940902E+03	1.935551E-17	8.300925E-18
1.980512E+03	1.917140E-17	8.178132E-18
2.020122E+03	1.887841E-17	8.008517E-18
2.059732E+03	1.854895E-17	7.823434E-18
2.099342E+03	1.830860E-17	7.675841E-18
2.138953E+03	1.830720E-17	7.627523E-18
2.178563E+03	1.864448E-17	7.717860E-18
2.218173E+03	1.932582E-17	7.946208E-18
2.257783E+03	2.027068E-17	8.276609E-18
2.297394E+03	2.136302E-17	8.659470E-18
2.337004E+03	2.250076E-17	9.052090E-18
2.376614E+03	2.361573E-17	9.426486E-18
2.416224E+03	2.467231E-17	9.768422E-18
2.455835E+03	2.566121E-17	1.007448E-17
2.495445E+03	2.658334E-17	1.034536E-17
2.535055E+03	2.744833E-17	1.058517E-17
2.574665E+03	2.826504E-17	1.079758E-17
2.614276E+03	2.904373E-17	1.098674E-17
2.653886E+03	2.979194E-17	1.115561E-17
2.693496E+03	3.051636E-17	1.130677E-17
2.733106E+03	3.122274E-17	1.144235E-17
2.772716E+03	3.191501E-17	1.156375E-17
2.812327E+03	3.259653E-17	1.167210E-17
2.851937E+03	3.327193E-17	1.176897E-17
2.891547E+03	3.394354E-17	1.185501E-17
2.931157E+03	3.461770E-17	1.193225E-17
2.970768E+03	3.529763E-17	1.200155E-17
2.980670E+03	3.547005E-17	1.201812E-17
2.990573E+03	3.564270E-17	1.203413E-17
3.000475E+03	3.581557E-17	1.204956E-17
3.010378E+03	3.599024E-17	1.206494E-17
3.020280E+03	3.616591E-17	1.208001E-17
3.030183E+03	3.634256E-17	1.209473E-17
3.040086E+03	3.652138E-17	1.210951E-17
3.049988E+03	3.670306E-17	1.212456E-17
3.059891E+03	3.688906E-17	1.214034E-17
3.069793E+03	3.708045E-17	1.215719E-17
3.079696E+03	3.727521E-17	1.217442E-17
3.089598E+03	3.747369E-17	1.219214E-17
3.099501E+03	3.767476E-17	1.220996E-17
3.109403E+03	3.788032E-17	1.222848E-17
3.119306E+03	3.808778E-17	1.224685E-17
3.129209E+03	3.829761E-17	1.226521E-17
3.139111E+03	3.851027E-17	1.228370E-17
3.149014E+03	3.872552E-17	1.230222E-17
3.158916E+03	3.894167E-17	1.232022E-17
3.168819E+03	3.916071E-17	1.233834E-17
3.178721E+03	3.938100E-17	1.235603E-17
3.188624E+03	3.960311E-17	1.237348E-17
3.198526E+03	3.982617E-17	1.239039E-17
3.208429E+03	4.005078E-17	1.240696E-17
3.218332E+03	4.027681E-17	1.242313E-17
3.228234E+03	4.050416E-17	1.243887E-17
3.238137E+03	4.073205E-17	1.245392E-17
3.248039E+03	4.096113E-17	1.246849E-17
3.257942E+03	4.119129E-17	1.248252E-17
3.267844E+03	4.142186E-17	1.249583E-17
3.277747E+03	4.165342E-17	1.250857E-17
3.287650E+03	4.188531E-17	1.252054E-17
3.297552E+03	4.211816E-17	1.253193E-17
3.307455E+03	4.235130E-17	1.254254E-17
3.317357E+03	4.258474E-17	1.255237E-17
3.327260E+03	4.281848E-17	1.256140E-17
3.337162E+03	4.305254E-17	1.256967E-17
3.347065E+03	4.328692E-17	1.257714E-17
3.356967E+03	4.352105E-17	1.258367E-17
3.366870E+03	4.375556E-17	1.258944E-17
3.376773E+03	4.398924E-17	1.259409E-17
3.386675E+03	4.422341E-17	1.259801E-17
3.396578E+03	4.445686E-17	1.260085E-17
3.406480E+03	4.468965E-17	1.260264E-17
3.416383E+03	4.492186E-17	1.260340E-17
3.426285E+03	4.515293E-17	1.260298E-17
3.436188E+03	4.538356E-17	1.260158E-17
3.446090E+03	4.561323E-17	1.259905E-17
3.455993E+03	4.584139E-17	1.259527E-17
3.465896E+03	4.606817E-17	1.259027E-17
3.475798E+03	4.629306E-17	1.258393E-17
3.485701E+03	4.651674E-17	1.257643E-17
3.495603E+03	4.673758E-17	1.256735E-17
3.505506E+03	4.695626E-17	1.255688E-17
3.515408E+03	4.717230E-17	1.254493E-17
3.525311E+03	4.738586E-17	1.253153E-17
3.535213E+03	4.759589E-17	1.251644E-17
3.545116E+03	4.780198E-17	1.249956E-17
3.555019E+03	4.800481E-17	1.248111E-17
3.564921E+03	4.820285E-17	1.246069E-17
3.574824E+03	4.839680E-17	1.243853E-17
3.584726E+03	4.858625E-17	1.241454E-17
3.594629E+03	4.877026E-17	1.238850E-17
3.604531E+03	4.894842E-17	1.236036E-17
3.614434E+03	4.912092E-17	1.233019E-17
3.624337E+03	4.928683E-17	1.229779E-17
3.634239E+03	4.944686E-17	1.226337E-17
3.644142E+03	4.959955E-17	1.222663E-17
3.654044E+03	4.974511E-17	1.218764E-17
3.663947E+03	4.988316E-17	1.214636E-17
3.673849E+03	5.001387E-17	1.210287E-17
3.683752E+03	5.013638E-17	1.205702E-17
3.693654E+03	5.025084E-17	1.200889E-17
3.703557E+03	5.035693E-17	1.195844E-17
3.713460E+03	5.045480E-17	1.190577E-17
3.723362E+03	5.054410E-17	1.185084E-17
3.733265E+03	5.062499E-17	1.179374E-17
3.743167E+03	5.069713E-17	1.173444E-17
3.753070E+03	5.076016E-17	1.167292E-17
3.762972E+03	5.081522E-17	1.160949E-17
3.772875E+03	5.086098E-17	1.154390E-17
3.782777E+03	5.089805E-17	1.147634E-17
3.792680E+03	5.092706E-17	1.140701E-17
3.802583E+03	5.094713E-17	1.133577E-17
3.812485E+03	5.095841E-17	1.126269E-17
3.822388E+03	5.096148E-17	1.118797E-17
3.832290E+03	5.095644E-17	1.111168E-17
3.842193E+03	5.094338E-17	1.103390E-17
3.852095E+03	5.092191E-17	1.095458E-17
3.861998E+03	5.089257E-17	1.087390E-17
3.871900E+03	5.085545E-17	1.079194E-17
3.881803E+03	5.081061E-17	1.070875E-17
3.891706E+03	5.075811E-17	1.062439E-17
3.901608E+03	5.069799E-17	1.053894E-17
3.911511E+03	5.063077E-17	1.045253E-17
3.921413E+03	5.055646E-17	1.036524E-17
3.931316E+03	5.047464E-17	1.027701E-17
3.941218E+03	5.038626E-17	1.018810E-17
3.951121E+03	5.029086E-17	1.009845E-17
3.961024E+03	5.018891E-17	1.000820E-17
3.970926E+03	5.008041E-17	9.917409E-18
3.980829E+03	4.996489E-17	9.826021E-18
3.990731E+03	4.984327E-17	9.734260E-18
4.000634E+03	4.971506E-17	9.642078E-18
4.010536E+03	4.958067E-17	9.549600E-18
4.020439E+03	4.944010E-17	9.456863E-18
4.030341E+03	4.929330E-17	9.363902E-18
4.040244E+03	4.914023E-17	9.270753E-18
4.050147E+03	4.898129E-17	9.177529E-18
4.060049E+03	4.881600E-17	9.084181E-18
4.069952E+03	4.864431E-17	8.990741E-18
4.079854E+03	4.846702E-17	8.897395E-18
4.089757E+03	4.828321E-17	8.804012E-18
4.099659E+03	4.809326E-17	8.710696E-18
4.109562E+03	4.789709E-17	8.617474E-18
4.119464E+03	4.769465E-17	8.524370E-18
4.129367E+03	4.748584E-17	8.431404E-18
4.139270E+03	4.727062E-17	8.338599E-18
4.149172E+03	4.704889E-17	8.245975E-18
4.159075E+03	4.682059E-17	8.153550E-18
4.168977E+03	4.658562E-17	8.061343E-18
4.178880E+03	4.634393E-17	7.969371E-18
4.188782E+03	4.609502E-17	7.877579E-18
4.198685E+03	4.583881E-17	7.785983E-18
4.208587E+03	4.557560E-17	7.694663E-18
4.218490E+03	4.530535E-17	7.603633E-18
4.228393E+03	4.502713E-17	7.512762E-18
4.238295E+03	4.474115E-17	7.422083E-18
4.248198E+03	4.444715E-17	7.331554E-18
4.258100E+03	4.414488E-17	7.241129E-18
4.268003E+03	4.383405E-17	7.150756E-18
4.277905E+03	4.351402E-17	7.060327E-18
4.287808E+03	4.318529E-17	6.969921E-18
4.297711E+03	4.284686E-17	6.879367E-18
4.307613E+03	4.249924E-17	6.788744E-18
4.317516E+03	4.214219E-17	6.698004E-18
4.327418E+03	4.177586E-17	6.607163E-18
4.337321E+03	4.140002E-17	6.516176E-18
4.347223E+03	4.101482E-17	6.425056E-18
4.357126E+03	4.062007E-17	6.333760E-18
4.367028E+03	4.021630E-17	6.242361E-18
4.376931E+03	3.980331E-17	6.150815E-18
4.386834E+03	3.938095E-17	6.059082E-18
4.396736E+03	3.894977E-17	5.967234E-18
4.406639E+03	3.850963E-17	5.875234E-18
4.416541E+03	3.806074E-17	5.783099E-18
4.426444E+03	3.760371E-17	5.690900E-18
4.436346E+03	3.713809E-17	5.598555E-18
4.446249E+03	3.666450E-17	5.506137E-18
4.456151E+03	3.618328E-17	5.413668E-18
4.466054E+03	3.569454E-17	5.321128E-18
4.475957E+03	3.519876E-17	5.228557E-18
4.485859E+03	3.469646E-17	5.135995E-18
4.495762E+03	3.418819E-17	5.043491E-18
4.505664E+03	3.367449E-17	4.951090E-18
4.515567E+03	3.315561E-17	4.858799E-18
4.525469E+03	3.263185E-17	4.766627E-18
4.535372E+03	3.210444E-17	4.674724E-18
4.545274E+03	3.157337E-17	4.583056E-18
4.555177E+03	3.103897E-17	4.491644E-18
4.565080E+03	3.050218E-17	4.400592E-18
4.574982E+03	2.996362E-17	4.309963E-18
4.584885E+03	2.942307E-17	4.219699E-18
4.594787E+03	2.888203E-17	4.129989E-18
4.604690E+03	2.834004E-17	4.040741E-18
4.614592E+03	2.779831E-17	3.952105E-18
4.624495E+03	2.725724E-17	3.864113E-18
4.634398E+03	2.671721E-17	3.776799E-18
4.644300E+03	2.617862E-17	3.690197E-18
4.654203E+03	2.564191E-17	3.604350E-18
4.664105E+03	2.510799E-17	3.519366E-18
4.674008E+03	2.457701E-17	3.435250E-18
4.683910E+03	2.404940E-17	3.352042E-18
4.693813E+03	2.352581E-17	3.269819E-18
4.703715E+03	2.300620E-17	3.188557E-18
4.713618E+03	2.249166E-17	3.108395E-18
4.723521E+03	2.198191E-17	3.029280E-18
4.733423E+03	2.147781E-17	2.951316E-18
4.743326E+03	2.097973E-17	2.874542E-18
4.753228E+03	2.048761E-17	2.798939E-18
4.763131E+03	2.000203E-17	2.724576E-18
4.773033E+03	1.952354E-17	2.651514E-18
4.782936E+03	1.905207E-17	2.579734E-18
4.792838E+03	1.858810E-17	2.509294E-18
4.802741E+03	1.813194E-17	2.440223E-18
4.812644E+03	1.768366E-17	2.372523E-18
4.822546E+03	1.724351E-17	2.306218E-18
4.832449E+03	1.681189E-17	2.241355E-18
4.842351E+03	1.638883E-17	2.177928E-18
4.852254E+03	1.597466E-17	2.115973E-18
4.862156E+03	1.556922E-17	2.055460E-18
4.872059E+03	1.517281E-17	1.996422E-18
4.881961E+03	1.478553E-17	1.938864E-18
4.891864E+03	1.440733E-17	1.882772E-18
4.901767E+03	1.403843E-17	1.828167E-18
4.911669E+03	1.367874E-17	1.775030E-18
4.921572E+03	1.332842E-17	1.723375E-18
4.931474E+03	1.298737E-17	1.673181E-18
4.941377E+03	1.265558E-17	1.624438E-18
4.951279E+03	1.233292E-17	1.577121E-18
4.961182E+03	1.201959E-17	1.531253E-18
4.971085E+03	1.171533E-17	1.486789E-18
4.980987E+03	1.142006E-17	1.443713E-18
4.990890E+03	1.113385E-17	1.402026E-18
5.000792E+03	1.085650E-17	1.361695E-18
5.010695E+03	1.058794E-17	1.322704E-18
5.020597E+03	1.032806E-17	1.285031E-18
5.030500E+03	1.007676E-17	1.248658E-18
5.040402E+03	9.833834E-18	1.213550E-18
5.050305E+03	9.599181E-18	1.179687E-18
5.060208E+03	9.372772E-18	1.147059E-18
5.070110E+03	9.154295E-18	1.115621E-18
5.080013E+03	8.943826E-18	1.085372E-18
5.089915E+03	8.740947E-18	1.056257E-18
5.099818E+03	8.545731E-18	1.028276E-18
5.109720E+03	8.357952E-18	1.001395E-18
5.119623E+03	8.177491E-18	9.755930E-19
5.129525E+03	8.004208E-18	9.508457E-19
5.139428E+03	7.837903E-18	9.271229E-19
5.149331E+03	7.678452E-18	9.044032E-19
5.159233E+03	7.525656E-18	8.826567E-19
5.169136E+03	7.379548E-18	8.618809E-19
5.179038E+03	7.239781E-18	8.420291E-19
5.188941E+03	7.106321E-18	8.230916E-19
5.198843E+03	6.979056E-18	8.050497E-19
5.208746E+03	6.857878E-18	7.878852E-19
5.218648E+03	6.742540E-18	7.715646E-19
5.228551E+03	6.633020E-18	7.560806E-19
5.238454E+03	6.529153E-18	7.414096E-19
5.248356E+03	6.430849E-18	7.275370E-19
5.258259E+03	6.337960E-18	7.144420E-19
5.268161E+03	6.250469E-18	7.021191E-19
5.278064E+03	6.168177E-18	6.905424E-19
5.287966E+03	6.091015E-18	6.797011E-19
5.297869E+03	6.018854E-18	6.695784E-19
5.307772E+03	5.951699E-18	6.601726E-19
5.317674E+03	5.889318E-18	6.514561E-19
5.327577E+03	5.831717E-18	6.434282E-19
5.337479E+03	5.778801E-18	6.360775E-19
5.347382E+03	5.730473E-18	6.293929E-19
5.357284E+03	5.686523E-18	6.233513E-19
5.367187E+03	5.646877E-18	6.179453E-19
5.377089E+03	5.611451E-18	6.131666E-19
5.386992E+03	5.579951E-18	6.089849E-19
5.396895E+03	5.552308E-18	6.053945E-19
5.406797E+03	5.528298E-18	6.023737E-19
5.416700E+03	5.507793E-18	5.999116E-19
5.426602E+03	5.490970E-18	5.980308E-19
5.436505E+03	5.477755E-18	5.967273E-19
5.446407E+03	5.468312E-18	5.960234E-19
5.456310E+03	5.462693E-18	5.959296E-19
5.466212E+03	5.461116E-18	5.964749E-19
5.476115E+03	5.463526E-18	5.976595E-19
5.486018E+03	5.470031E-18	5.994981E-19
5.495920E+03	5.480619E-18	6.019878E-19
5.505823E+03	5.495441E-18	6.051441E-19
5.515725E+03	5.514441E-18	6.089604E-19
5.525628E+03	5.537651E-18	6.134401E-19
5.535530E+03	5.565070E-18	6.185839E-19
5.545433E+03	5.596810E-18	6.244053E-19
5.555335E+03	5.632813E-18	6.308998E-19
5.565238E+03	5.673137E-18	6.380761E-19
5.575141E+03	5.717855E-18	6.459452E-19
5.585043E+03	5.766986E-18	6.545125E-19
5.594946E+03	5.820608E-18	6.637909E-19
5.604848E+03	5.878688E-18	6.737809E-19
5.614751E+03	5.941306E-18	6.844963E-19
5.624653E+03	6.008565E-18	6.959544E-19
5.634556E+03	6.080502E-18	7.081650E-19
5.644459E+03	6.157159E-18	7.211390E-19
5.654361E+03	6.238581E-18	7.348884E-19
5.664264E+03	6.324949E-18	7.494411E-19
5.674166E+03	6.416187E-18	7.647954E-19
5.684069E+03	6.512480E-18	7.809810E-19
5.693971E+03	6.613900E-18	7.980142E-19
5.703874E+03	6.720432E-18	8.159015E-19
5.713776E+03	6.832211E-18	8.346677E-19
5.723679E+03	6.949386E-18	8.543394E-19
5.733582E+03	7.071953E-18	8.749255E-19
5.743484E+03	7.199978E-18	8.964429E-19
5.753387E+03	7.333689E-18	9.189294E-19
5.763289E+03	7.473003E-18	9.423840E-19
5.773192E+03	7.618075E-18	9.668358E-19
5.783094E+03	7.768974E-18	9.923032E-19
5.792997E+03	7.925776E-18	1.018805E-18
5.802899E+03	8.088637E-18	1.046372E-18
5.812802E+03	8.257448E-18	1.075000E-18
5.822705E+03	8.432446E-18	1.104728E-18
5.832607E+03	8.613608E-18	1.135563E-18
5.842510E+03	8.800990E-18	1.167522E-18
5.852412E+03	8.994635E-18	1.200621E-18
5.862315E+03	9.194582E-18	1.234873E-18
5.872217E+03	9.400985E-18	1.270307E-18
5.882120E+03	9.613653E-18	1.306907E-18
5.892022E+03	9.832599E-18	1.344682E-18
5.901925E+03	1.005794E-17	1.383656E-18
5.911828E+03	1.028968E-17	1.423837E-18
5.921730E+03	1.052756E-17	1.465195E-18
5.931633E+03	1.077179E-17	1.507766E-18
5.941535E+03	1.102195E-17	1.551498E-18
5.951438E+03	1.127836E-17	1.596439E-18
5.961340E+03	1.154055E-17	1.642527E-18
5.971243E+03	1.180841E-17	1.689750E-18
5.981146E+03	1.208197E-17	1.738115E-18
5.991048E+03	1.236093E-17	1.787581E-18
6.000951E+03	1.264515E-17	1.838128E-18
6.010853E+03	1.293414E-17	1.889685E-18
6.020756E+03	1.322799E-17	1.942265E-18
6.030658E+03	1.352602E-17	1.995764E-18
6.040561E+03	1.382828E-17	2.050187E-18
6.050463E+03	1.413435E-17	2.105468E-18
6.060366E+03	1.444376E-17	2.161531E-18
6.070269E+03	1.475618E-17	2.218321E-18
6.080171E+03	1.507147E-17	2.275809E-18
6.090074E+03	1.538910E-17	2.333907E-18
6.099976E+03	1.570869E-17	2.392548E-18
6.109879E+03	1.603027E-17	2.451728E-18
6.119781E+03	1.635305E-17	2.511314E-18
6.129684E+03	1.667686E-17	2.571267E-18
6.139586E+03	1.700148E-17	2.631544E-18
6.149489E+03	1.732677E-17	2.692107E-18
6.159392E+03	1.765210E-17	2.752847E-18
6.169294E+03	1.797707E-17	2.813686E-18
6.179197E+03	1.830151E-17	2.874582E-18
6.189099E+03	1.862477E-17	2.935421E-18
6.199002E+03	1.894668E-17	2.996156E-18
6.208904E+03	1.926683E-17	3.056709E-18
6.218807E+03	1.958509E-17	3.117042E-18
6.228709E+03	1.990107E-17	3.177074E-18
6.238612E+03	2.021437E-17	3.236726E-18
6.248515E+03	2.052488E-17	3.295965E-18
6.258417E+03	2.083254E-17	3.354759E-18
6.268320E+03	2.113669E-17	3.412990E-18
6.278222E+03	2.143727E-17	3.470628E-18
6.288125E+03	2.173426E-17	3.527655E-18
6.298027E+03	2.202708E-17	3.583957E-18
6.307930E+03	2.231607E-17	3.639570E-18
6.317833E+03	2.260097E-17	3.694437E-18
6.327735E+03	2.288156E-17	3.748501E-18
6.337638E+03	2.315759E-17	3.801704E-18
6.347540E+03	2.342952E-17	3.854105E-18
6.357443E+03	2.369683E-17	3.905600E-18
6.367345E+03	2.396005E-17	3.956259E-18
6.377248E+03	2.421900E-17	4.006039E-18
6.387150E+03	2.447357E-17	4.054904E-18
6.397053E+03	2.472399E-17	4.102876E-18
6.406956E+03	2.497016E-17	4.149926E-18
6.416858E+03	2.521237E-17	4.196086E-18
6.426761E+03	2.544976E-17	4.241201E-18
6.436663E+03	2.568303E-17	4.285373E-18
6.446566E+03	2.591214E-17	4.328582E-18
6.456468E+03	2.613662E-17	4.370736E-18
6.466371E+03	2.635683E-17	4.411886E-18
6.476273E+03	2.657274E-17	4.452014E-18
6.486176E+03	2.678433E-17	4.491106E-18
6.496079E+03	2.699158E-17	4.529147E-18
6.505981E+03	2.719492E-17	4.566200E-18
6.515884E+03	2.739391E-17	4.602184E-18
6.525786E+03	2.758858E-17	4.637091E-18
6.535689E+03	2.777937E-17	4.670991E-18
6.545591E+03	2.796632E-17	4.703880E-18
6.555494E+03	2.814901E-17	4.735682E-18
6.565396E+03	2.832795E-17	4.766475E-18
6.575299E+03	2.850269E-17	4.796177E-18
6.585202E+03	2.867425E-17	4.824955E-18
6.595104E+03	2.884174E-17	4.852653E-18
6.605007E+03	2.900520E-17	4.879274E-18
6.614909E+03	2.916518E-17	4.904906E-18
6.624812E+03	2.932176E-17	4.929560E-18
6.634714E+03	2.947452E-17	4.953162E-18
6.644617E+03	2.962352E-17	4.975718E-18
6.654520E+03	2.976936E-17	4.997328E-18
6.664422E+03	2.991160E-17	5.017917E-18
6.674325E+03	3.005086E-17	5.037588E-18
6.684227E+03	3.018616E-17	5.056175E-18
6.694130E+03	3.031866E-17	5.073875E-18
6.704032E+03	3.044737E-17	5.090520E-18
6.713935E+03	3.057347E-17	5.106309E-18
6.723837E+03	3.069598E-17	5.121080E-18
6.733740E+03	3.081552E-17	5.134939E-18
6.743643E+03	3.093219E-17	5.147907E-18
6.753545E+03	3.104555E-17	5.159910E-18
6.763448E+03	3.115626E-17	5.171061E-18
6.773350E+03	3.126383E-17	5.181287E-18
6.783253E+03	3.136896E-17	5.190706E-18
6.793155E+03	3.147058E-17	5.199144E-18
6.803058E+03	3.156997E-17	5.206821E-18
6.812960E+03	3.166663E-17	5.213660E-18
6.822863E+03	3.176068E-17	5.219685E-18
6.832766E+03	3.185162E-17	5.224821E-18
6.842668E+03	3.194075E-17	5.229291E-18
6.852571E+03	3.202637E-17	5.232822E-18
6.862473E+03	3.211040E-17	5.235736E-18
6.872376E+03	3.219173E-17	5.237862E-18
6.882278E+03	3.227044E-17	5.239222E-18
6.892181E+03	3.234728E-17	5.239946E-18
6.902083E+03	3.242172E-17	5.239958E-18
6.911986E+03	3.249386E-17	5.239286E-18
6.921889E+03	3.256380E-17	5.237957E-18
6.931791E+03	3.263164E-17	5.235998E-18
6.941694E+03	3.269749E-17	5.233438E-18
6.951596E+03	3.276080E-17	5.230201E-18
6.961499E+03	3.282295E-17	5.226523E-18
6.971401E+03	3.288212E-17	5.222122E-18
6.981304E+03	3.294033E-17	5.217338E-18
6.991207E+03	3.299573E-17	5.211888E-18
7.001109E+03	3.304973E-17	5.206011E-18
7.011012E+03	3.310176E-17	5.199632E-18
7.020914E+03	3.315191E-17	5.192781E-18
7.030817E+03	3.320094E-17	5.185592E-18
7.040719E+03	3.324761E-17	5.177887E-18
7.050622E+03	3.329268E-17	5.169802E-18
7.060524E+03	3.333555E-17	5.161261E-18
7.070427E+03	3.337700E-17	5.152402E-18
7.080330E+03	3.341711E-17	5.143255E-18
7.090232E+03	3.345527E-17	5.133748E-18
7.100135E+03	3.349227E-17	5.124015E-18
7.110037E+03	3.352681E-17	5.113880E-18
7.119940E+03	3.356033E-17	5.103584E-18
7.129842E+03	3.359225E-17	5.093055E-18
7.139745E+03	3.362194E-17	5.082220E-18
7.149647E+03	3.365016E-17	5.071216E-18
7.159550E+03	3.367700E-17	5.060074E-18
7.169453E+03	3.370183E-17	5.048725E-18
7.179355E+03	3.372472E-17	5.037200E-18
7.189258E+03	3.374573E-17	5.025532E-18
7.199160E+03	3.376495E-17	5.013754E-18
7.209063E+03	3.378243E-17	5.001899E-18
7.218965E+03	3.379684E-17	4.989793E-18
7.228868E+03	3.380963E-17	4.977676E-18
7.238770E+03	3.382018E-17	4.965478E-18
7.248673E+03	3.382783E-17	4.953128E-18
7.258576E+03	3.383335E-17	4.940763E-18
7.268478E+03	3.383537E-17	4.928209E-18
7.278381E+03	3.383395E-17	4.915499E-18
7.288283E+03	3.382915E-17	4.902667E-18
7.298186E+03	3.382030E-17	4.889643E-18
7.308088E+03	3.380816E-17	4.876561E-18
7.317991E+03	3.379065E-17	4.863147E-18
7.327894E+03	3.376922E-17	4.849637E-18
7.337796E+03	3.374251E-17	4.835858E-18
7.347699E+03	3.371126E-17	4.821942E-18
7.357601E+03	3.367481E-17	4.807820E-18
7.367504E+03	3.363319E-17	4.793518E-18
7.377406E+03	3.358718E-17	4.779171E-18
7.387309E+03	3.353610E-17	4.764702E-18
7.397211E+03	3.348215E-17	4.750446E-18
7.407114E+03	3.342395E-17	4.736223E-18
7.417017E+03	3.336299E-17	4.722265E-18
7.426919E+03	3.329859E-17	4.708486E-18
7.436822E+03	3.323300E-17	4.695191E-18
7.446724E+03	3.316555E-17	4.682263E-18
7.456627E+03	3.309632E-17	4.669689E-18
7.466529E+03	3.302609E-17	4.657560E-18
7.476432E+03	3.295494E-17	4.645861E-18
7.486334E+03	3.288438E-17	4.634784E-18
7.496237E+03	3.281304E-17	4.624109E-18
7.506140E+03	3.274169E-17	4.613923E-18
7.516042E+03	3.267114E-17	4.604314E-18
7.525945E+03	3.260072E-17	4.595168E-18
7.535847E+03	3.253123E-17	4.586570E-18
7.545750E+03	3.246200E-17	4.578402E-18
7.555652E+03	3.239455E-17	4.570857E-18
7.565555E+03	3.232748E-17	4.563714E-18
7.575457E+03	3.226231E-17	4.557165E-18
7.585360E+03	3.219766E-17	4.550990E-18
7.595263E+03	3.213501E-17	4.545379E-18
7.605165E+03	3.207299E-17	4.540114E-18
7.615068E+03	3.201309E-17	4.535387E-18
7.624970E+03	3.195465E-17	4.531082E-18
7.634873E+03	3.189773E-17	4.527187E-18
7.644775E+03	3.184235E-17	4.523685E-18
7.654678E+03	3.178860E-17	4.520568E-18
7.664581E+03	3.173650E-17	4.517822E-18
7.674483E+03	3.168537E-17	4.515330E-18
7.684386E+03	3.163673E-17	4.513290E-18
