#wls	flux	fluxerr
1.584409E+03	1.316786E-18	3.618898E-19
1.624020E+03	1.355405E-18	3.724725E-19
1.663630E+03	1.392877E-18	3.827371E-19
1.703240E+03	1.428899E-18	3.926008E-19
1.742850E+03	1.463233E-18	4.019978E-19
1.782461E+03	1.495198E-18	4.107414E-19
1.822071E+03	1.523146E-18	4.183785E-19
1.861681E+03	1.545712E-18	4.245350E-19
1.901291E+03	1.560920E-18	4.286685E-19
1.940902E+03	1.566936E-18	4.302755E-19
1.980512E+03	1.562824E-18	4.291002E-19
2.020122E+03	1.550285E-18	4.256104E-19
2.059732E+03	1.535083E-18	4.213891E-19
2.099342E+03	1.527586E-18	4.192822E-19
2.138953E+03	1.540556E-18	4.227916E-19
2.178563E+03	1.582966E-18	4.343775E-19
2.218173E+03	1.656071E-18	4.543807E-19
2.257783E+03	1.753780E-18	4.811275E-19
2.297394E+03	1.866693E-18	5.120362E-19
2.337004E+03	1.986272E-18	5.447635E-19
2.376614E+03	2.106651E-18	5.776991E-19
2.416224E+03	2.224627E-18	6.099649E-19
2.455835E+03	2.339243E-18	6.412984E-19
2.495445E+03	2.450422E-18	6.716785E-19
2.535055E+03	2.558874E-18	7.013000E-19
2.574665E+03	2.665253E-18	7.303421E-19
2.614276E+03	2.770359E-18	7.590241E-19
2.653886E+03	2.874757E-18	7.875005E-19
2.693496E+03	2.978936E-18	8.159053E-19
2.733106E+03	3.083303E-18	8.443494E-19
2.772716E+03	3.188093E-18	8.728969E-19
2.812327E+03	3.293476E-18	9.015942E-19
2.851937E+03	3.399750E-18	9.305227E-19
2.891547E+03	3.506983E-18	9.597003E-19
2.931157E+03	3.615646E-18	9.892556E-19
2.970768E+03	3.725896E-18	1.019231E-18
2.980670E+03	3.753849E-18	1.026830E-18
2.990573E+03	3.781872E-18	1.034446E-18
3.000475E+03	3.809962E-18	1.042081E-18
3.010378E+03	3.838285E-18	1.049778E-18
3.020280E+03	3.866753E-18	1.057513E-18
3.030183E+03	3.895360E-18	1.065286E-18
3.040086E+03	3.924231E-18	1.073130E-18
3.049988E+03	3.953439E-18	1.081066E-18
3.059891E+03	3.983142E-18	1.089135E-18
3.069793E+03	4.013452E-18	1.097370E-18
3.079696E+03	4.044151E-18	1.105710E-18
3.089598E+03	4.075278E-18	1.114166E-18
3.099501E+03	4.106705E-18	1.122703E-18
3.109403E+03	4.138638E-18	1.131377E-18
3.119306E+03	4.170798E-18	1.140113E-18
3.129209E+03	4.203227E-18	1.148920E-18
3.139111E+03	4.235974E-18	1.157814E-18
3.149014E+03	4.269013E-18	1.166787E-18
3.158916E+03	4.302157E-18	1.175786E-18
3.168819E+03	4.335616E-18	1.184871E-18
3.178721E+03	4.369211E-18	1.193992E-18
3.188624E+03	4.402998E-18	1.203165E-18
3.198526E+03	4.436877E-18	1.212361E-18
3.208429E+03	4.470916E-18	1.221600E-18
3.218332E+03	4.505096E-18	1.230877E-18
3.228234E+03	4.539397E-18	1.240185E-18
3.238137E+03	4.573731E-18	1.249501E-18
3.248039E+03	4.608168E-18	1.258844E-18
3.257942E+03	4.642690E-18	1.268210E-18
3.267844E+03	4.677218E-18	1.277575E-18
3.277747E+03	4.711815E-18	1.286959E-18
3.287650E+03	4.746401E-18	1.296338E-18
3.297552E+03	4.781044E-18	1.305732E-18
3.307455E+03	4.815664E-18	1.315118E-18
3.317357E+03	4.850258E-18	1.324496E-18
3.327260E+03	4.884825E-18	1.333866E-18
3.337162E+03	4.919354E-18	1.343223E-18
3.347065E+03	4.953851E-18	1.352571E-18
3.356967E+03	4.988241E-18	1.361889E-18
3.366870E+03	5.022597E-18	1.371196E-18
3.376773E+03	5.056774E-18	1.380454E-18
3.386675E+03	5.090919E-18	1.389701E-18
3.396578E+03	5.124893E-18	1.398900E-18
3.406480E+03	5.158691E-18	1.408050E-18
3.416383E+03	5.192327E-18	1.417155E-18
3.426285E+03	5.225731E-18	1.426196E-18
3.436188E+03	5.258978E-18	1.435192E-18
3.446090E+03	5.292007E-18	1.444128E-18
3.455993E+03	5.324749E-18	1.452984E-18
3.465896E+03	5.357215E-18	1.461764E-18
3.475798E+03	5.389348E-18	1.470452E-18
3.485701E+03	5.421222E-18	1.479068E-18
3.495603E+03	5.452641E-18	1.487559E-18
3.505506E+03	5.483685E-18	1.495947E-18
3.515408E+03	5.514300E-18	1.504216E-18
3.525311E+03	5.544495E-18	1.512370E-18
3.535213E+03	5.574149E-18	1.520376E-18
3.545116E+03	5.603211E-18	1.528219E-18
3.555019E+03	5.631759E-18	1.535920E-18
3.564921E+03	5.659614E-18	1.543432E-18
3.574824E+03	5.686861E-18	1.550777E-18
3.584726E+03	5.713441E-18	1.557939E-18
3.594629E+03	5.739250E-18	1.564890E-18
3.604531E+03	5.764240E-18	1.571617E-18
3.614434E+03	5.788428E-18	1.578125E-18
3.624337E+03	5.811713E-18	1.584385E-18
3.634239E+03	5.834171E-18	1.590419E-18
3.644142E+03	5.855637E-18	1.596182E-18
3.654044E+03	5.876134E-18	1.601680E-18
3.663947E+03	5.895621E-18	1.606902E-18
3.673849E+03	5.914122E-18	1.611855E-18
3.683752E+03	5.931531E-18	1.616510E-18
3.693654E+03	5.947879E-18	1.620874E-18
3.703557E+03	5.963120E-18	1.624937E-18
3.713460E+03	5.977286E-18	1.628706E-18
3.723362E+03	5.990334E-18	1.632170E-18
3.733265E+03	6.002287E-18	1.635336E-18
3.743167E+03	6.013115E-18	1.638194E-18
3.753070E+03	6.022778E-18	1.640735E-18
3.762972E+03	6.031418E-18	1.642996E-18
3.772875E+03	6.038884E-18	1.644938E-18
3.782777E+03	6.045252E-18	1.646580E-18
3.792680E+03	6.050608E-18	1.647947E-18
3.802583E+03	6.054855E-18	1.649011E-18
3.812485E+03	6.058019E-18	1.649780E-18
3.822388E+03	6.060173E-18	1.650274E-18
3.832290E+03	6.061343E-18	1.650500E-18
3.842193E+03	6.061544E-18	1.650463E-18
3.852095E+03	6.060741E-18	1.650152E-18
3.861998E+03	6.059015E-18	1.649590E-18
3.871900E+03	6.056378E-18	1.648779E-18
3.881803E+03	6.052850E-18	1.647727E-18
3.891706E+03	6.048451E-18	1.646437E-18
3.901608E+03	6.043193E-18	1.644914E-18
3.911511E+03	6.037152E-18	1.643178E-18
3.921413E+03	6.030345E-18	1.641234E-18
3.931316E+03	6.022728E-18	1.639069E-18
3.941218E+03	6.014425E-18	1.636718E-18
3.951121E+03	6.005396E-18	1.634171E-18
3.961024E+03	5.995716E-18	1.631446E-18
3.970926E+03	5.985385E-18	1.628544E-18
3.980829E+03	5.974366E-18	1.625456E-18
3.990731E+03	5.962785E-18	1.622215E-18
4.000634E+03	5.950590E-18	1.618808E-18
4.010536E+03	5.937847E-18	1.615252E-18
4.020439E+03	5.924569E-18	1.611552E-18
4.030341E+03	5.910758E-18	1.607707E-18
4.040244E+03	5.896431E-18	1.603721E-18
4.050147E+03	5.881646E-18	1.599613E-18
4.060049E+03	5.866352E-18	1.595366E-18
4.069952E+03	5.850564E-18	1.590985E-18
4.079854E+03	5.834387E-18	1.586500E-18
4.089757E+03	5.817728E-18	1.581884E-18
4.099659E+03	5.800635E-18	1.577150E-18
4.109562E+03	5.783121E-18	1.572303E-18
4.119464E+03	5.765185E-18	1.567342E-18
4.129367E+03	5.746828E-18	1.562267E-18
4.139270E+03	5.728061E-18	1.557082E-18
4.149172E+03	5.708877E-18	1.551784E-18
4.159075E+03	5.689282E-18	1.546375E-18
4.168977E+03	5.669274E-18	1.540854E-18
4.178880E+03	5.648853E-18	1.535223E-18
4.188782E+03	5.627968E-18	1.529466E-18
4.198685E+03	5.606616E-18	1.523582E-18
4.208587E+03	5.584848E-18	1.517587E-18
4.218490E+03	5.562657E-18	1.511478E-18
4.228393E+03	5.539944E-18	1.505228E-18
4.238295E+03	5.516748E-18	1.498847E-18
4.248198E+03	5.493062E-18	1.492334E-18
4.258100E+03	5.468886E-18	1.485690E-18
4.268003E+03	5.444205E-18	1.478909E-18
4.277905E+03	5.418961E-18	1.471975E-18
4.287808E+03	5.393246E-18	1.464916E-18
4.297711E+03	5.366948E-18	1.457698E-18
4.307613E+03	5.340151E-18	1.450346E-18
4.317516E+03	5.312838E-18	1.442855E-18
4.327418E+03	5.285052E-18	1.435237E-18
4.337321E+03	5.256763E-18	1.427483E-18
4.347223E+03	5.228015E-18	1.419606E-18
4.357126E+03	5.198781E-18	1.411597E-18
4.367028E+03	5.169142E-18	1.403480E-18
4.376931E+03	5.139073E-18	1.395247E-18
4.386834E+03	5.108557E-18	1.386893E-18
4.396736E+03	5.077665E-18	1.378439E-18
4.406639E+03	5.046379E-18	1.369879E-18
4.416541E+03	5.014722E-18	1.361219E-18
4.426444E+03	4.982763E-18	1.352478E-18
4.436346E+03	4.950435E-18	1.343638E-18
4.446249E+03	4.917810E-18	1.334719E-18
4.456151E+03	4.884910E-18	1.325726E-18
4.466054E+03	4.851715E-18	1.316653E-18
4.475957E+03	4.818251E-18	1.307509E-18
4.485859E+03	4.784535E-18	1.298298E-18
4.495762E+03	4.750599E-18	1.289028E-18
4.505664E+03	4.716466E-18	1.279706E-18
4.515567E+03	4.682124E-18	1.270328E-18
4.525469E+03	4.647547E-18	1.260887E-18
4.535372E+03	4.612858E-18	1.251417E-18
4.545274E+03	4.577997E-18	1.241902E-18
4.555177E+03	4.542951E-18	1.232337E-18
4.565080E+03	4.507794E-18	1.222743E-18
4.574982E+03	4.472561E-18	1.213129E-18
4.584885E+03	4.437155E-18	1.203470E-18
4.594787E+03	4.401742E-18	1.193810E-18
4.604690E+03	4.366188E-18	1.184112E-18
4.614592E+03	4.330616E-18	1.174411E-18
4.624495E+03	4.295024E-18	1.164705E-18
4.634398E+03	4.259410E-18	1.154994E-18
4.644300E+03	4.223776E-18	1.145279E-18
4.654203E+03	4.188125E-18	1.135560E-18
4.664105E+03	4.152544E-18	1.125861E-18
4.674008E+03	4.116996E-18	1.116172E-18
4.683910E+03	4.081490E-18	1.106495E-18
4.693813E+03	4.046076E-18	1.096844E-18
4.703715E+03	4.010683E-18	1.087200E-18
4.713618E+03	3.975444E-18	1.077598E-18
4.723521E+03	3.940253E-18	1.068010E-18
4.733423E+03	3.905203E-18	1.058462E-18
4.743326E+03	3.870311E-18	1.048957E-18
4.753228E+03	3.835517E-18	1.039479E-18
4.763131E+03	3.800877E-18	1.030044E-18
4.773033E+03	3.766450E-18	1.020668E-18
4.782936E+03	3.732178E-18	1.011334E-18
4.792838E+03	3.698121E-18	1.002060E-18
4.802741E+03	3.664302E-18	9.928502E-19
4.812644E+03	3.630703E-18	9.837015E-19
4.822546E+03	3.597349E-18	9.746197E-19
4.832449E+03	3.564299E-18	9.656211E-19
4.842351E+03	3.531540E-18	9.567021E-19
4.852254E+03	3.499130E-18	9.478785E-19
4.862156E+03	3.467022E-18	9.391373E-19
4.872059E+03	3.435275E-18	9.304946E-19
4.881961E+03	3.403911E-18	9.219566E-19
4.891864E+03	3.372921E-18	9.135202E-19
4.901767E+03	3.342360E-18	9.052011E-19
4.911669E+03	3.312218E-18	8.969959E-19
4.921572E+03	3.282552E-18	8.889202E-19
4.931474E+03	3.253348E-18	8.809704E-19
4.941377E+03	3.224630E-18	8.731528E-19
4.951279E+03	3.196385E-18	8.654640E-19
4.961182E+03	3.168702E-18	8.579277E-19
4.971085E+03	3.141534E-18	8.505317E-19
4.980987E+03	3.114903E-18	8.432815E-19
4.990890E+03	3.088861E-18	8.361912E-19
5.000792E+03	3.063395E-18	8.292575E-19
5.010695E+03	3.038524E-18	8.224854E-19
5.020597E+03	3.014266E-18	8.158798E-19
5.030500E+03	2.990641E-18	8.094459E-19
5.040402E+03	2.967635E-18	8.031801E-19
5.050305E+03	2.945266E-18	7.970870E-19
5.060208E+03	2.923581E-18	7.911797E-19
5.070110E+03	2.902538E-18	7.854462E-19
5.080013E+03	2.882212E-18	7.799073E-19
5.089915E+03	2.862530E-18	7.745432E-19
5.099818E+03	2.843568E-18	7.693742E-19
5.109720E+03	2.825313E-18	7.643967E-19
5.119623E+03	2.807779E-18	7.596148E-19
5.129525E+03	2.790982E-18	7.550326E-19
5.139428E+03	2.774909E-18	7.506464E-19
5.149331E+03	2.759575E-18	7.464603E-19
5.159233E+03	2.744966E-18	7.424707E-19
5.169136E+03	2.731154E-18	7.386967E-19
5.179038E+03	2.718069E-18	7.351197E-19
5.188941E+03	2.705754E-18	7.317510E-19
5.198843E+03	2.694223E-18	7.285945E-19
5.208746E+03	2.683490E-18	7.256542E-19
5.218648E+03	2.673515E-18	7.229189E-19
5.228551E+03	2.664341E-18	7.204000E-19
5.238454E+03	2.655954E-18	7.180941E-19
5.248356E+03	2.648368E-18	7.160050E-19
5.258259E+03	2.641571E-18	7.141290E-19
5.268161E+03	2.635604E-18	7.124774E-19
5.278064E+03	2.630427E-18	7.110393E-19
5.287966E+03	2.626054E-18	7.098188E-19
5.297869E+03	2.622474E-18	7.088123E-19
5.307772E+03	2.619726E-18	7.080305E-19
5.317674E+03	2.617745E-18	7.074560E-19
5.327577E+03	2.616571E-18	7.070992E-19
5.337479E+03	2.616190E-18	7.069568E-19
5.347382E+03	2.616589E-18	7.070250E-19
5.357284E+03	2.617703E-18	7.072859E-19
5.367187E+03	2.619516E-18	7.077356E-19
5.377089E+03	2.622014E-18	7.083701E-19
5.386992E+03	2.625076E-18	7.091567E-19
5.396895E+03	2.628686E-18	7.100907E-19
5.406797E+03	2.632744E-18	7.111458E-19
5.416700E+03	2.637206E-18	7.123093E-19
5.426602E+03	2.642155E-18	7.136042E-19
5.436505E+03	2.647569E-18	7.150242E-19
5.446407E+03	2.653530E-18	7.165915E-19
5.456310E+03	2.660066E-18	7.183137E-19
5.466212E+03	2.667286E-18	7.202203E-19
5.476115E+03	2.675164E-18	7.223040E-19
5.486018E+03	2.683754E-18	7.245793E-19
5.495920E+03	2.693055E-18	7.270461E-19
5.505823E+03	2.703148E-18	7.297263E-19
5.515725E+03	2.714004E-18	7.326117E-19
5.525628E+03	2.725649E-18	7.357096E-19
5.535530E+03	2.738080E-18	7.390189E-19
5.545433E+03	2.751349E-18	7.425539E-19
5.555335E+03	2.765426E-18	7.463062E-19
5.565238E+03	2.780335E-18	7.502822E-19
5.575141E+03	2.796100E-18	7.544884E-19
5.585043E+03	2.812717E-18	7.589237E-19
5.594946E+03	2.830211E-18	7.635946E-19
5.604848E+03	2.848545E-18	7.684916E-19
5.614751E+03	2.867746E-18	7.736213E-19
5.624653E+03	2.887835E-18	7.789898E-19
5.634556E+03	2.908807E-18	7.845956E-19
5.644459E+03	2.930657E-18	7.904369E-19
5.654361E+03	2.953377E-18	7.965118E-19
5.664264E+03	2.977020E-18	8.028349E-19
5.674166E+03	3.001519E-18	8.093874E-19
5.684069E+03	3.026928E-18	8.161842E-19
5.693971E+03	3.053239E-18	8.232229E-19
5.703874E+03	3.080411E-18	8.304925E-19
5.713776E+03	3.108467E-18	8.379992E-19
5.723679E+03	3.137431E-18	8.457492E-19
5.733582E+03	3.167259E-18	8.537309E-19
5.743484E+03	3.197940E-18	8.619410E-19
5.753387E+03	3.229531E-18	8.703952E-19
5.763289E+03	3.261952E-18	8.790713E-19
5.773192E+03	3.295224E-18	8.879753E-19
5.783094E+03	3.329334E-18	8.971036E-19
5.792997E+03	3.364267E-18	9.064518E-19
5.802899E+03	3.400046E-18	9.160264E-19
5.812802E+03	3.436577E-18	9.258021E-19
5.822705E+03	3.473922E-18	9.357950E-19
5.832607E+03	3.512021E-18	9.459897E-19
5.842510E+03	3.550856E-18	9.563805E-19
5.852412E+03	3.590406E-18	9.669621E-19
5.862315E+03	3.630649E-18	9.777283E-19
5.872217E+03	3.671601E-18	9.886838E-19
5.882120E+03	3.713157E-18	9.997997E-19
5.892022E+03	3.755287E-18	1.011068E-18
5.901925E+03	3.798008E-18	1.022494E-18
5.911828E+03	3.841288E-18	1.034068E-18
5.921730E+03	3.885009E-18	1.045759E-18
5.931633E+03	3.929227E-18	1.057581E-18
5.941535E+03	3.973770E-18	1.069489E-18
5.951438E+03	4.018739E-18	1.081509E-18
5.961340E+03	4.063955E-18	1.093594E-18
5.971243E+03	4.109375E-18	1.105732E-18
5.981146E+03	4.155005E-18	1.117923E-18
5.991048E+03	4.200752E-18	1.130144E-18
6.000951E+03	4.246567E-18	1.142381E-18
6.010853E+03	4.292301E-18	1.154594E-18
6.020756E+03	4.338004E-18	1.166796E-18
6.030658E+03	4.383466E-18	1.178931E-18
6.040561E+03	4.428739E-18	1.191013E-18
6.050463E+03	4.473711E-18	1.203012E-18
6.060366E+03	4.518271E-18	1.214898E-18
6.070269E+03	4.562358E-18	1.226655E-18
6.080171E+03	4.605967E-18	1.238280E-18
6.090074E+03	4.648982E-18	1.249744E-18
6.099976E+03	4.691340E-18	1.261030E-18
6.109879E+03	4.733097E-18	1.272151E-18
6.119781E+03	4.774076E-18	1.283061E-18
6.129684E+03	4.814276E-18	1.293760E-18
6.139586E+03	4.853699E-18	1.304248E-18
6.149489E+03	4.892351E-18	1.314527E-18
6.159392E+03	4.930113E-18	1.324565E-18
6.169294E+03	4.966931E-18	1.334347E-18
6.179197E+03	5.002815E-18	1.343876E-18
6.189099E+03	5.037647E-18	1.353121E-18
6.199002E+03	5.071440E-18	1.362085E-18
6.208904E+03	5.104143E-18	1.370755E-18
6.218807E+03	5.135779E-18	1.379136E-18
6.228709E+03	5.166301E-18	1.387216E-18
6.238612E+03	5.195665E-18	1.394984E-18
6.248515E+03	5.223899E-18	1.402448E-18
6.258417E+03	5.251037E-18	1.409615E-18
6.268320E+03	5.276970E-18	1.416457E-18
6.278222E+03	5.301743E-18	1.422987E-18
6.288125E+03	5.325385E-18	1.429211E-18
6.298027E+03	5.347806E-18	1.435107E-18
6.307930E+03	5.369121E-18	1.440705E-18
6.317833E+03	5.389308E-18	1.445999E-18
6.327735E+03	5.408349E-18	1.450984E-18
6.337638E+03	5.426222E-18	1.455655E-18
6.347540E+03	5.443068E-18	1.460049E-18
6.357443E+03	5.458796E-18	1.464143E-18
6.367345E+03	5.473553E-18	1.467975E-18
6.377248E+03	5.487332E-18	1.471544E-18
6.387150E+03	5.500132E-18	1.474849E-18
6.397053E+03	5.512020E-18	1.477910E-18
6.406956E+03	5.523012E-18	1.480729E-18
6.416858E+03	5.533175E-18	1.483326E-18
6.426761E+03	5.542355E-18	1.485658E-18
6.436663E+03	5.550725E-18	1.487773E-18
6.446566E+03	5.558279E-18	1.489669E-18
6.456468E+03	5.564949E-18	1.491327E-18
6.466371E+03	5.570821E-18	1.492771E-18
6.476273E+03	5.575913E-18	1.494006E-18
6.486176E+03	5.580222E-18	1.495030E-18
6.496079E+03	5.583769E-18	1.495850E-18
6.505981E+03	5.586654E-18	1.496493E-18
6.515884E+03	5.588802E-18	1.496938E-18
6.525786E+03	5.590223E-18	1.497188E-18
6.535689E+03	5.591022E-18	1.497271E-18
6.545591E+03	5.591220E-18	1.497193E-18
6.555494E+03	5.590736E-18	1.496933E-18
6.565396E+03	5.589686E-18	1.496521E-18
6.575299E+03	5.587991E-18	1.495937E-18
6.585202E+03	5.585856E-18	1.495235E-18
6.595104E+03	5.583111E-18	1.494370E-18
6.605007E+03	5.579777E-18	1.493347E-18
6.614909E+03	5.575970E-18	1.492198E-18
6.624812E+03	5.571706E-18	1.490927E-18
6.634714E+03	5.566914E-18	1.489515E-18
6.644617E+03	5.561611E-18	1.487966E-18
6.654520E+03	5.555913E-18	1.486312E-18
6.664422E+03	5.549750E-18	1.484534E-18
6.674325E+03	5.543234E-18	1.482662E-18
6.684227E+03	5.536188E-18	1.480649E-18
6.694130E+03	5.528841E-18	1.478556E-18
6.704032E+03	5.521006E-18	1.476333E-18
6.713935E+03	5.512912E-18	1.474041E-18
6.723837E+03	5.504372E-18	1.471631E-18
6.733740E+03	5.495513E-18	1.469136E-18
6.743643E+03	5.486357E-18	1.466562E-18
6.753545E+03	5.476824E-18	1.463887E-18
6.763448E+03	5.467034E-18	1.461145E-18
6.773350E+03	5.456909E-18	1.458315E-18
6.783253E+03	5.446576E-18	1.455429E-18
6.793155E+03	5.435848E-18	1.452438E-18
6.803058E+03	5.424949E-18	1.449403E-18
6.812960E+03	5.413803E-18	1.446302E-18
6.822863E+03	5.402427E-18	1.443141E-18
6.832766E+03	5.390746E-18	1.439899E-18
6.842668E+03	5.378978E-18	1.436635E-18
6.852571E+03	5.366845E-18	1.433275E-18
6.862473E+03	5.354663E-18	1.429902E-18
6.872376E+03	5.342262E-18	1.426472E-18
6.882278E+03	5.329654E-18	1.422987E-18
6.892181E+03	5.316964E-18	1.419482E-18
6.902083E+03	5.304109E-18	1.415933E-18
6.911986E+03	5.291111E-18	1.412348E-18
6.921889E+03	5.277988E-18	1.408730E-18
6.931791E+03	5.264761E-18	1.405085E-18
6.941694E+03	5.251450E-18	1.401420E-18
6.951596E+03	5.237971E-18	1.397710E-18
6.961499E+03	5.224549E-18	1.394017E-18
6.971401E+03	5.210896E-18	1.390263E-18
6.981304E+03	5.197339E-18	1.386536E-18
6.991207E+03	5.183587E-18	1.382759E-18
7.001109E+03	5.169868E-18	1.378991E-18
7.011012E+03	5.156094E-18	1.375210E-18
7.020914E+03	5.142287E-18	1.371421E-18
7.030817E+03	5.128566E-18	1.367657E-18
7.040719E+03	5.114743E-18	1.363866E-18
7.050622E+03	5.100941E-18	1.360083E-18
7.060524E+03	5.087074E-18	1.356283E-18
7.070427E+03	5.073262E-18	1.352500E-18
7.080330E+03	5.059524E-18	1.348737E-18
7.090232E+03	5.045773E-18	1.344973E-18
7.100135E+03	5.032130E-18	1.341238E-18
7.110037E+03	5.018406E-18	1.337483E-18
7.119940E+03	5.004824E-18	1.333768E-18
7.129842E+03	4.991297E-18	1.330068E-18
7.139745E+03	4.977741E-18	1.326362E-18
7.149647E+03	4.964272E-18	1.322681E-18
7.159550E+03	4.950908E-18	1.319029E-18
7.169453E+03	4.937562E-18	1.315384E-18
7.179355E+03	4.924252E-18	1.311749E-18
7.189258E+03	4.910990E-18	1.308128E-18
7.199160E+03	4.897793E-18	1.304527E-18
7.209063E+03	4.884677E-18	1.300948E-18
7.218965E+03	4.871453E-18	1.297342E-18
7.228868E+03	4.858339E-18	1.293767E-18
7.238770E+03	4.845247E-18	1.290200E-18
7.248673E+03	4.832092E-18	1.286617E-18
7.258576E+03	4.818988E-18	1.283049E-18
7.268478E+03	4.805746E-18	1.279446E-18
7.278381E+03	4.792382E-18	1.275812E-18
7.288283E+03	4.778908E-18	1.272150E-18
7.298186E+03	4.765236E-18	1.268438E-18
7.308088E+03	4.751480E-18	1.264704E-18
7.317991E+03	4.737351E-18	1.260873E-18
7.327894E+03	4.723061E-18	1.257000E-18
7.337796E+03	4.708422E-18	1.253037E-18
7.347699E+03	4.693544E-18	1.249011E-18
7.357601E+03	4.678339E-18	1.244900E-18
7.367504E+03	4.662815E-18	1.240707E-18
7.377406E+03	4.647083E-18	1.236459E-18
7.387309E+03	4.631050E-18	1.232133E-18
7.397211E+03	4.615023E-18	1.227810E-18
7.407114E+03	4.598809E-18	1.223440E-18
7.417017E+03	4.582613E-18	1.219076E-18
7.426919E+03	4.566341E-18	1.214693E-18
7.436822E+03	4.550295E-18	1.210372E-18
7.446724E+03	4.534380E-18	1.206088E-18
7.456627E+03	4.518599E-18	1.201841E-18
7.466529E+03	4.503053E-18	1.197658E-18
7.476432E+03	4.487743E-18	1.193539E-18
7.486334E+03	4.472870E-18	1.189539E-18
7.496237E+03	4.458237E-18	1.185603E-18
7.506140E+03	4.443942E-18	1.181759E-18
7.516042E+03	4.430083E-18	1.178032E-18
7.525945E+03	4.416564E-18	1.174397E-18
7.535847E+03	4.403480E-18	1.170879E-18
7.545750E+03	4.390732E-18	1.167452E-18
7.555652E+03	4.378517E-18	1.164168E-18
7.565555E+03	4.366635E-18	1.160974E-18
7.575457E+03	4.355281E-18	1.157921E-18
7.585360E+03	4.344257E-18	1.154958E-18
7.595263E+03	4.333757E-18	1.152135E-18
7.605165E+03	4.323581E-18	1.149399E-18
7.615068E+03	4.313925E-18	1.146803E-18
7.624970E+03	4.304687E-18	1.144319E-18
7.634873E+03	4.295864E-18	1.141947E-18
7.644775E+03	4.287453E-18	1.139685E-18
7.654678E+03	4.279452E-18	1.137533E-18
7.664581E+03	4.271858E-18	1.135491E-18
7.674483E+03	4.264568E-18	1.133530E-18
7.684386E+03	4.257777E-18	1.131704E-18
