#wls	flux	fluxerr
1.584409E+03	5.618270E-17	2.057194E-18
1.624020E+03	5.857086E-17	2.144587E-18
1.663630E+03	6.079095E-17	2.225822E-18
1.703240E+03	6.279584E-17	2.299171E-18
1.742850E+03	6.455984E-17	2.363697E-18
1.782461E+03	6.600955E-17	2.416710E-18
1.822071E+03	6.706568E-17	2.455311E-18
1.861681E+03	6.765012E-17	2.476640E-18
1.901291E+03	6.765944E-17	2.476912E-18
1.940902E+03	6.702440E-17	2.453594E-18
1.980512E+03	6.572154E-17	2.405829E-18
2.020122E+03	6.385420E-17	2.337403E-18
2.059732E+03	6.168304E-17	2.257858E-18
2.099342E+03	5.964380E-17	2.183146E-18
2.138953E+03	5.819883E-17	2.130189E-18
2.178563E+03	5.759635E-17	2.108069E-18
2.218173E+03	5.774611E-17	2.113481E-18
2.257783E+03	5.830030E-17	2.133693E-18
2.297394E+03	5.884492E-17	2.153552E-18
2.337004E+03	5.908018E-17	2.162088E-18
2.376614E+03	5.883545E-17	2.153056E-18
2.416224E+03	5.805547E-17	2.124437E-18
2.455835E+03	5.676636E-17	2.077189E-18
2.495445E+03	5.501886E-17	2.013171E-18
2.535055E+03	5.288639E-17	1.935070E-18
2.574665E+03	5.044238E-17	1.845575E-18
2.614276E+03	4.776046E-17	1.747382E-18
2.653886E+03	4.490466E-17	1.642834E-18
2.693496E+03	4.193476E-17	1.534120E-18
2.733106E+03	3.890450E-17	1.423205E-18
2.772716E+03	3.586196E-17	1.311849E-18
2.812327E+03	3.285072E-17	1.201646E-18
2.851937E+03	2.991095E-17	1.094067E-18
2.891547E+03	2.707791E-17	9.903991E-19
2.931157E+03	2.438198E-17	8.917548E-19
2.970768E+03	2.184689E-17	7.990008E-19
2.980670E+03	2.124092E-17	7.768304E-19
2.990573E+03	2.064576E-17	7.550558E-19
3.000475E+03	2.006242E-17	7.337137E-19
3.010378E+03	1.949047E-17	7.127888E-19
3.020280E+03	1.893037E-17	6.922977E-19
3.030183E+03	1.838250E-17	6.722542E-19
3.040086E+03	1.784626E-17	6.526364E-19
3.049988E+03	1.732344E-17	6.335098E-19
3.059891E+03	1.681383E-17	6.148666E-19
3.069793E+03	1.631771E-17	5.967173E-19
3.079696E+03	1.583435E-17	5.790352E-19
3.089598E+03	1.536347E-17	5.618096E-19
3.099501E+03	1.490540E-17	5.450528E-19
3.109403E+03	1.445932E-17	5.287349E-19
3.119306E+03	1.402587E-17	5.128788E-19
3.129209E+03	1.360406E-17	4.974492E-19
3.139111E+03	1.319453E-17	4.824685E-19
3.149014E+03	1.279662E-17	4.679135E-19
3.158916E+03	1.241068E-17	4.537963E-19
3.168819E+03	1.203634E-17	4.401035E-19
3.178721E+03	1.167367E-17	4.268378E-19
3.188624E+03	1.132254E-17	4.139943E-19
3.198526E+03	1.098281E-17	4.015678E-19
3.208429E+03	1.065418E-17	3.895474E-19
3.218332E+03	1.033686E-17	3.779409E-19
3.228234E+03	1.003053E-17	3.667365E-19
3.238137E+03	9.735195E-18	3.559344E-19
3.248039E+03	9.450511E-18	3.455219E-19
3.257942E+03	9.176309E-18	3.354928E-19
3.267844E+03	8.912533E-18	3.258452E-19
3.277747E+03	8.658827E-18	3.165659E-19
3.287650E+03	8.415103E-18	3.076518E-19
3.297552E+03	8.181125E-18	2.990942E-19
3.307455E+03	7.956432E-18	2.908762E-19
3.317357E+03	7.741014E-18	2.829975E-19
3.327260E+03	7.534521E-18	2.754453E-19
3.337162E+03	7.336711E-18	2.682106E-19
3.347065E+03	7.147352E-18	2.612851E-19
3.356967E+03	6.966002E-18	2.546525E-19
3.366870E+03	6.792635E-18	2.483119E-19
3.376773E+03	6.626912E-18	2.422508E-19
3.386675E+03	6.468523E-18	2.364580E-19
3.396578E+03	6.317256E-18	2.309257E-19
3.406480E+03	6.172884E-18	2.256456E-19
3.416383E+03	6.035053E-18	2.206046E-19
3.426285E+03	5.903634E-18	2.157982E-19
3.436188E+03	5.778294E-18	2.112141E-19
3.446090E+03	5.658857E-18	2.068458E-19
3.455993E+03	5.545082E-18	2.026846E-19
3.465896E+03	5.436744E-18	1.987223E-19
3.475798E+03	5.333630E-18	1.949510E-19
3.485701E+03	5.235540E-18	1.913634E-19
3.495603E+03	5.142227E-18	1.879505E-19
3.505506E+03	5.053460E-18	1.847038E-19
3.515408E+03	4.969079E-18	1.816175E-19
3.525311E+03	4.888877E-18	1.786840E-19
3.535213E+03	4.812712E-18	1.758982E-19
3.545116E+03	4.740348E-18	1.732513E-19
3.555019E+03	4.671665E-18	1.707390E-19
3.564921E+03	4.606495E-18	1.683552E-19
3.574824E+03	4.544776E-18	1.660975E-19
3.584726E+03	4.486308E-18	1.639588E-19
3.594629E+03	4.430995E-18	1.619353E-19
3.604531E+03	4.378616E-18	1.600192E-19
3.614434E+03	4.329087E-18	1.582072E-19
3.624337E+03	4.282289E-18	1.564951E-19
3.634239E+03	4.238108E-18	1.548787E-19
3.644142E+03	4.196472E-18	1.533553E-19
3.654044E+03	4.157313E-18	1.519225E-19
3.663947E+03	4.120525E-18	1.505763E-19
3.673849E+03	4.086083E-18	1.493159E-19
3.683752E+03	4.053882E-18	1.481375E-19
3.693654E+03	4.023932E-18	1.470413E-19
3.703557E+03	3.996167E-18	1.460250E-19
3.713460E+03	3.970522E-18	1.450861E-19
3.723362E+03	3.946968E-18	1.442237E-19
3.733265E+03	3.925507E-18	1.434379E-19
3.743167E+03	3.906075E-18	1.427261E-19
3.753070E+03	3.888675E-18	1.420887E-19
3.762972E+03	3.873243E-18	1.415231E-19
3.772875E+03	3.859750E-18	1.410284E-19
3.782777E+03	3.848200E-18	1.406047E-19
3.792680E+03	3.838595E-18	1.402522E-19
3.802583E+03	3.830876E-18	1.399685E-19
3.812485E+03	3.825079E-18	1.397551E-19
3.822388E+03	3.821113E-18	1.396085E-19
3.832290E+03	3.819046E-18	1.395314E-19
3.842193E+03	3.818787E-18	1.395203E-19
3.852095E+03	3.820402E-18	1.395777E-19
3.861998E+03	3.823832E-18	1.397014E-19
3.871900E+03	3.829078E-18	1.398914E-19
3.881803E+03	3.836114E-18	1.401468E-19
3.891706E+03	3.844939E-18	1.404676E-19
3.901608E+03	3.855525E-18	1.408527E-19
3.911511E+03	3.867903E-18	1.413033E-19
3.921413E+03	3.882014E-18	1.418172E-19
3.931316E+03	3.897858E-18	1.423944E-19
3.941218E+03	3.915405E-18	1.430338E-19
3.951121E+03	3.934686E-18	1.437365E-19
3.961024E+03	3.955673E-18	1.445016E-19
3.970926E+03	3.978334E-18	1.453277E-19
3.980829E+03	4.002639E-18	1.462139E-19
3.990731E+03	4.028621E-18	1.471614E-19
4.000634E+03	4.056219E-18	1.481679E-19
4.010536E+03	4.085467E-18	1.492346E-19
4.020439E+03	4.116306E-18	1.503594E-19
4.030341E+03	4.148739E-18	1.515425E-19
4.040244E+03	4.182772E-18	1.527839E-19
4.050147E+03	4.218380E-18	1.540829E-19
4.060049E+03	4.255536E-18	1.554384E-19
4.069952E+03	4.294216E-18	1.568495E-19
4.079854E+03	4.334460E-18	1.583178E-19
4.089757E+03	4.376213E-18	1.598411E-19
4.099659E+03	4.419481E-18	1.614197E-19
4.109562E+03	4.464207E-18	1.630516E-19
4.119464E+03	4.510400E-18	1.647370E-19
4.129367E+03	4.558071E-18	1.664764E-19
4.139270E+03	4.607160E-18	1.682675E-19
4.149172E+03	4.657679E-18	1.701108E-19
4.159075E+03	4.709566E-18	1.720041E-19
4.168977E+03	4.762833E-18	1.739478E-19
4.178880E+03	4.817419E-18	1.759395E-19
4.188782E+03	4.873333E-18	1.779798E-19
4.198685E+03	4.930513E-18	1.800663E-19
4.208587E+03	4.988931E-18	1.821979E-19
4.218490E+03	5.048519E-18	1.843722E-19
4.228393E+03	5.109286E-18	1.865896E-19
4.238295E+03	5.171161E-18	1.888474E-19
4.248198E+03	5.234109E-18	1.911443E-19
4.258100E+03	5.298053E-18	1.934776E-19
4.268003E+03	5.362908E-18	1.958442E-19
4.277905E+03	5.428632E-18	1.982424E-19
4.287808E+03	5.495173E-18	2.006704E-19
4.297711E+03	5.562436E-18	2.031248E-19
4.307613E+03	5.630365E-18	2.056035E-19
4.317516E+03	5.698853E-18	2.081025E-19
4.327418E+03	5.767878E-18	2.106211E-19
4.337321E+03	5.837374E-18	2.131569E-19
4.347223E+03	5.907413E-18	2.157125E-19
4.357126E+03	5.977925E-18	2.182853E-19
4.367028E+03	6.048937E-18	2.208764E-19
4.376931E+03	6.120431E-18	2.234850E-19
4.386834E+03	6.192488E-18	2.261142E-19
4.396736E+03	6.265045E-18	2.287616E-19
4.406639E+03	6.338088E-18	2.314268E-19
4.416541E+03	6.411657E-18	2.341111E-19
4.426444E+03	6.485744E-18	2.368143E-19
4.436346E+03	6.560345E-18	2.395362E-19
4.446249E+03	6.635389E-18	2.422743E-19
4.456151E+03	6.710940E-18	2.450309E-19
4.466054E+03	6.786935E-18	2.478037E-19
4.475957E+03	6.863360E-18	2.505922E-19
4.485859E+03	6.940223E-18	2.533966E-19
4.495762E+03	7.017403E-18	2.562126E-19
4.505664E+03	7.094950E-18	2.590419E-19
4.515567E+03	7.172812E-18	2.618828E-19
4.525469E+03	7.250995E-18	2.647354E-19
4.535372E+03	7.329372E-18	2.675950E-19
4.545274E+03	7.408024E-18	2.704647E-19
4.555177E+03	7.486830E-18	2.733399E-19
4.565080E+03	7.565865E-18	2.762235E-19
4.574982E+03	7.645031E-18	2.791118E-19
4.584885E+03	7.724347E-18	2.820056E-19
4.594787E+03	7.803766E-18	2.849032E-19
4.604690E+03	7.883409E-18	2.878089E-19
4.614592E+03	7.963165E-18	2.907188E-19
4.624495E+03	8.043154E-18	2.936371E-19
4.634398E+03	8.123363E-18	2.965635E-19
4.644300E+03	8.203771E-18	2.994971E-19
4.654203E+03	8.284512E-18	3.024428E-19
4.664105E+03	8.365507E-18	3.053978E-19
4.674008E+03	8.446832E-18	3.083648E-19
4.683910E+03	8.528410E-18	3.113410E-19
4.693813E+03	8.610323E-18	3.143295E-19
4.703715E+03	8.692415E-18	3.173245E-19
4.713618E+03	8.774782E-18	3.203295E-19
4.723521E+03	8.857345E-18	3.233417E-19
4.733423E+03	8.940201E-18	3.263645E-19
4.743326E+03	9.023270E-18	3.293951E-19
4.753228E+03	9.106564E-18	3.324338E-19
4.763131E+03	9.190095E-18	3.354813E-19
4.773033E+03	9.273855E-18	3.385370E-19
4.782936E+03	9.357856E-18	3.416016E-19
4.792838E+03	9.442019E-18	3.446720E-19
4.802741E+03	9.526433E-18	3.477517E-19
4.812644E+03	9.611105E-18	3.508407E-19
4.822546E+03	9.695948E-18	3.539359E-19
4.832449E+03	9.780968E-18	3.570376E-19
4.842351E+03	9.866267E-18	3.601495E-19
4.852254E+03	9.951663E-18	3.632648E-19
4.862156E+03	1.003735E-17	3.663907E-19
4.872059E+03	1.012323E-17	3.695237E-19
4.881961E+03	1.020919E-17	3.726599E-19
4.891864E+03	1.029535E-17	3.758028E-19
4.901767E+03	1.038167E-17	3.789519E-19
4.911669E+03	1.046802E-17	3.821022E-19
4.921572E+03	1.055450E-17	3.852568E-19
4.931474E+03	1.064084E-17	3.884068E-19
4.941377E+03	1.072722E-17	3.915578E-19
4.951279E+03	1.081348E-17	3.947044E-19
4.961182E+03	1.089944E-17	3.978403E-19
4.971085E+03	1.098515E-17	4.009669E-19
4.980987E+03	1.107041E-17	4.040772E-19
4.990890E+03	1.115515E-17	4.071685E-19
5.000792E+03	1.123925E-17	4.102365E-19
5.010695E+03	1.132263E-17	4.132778E-19
5.020597E+03	1.140504E-17	4.162842E-19
5.030500E+03	1.148648E-17	4.192548E-19
5.040402E+03	1.156669E-17	4.221808E-19
5.050305E+03	1.164555E-17	4.250571E-19
5.060208E+03	1.172279E-17	4.278745E-19
5.070110E+03	1.179837E-17	4.306314E-19
5.080013E+03	1.187194E-17	4.333147E-19
5.089915E+03	1.194357E-17	4.359272E-19
5.099818E+03	1.201288E-17	4.384553E-19
5.109720E+03	1.207987E-17	4.408984E-19
5.119623E+03	1.214426E-17	4.432468E-19
5.129525E+03	1.220581E-17	4.454913E-19
5.139428E+03	1.226447E-17	4.476307E-19
5.149331E+03	1.232000E-17	4.496555E-19
5.159233E+03	1.237225E-17	4.515606E-19
5.169136E+03	1.242106E-17	4.533402E-19
5.179038E+03	1.246616E-17	4.549843E-19
5.188941E+03	1.250738E-17	4.564870E-19
5.198843E+03	1.254445E-17	4.578383E-19
5.208746E+03	1.257732E-17	4.590360E-19
5.218648E+03	1.260569E-17	4.600698E-19
5.228551E+03	1.262940E-17	4.609330E-19
5.238454E+03	1.264826E-17	4.616194E-19
5.248356E+03	1.266197E-17	4.621183E-19
5.258259E+03	1.267037E-17	4.624229E-19
5.268161E+03	1.267329E-17	4.625277E-19
5.278064E+03	1.267057E-17	4.624265E-19
5.287966E+03	1.266194E-17	4.621098E-19
5.297869E+03	1.264740E-17	4.615774E-19
5.307772E+03	1.262685E-17	4.608255E-19
5.317674E+03	1.260020E-17	4.598512E-19
5.327577E+03	1.256729E-17	4.586484E-19
5.337479E+03	1.252836E-17	4.572258E-19
5.347382E+03	1.248331E-17	4.555801E-19
5.357284E+03	1.243249E-17	4.537235E-19
5.367187E+03	1.237589E-17	4.516561E-19
5.377089E+03	1.231382E-17	4.493893E-19
5.386992E+03	1.224651E-17	4.469312E-19
5.396895E+03	1.217450E-17	4.443014E-19
5.406797E+03	1.209799E-17	4.415076E-19
5.416700E+03	1.201725E-17	4.385593E-19
5.426602E+03	1.193247E-17	4.354637E-19
5.436505E+03	1.184414E-17	4.322384E-19
5.446407E+03	1.175252E-17	4.288932E-19
5.456310E+03	1.165807E-17	4.254447E-19
5.466212E+03	1.156125E-17	4.219098E-19
5.476115E+03	1.146255E-17	4.183065E-19
5.486018E+03	1.136248E-17	4.146529E-19
5.495920E+03	1.126166E-17	4.109722E-19
5.505823E+03	1.116062E-17	4.072833E-19
5.515725E+03	1.106007E-17	4.036127E-19
5.525628E+03	1.096043E-17	3.999747E-19
5.535530E+03	1.086248E-17	3.963988E-19
5.545433E+03	1.076657E-17	3.928974E-19
5.555335E+03	1.067333E-17	3.894934E-19
5.565238E+03	1.058334E-17	3.862081E-19
5.575141E+03	1.049683E-17	3.830496E-19
5.585043E+03	1.041448E-17	3.800429E-19
5.594946E+03	1.033650E-17	3.771961E-19
5.604848E+03	1.026308E-17	3.745153E-19
5.614751E+03	1.019472E-17	3.720194E-19
5.624653E+03	1.013140E-17	3.697075E-19
5.634556E+03	1.007333E-17	3.675870E-19
5.644459E+03	1.002071E-17	3.656653E-19
5.654361E+03	9.973554E-18	3.639432E-19
5.664264E+03	9.931890E-18	3.624214E-19
5.674166E+03	9.895700E-18	3.610995E-19
5.684069E+03	9.865057E-18	3.599799E-19
5.693971E+03	9.840026E-18	3.590652E-19
5.703874E+03	9.820368E-18	3.583465E-19
5.713776E+03	9.806356E-18	3.578338E-19
5.723679E+03	9.797765E-18	3.575189E-19
5.733582E+03	9.794811E-18	3.574098E-19
5.743484E+03	9.797388E-18	3.575025E-19
5.753387E+03	9.805651E-18	3.578026E-19
5.763289E+03	9.819617E-18	3.583108E-19
5.773192E+03	9.839463E-18	3.590336E-19
5.783094E+03	9.865122E-18	3.599686E-19
5.792997E+03	9.896660E-18	3.611180E-19
5.802899E+03	9.934241E-18	3.624879E-19
5.812802E+03	9.978028E-18	3.640842E-19
5.822705E+03	1.002787E-17	3.659015E-19
5.832607E+03	1.008402E-17	3.679491E-19
5.842510E+03	1.014645E-17	3.702255E-19
5.852412E+03	1.021530E-17	3.727362E-19
5.862315E+03	1.029061E-17	3.754828E-19
5.872217E+03	1.037230E-17	3.784620E-19
5.882120E+03	1.046049E-17	3.816786E-19
5.892022E+03	1.055520E-17	3.851327E-19
5.901925E+03	1.065629E-17	3.888196E-19
5.911828E+03	1.076395E-17	3.927466E-19
5.921730E+03	1.087791E-17	3.969030E-19
5.931633E+03	1.099820E-17	4.012907E-19
5.941535E+03	1.112473E-17	4.059058E-19
5.951438E+03	1.125726E-17	4.107398E-19
5.961340E+03	1.139577E-17	4.157918E-19
5.971243E+03	1.153981E-17	4.210458E-19
5.981146E+03	1.168946E-17	4.265043E-19
5.991048E+03	1.184420E-17	4.321486E-19
6.000951E+03	1.200391E-17	4.379743E-19
6.010853E+03	1.216815E-17	4.439650E-19
6.020756E+03	1.233658E-17	4.501087E-19
6.030658E+03	1.250868E-17	4.563862E-19
6.040561E+03	1.268388E-17	4.627766E-19
6.050463E+03	1.286189E-17	4.692697E-19
6.060366E+03	1.304175E-17	4.758302E-19
6.070269E+03	1.322309E-17	4.824448E-19
6.080171E+03	1.340504E-17	4.890813E-19
6.090074E+03	1.358701E-17	4.957188E-19
6.099976E+03	1.376775E-17	5.023110E-19
6.109879E+03	1.394680E-17	5.088420E-19
6.119781E+03	1.412307E-17	5.152711E-19
6.129684E+03	1.429583E-17	5.215723E-19
6.139586E+03	1.446423E-17	5.277142E-19
6.149489E+03	1.462821E-17	5.336950E-19
6.159392E+03	1.478800E-17	5.395230E-19
6.169294E+03	1.494396E-17	5.452108E-19
6.179197E+03	1.509649E-17	5.507741E-19
6.189099E+03	1.524553E-17	5.562095E-19
6.199002E+03	1.539201E-17	5.615515E-19
6.208904E+03	1.553572E-17	5.667927E-19
6.218807E+03	1.567730E-17	5.719559E-19
6.228709E+03	1.581721E-17	5.770585E-19
6.238612E+03	1.595531E-17	5.820946E-19
6.248515E+03	1.609208E-17	5.870825E-19
6.258417E+03	1.622784E-17	5.920332E-19
6.268320E+03	1.636288E-17	5.969578E-19
6.278222E+03	1.649708E-17	6.018518E-19
6.288125E+03	1.663076E-17	6.067271E-19
6.298027E+03	1.676404E-17	6.115872E-19
6.307930E+03	1.689702E-17	6.164366E-19
6.317833E+03	1.702956E-17	6.212700E-19
6.327735E+03	1.716154E-17	6.260829E-19
6.337638E+03	1.729281E-17	6.308699E-19
6.347540E+03	1.742345E-17	6.356337E-19
6.357443E+03	1.755330E-17	6.403690E-19
6.367345E+03	1.768168E-17	6.450502E-19
6.377248E+03	1.780941E-17	6.497082E-19
6.387150E+03	1.793657E-17	6.543451E-19
6.397053E+03	1.806352E-17	6.589744E-19
6.406956E+03	1.819087E-17	6.636184E-19
6.416858E+03	1.831848E-17	6.682714E-19
6.426761E+03	1.844697E-17	6.729571E-19
6.436663E+03	1.857648E-17	6.776795E-19
6.446566E+03	1.870737E-17	6.824526E-19
6.456468E+03	1.883920E-17	6.872597E-19
6.466371E+03	1.897292E-17	6.921361E-19
6.476273E+03	1.910808E-17	6.970645E-19
6.486176E+03	1.924503E-17	7.020587E-19
6.496079E+03	1.938391E-17	7.071228E-19
6.505981E+03	1.952447E-17	7.122487E-19
6.515884E+03	1.966714E-17	7.174510E-19
6.525786E+03	1.981199E-17	7.227333E-19
6.535689E+03	1.995882E-17	7.280875E-19
6.545591E+03	2.010768E-17	7.335161E-19
6.555494E+03	2.025867E-17	7.390223E-19
6.565396E+03	2.041221E-17	7.446211E-19
6.575299E+03	2.056769E-17	7.502909E-19
6.585202E+03	2.072551E-17	7.560462E-19
6.595104E+03	2.088573E-17	7.618892E-19
6.605007E+03	2.104806E-17	7.678088E-19
6.614909E+03	2.121288E-17	7.738195E-19
6.624812E+03	2.137990E-17	7.799100E-19
6.634714E+03	2.154947E-17	7.860940E-19
6.644617E+03	2.172092E-17	7.923463E-19
6.654520E+03	2.189462E-17	7.986809E-19
6.664422E+03	2.207100E-17	8.051129E-19
6.674325E+03	2.224929E-17	8.116151E-19
6.684227E+03	2.242993E-17	8.182026E-19
6.694130E+03	2.261256E-17	8.248627E-19
6.704032E+03	2.279759E-17	8.316105E-19
6.713935E+03	2.298466E-17	8.384328E-19
6.723837E+03	2.317381E-17	8.453309E-19
6.733740E+03	2.336550E-17	8.523213E-19
6.743643E+03	2.355892E-17	8.593753E-19
6.753545E+03	2.375496E-17	8.665247E-19
6.763448E+03	2.395280E-17	8.737398E-19
6.773350E+03	2.415334E-17	8.810533E-19
6.783253E+03	2.435571E-17	8.884337E-19
6.793155E+03	2.455991E-17	8.958808E-19
6.803058E+03	2.476638E-17	9.034106E-19
6.812960E+03	2.497510E-17	9.110226E-19
6.822863E+03	2.518510E-17	9.186816E-19
6.832766E+03	2.539727E-17	9.264192E-19
6.842668E+03	2.561105E-17	9.342161E-19
6.852571E+03	2.582686E-17	9.420867E-19
6.862473E+03	2.604362E-17	9.499922E-19
6.872376E+03	2.626171E-17	9.579462E-19
6.882278E+03	2.648101E-17	9.659442E-19
6.892181E+03	2.670090E-17	9.739637E-19
6.902083E+03	2.692173E-17	9.820177E-19
6.911986E+03	2.714339E-17	9.901020E-19
6.921889E+03	2.736522E-17	9.981924E-19
6.931791E+03	2.758706E-17	1.006284E-18
6.941694E+03	2.780880E-17	1.014371E-18
6.951596E+03	2.803085E-17	1.022470E-18
6.961499E+03	2.825199E-17	1.030535E-18
6.971401E+03	2.847322E-17	1.038604E-18
6.981304E+03	2.869332E-17	1.046631E-18
6.991207E+03	2.891275E-17	1.054635E-18
7.001109E+03	2.913086E-17	1.062590E-18
7.011012E+03	2.934815E-17	1.070515E-18
7.020914E+03	2.956459E-17	1.078410E-18
7.030817E+03	2.977951E-17	1.086249E-18
7.040719E+03	2.999228E-17	1.094010E-18
7.050622E+03	3.020409E-17	1.101735E-18
7.060524E+03	3.041431E-17	1.109403E-18
7.070427E+03	3.062293E-17	1.117013E-18
7.080330E+03	3.082997E-17	1.124565E-18
7.090232E+03	3.103480E-17	1.132036E-18
7.100135E+03	3.123809E-17	1.139452E-18
7.110037E+03	3.143922E-17	1.146788E-18
7.119940E+03	3.163821E-17	1.154047E-18
7.129842E+03	3.183578E-17	1.161254E-18
7.139745E+03	3.203130E-17	1.168386E-18
7.149647E+03	3.222551E-17	1.175471E-18
7.159550E+03	3.241709E-17	1.182459E-18
7.169453E+03	3.260674E-17	1.189378E-18
7.179355E+03	3.279448E-17	1.196227E-18
7.189258E+03	3.298030E-17	1.203006E-18
7.199160E+03	3.316417E-17	1.209714E-18
7.209063E+03	3.334604E-17	1.216349E-18
7.218965E+03	3.352511E-17	1.222883E-18
7.228868E+03	3.370200E-17	1.229336E-18
7.238770E+03	3.387657E-17	1.235706E-18
7.248673E+03	3.404871E-17	1.241987E-18
7.258576E+03	3.421754E-17	1.248147E-18
7.268478E+03	3.438363E-17	1.254207E-18
7.278381E+03	3.454762E-17	1.260192E-18
7.288283E+03	3.470786E-17	1.266039E-18
7.298186E+03	3.486499E-17	1.271773E-18
7.308088E+03	3.501888E-17	1.277389E-18
7.317991E+03	3.517023E-17	1.282913E-18
7.327894E+03	3.531820E-17	1.288313E-18
7.337796E+03	3.546353E-17	1.293617E-18
7.347699E+03	3.560701E-17	1.298854E-18
7.357601E+03	3.574789E-17	1.303997E-18
7.367504E+03	3.588786E-17	1.309106E-18
7.377406E+03	3.602542E-17	1.314127E-18
7.387309E+03	3.616151E-17	1.319096E-18
7.397211E+03	3.629549E-17	1.323987E-18
7.407114E+03	3.642837E-17	1.328838E-18
7.417017E+03	3.655868E-17	1.333596E-18
7.426919E+03	3.668745E-17	1.338298E-18
7.436822E+03	3.681486E-17	1.342951E-18
7.446724E+03	3.694018E-17	1.347527E-18
7.456627E+03	3.706523E-17	1.352094E-18
7.466529E+03	3.718836E-17	1.356591E-18
7.476432E+03	3.731049E-17	1.361052E-18
7.486334E+03	3.743080E-17	1.365446E-18
7.496237E+03	3.755024E-17	1.369809E-18
7.506140E+03	3.766798E-17	1.374111E-18
7.516042E+03	3.778498E-17	1.378385E-18
7.525945E+03	3.790040E-17	1.382603E-18
7.535847E+03	3.801431E-17	1.386765E-18
7.545750E+03	3.812763E-17	1.390906E-18
7.555652E+03	3.823948E-17	1.394993E-18
7.565555E+03	3.834984E-17	1.399027E-18
7.575457E+03	3.845960E-17	1.403038E-18
7.585360E+03	3.856779E-17	1.406993E-18
7.595263E+03	3.867526E-17	1.410921E-18
7.605165E+03	3.878001E-17	1.414751E-18
7.615068E+03	3.888384E-17	1.418547E-18
7.624970E+03	3.898660E-17	1.422305E-18
7.634873E+03	3.908720E-17	1.425983E-18
7.644775E+03	3.918647E-17	1.429614E-18
7.654678E+03	3.928327E-17	1.433154E-18
7.664581E+03	3.937743E-17	1.436599E-18
7.674483E+03	3.946977E-17	1.439977E-18
7.684386E+03	3.956011E-17	1.443283E-18
