#wls	flux	fluxerr
1.584409E+03	8.975381E-17	3.637068E-17
1.624020E+03	9.340735E-17	3.783631E-17
1.663630E+03	9.681833E-17	3.920179E-17
1.703240E+03	9.994654E-17	4.045087E-17
1.742850E+03	1.027188E-16	4.155401E-17
1.782461E+03	1.050513E-16	4.247736E-17
1.822071E+03	1.068111E-16	4.316744E-17
1.861681E+03	1.078654E-16	4.357087E-17
1.901291E+03	1.080652E-16	4.362784E-17
1.940902E+03	1.072849E-16	4.328828E-17
1.980512E+03	1.054702E-16	4.253088E-17
2.020122E+03	1.027688E-16	4.141605E-17
2.059732E+03	9.960451E-17	4.011507E-17
2.099342E+03	9.665967E-17	3.890308E-17
2.138953E+03	9.467908E-17	3.807950E-17
2.178563E+03	9.408261E-17	3.781233E-17
2.218173E+03	9.474166E-17	3.804870E-17
2.257783E+03	9.610030E-17	3.856437E-17
2.297394E+03	9.747182E-17	3.908324E-17
2.337004E+03	9.834016E-17	3.939851E-17
2.376614E+03	9.840080E-17	3.938872E-17
2.416224E+03	9.753771E-17	3.900829E-17
2.455835E+03	9.577205E-17	3.826669E-17
2.495445E+03	9.318163E-17	3.719602E-17
2.535055E+03	8.986952E-17	3.583841E-17
2.574665E+03	8.596169E-17	3.424501E-17
2.614276E+03	8.156795E-17	3.246038E-17
2.653886E+03	7.680278E-17	3.053080E-17
2.693496E+03	7.176610E-17	2.849660E-17
2.733106E+03	6.656192E-17	2.639958E-17
2.772716E+03	6.128023E-17	2.427583E-17
2.812327E+03	5.601031E-17	2.216097E-17
2.851937E+03	5.083516E-17	2.008800E-17
2.891547E+03	4.583032E-17	1.808680E-17
2.931157E+03	4.106190E-17	1.618335E-17
2.970768E+03	3.658420E-17	1.439884E-17
2.980670E+03	3.551492E-17	1.397313E-17
2.990573E+03	3.446723E-17	1.355616E-17
3.000475E+03	3.344064E-17	1.314776E-17
3.010378E+03	3.243685E-17	1.274857E-17
3.020280E+03	3.145528E-17	1.235837E-17
3.030183E+03	3.049608E-17	1.197720E-17
3.040086E+03	2.955972E-17	1.160525E-17
3.049988E+03	2.864863E-17	1.124345E-17
3.059891E+03	2.776255E-17	1.089170E-17
3.069793E+03	2.690201E-17	1.055020E-17
3.079696E+03	2.606585E-17	1.021849E-17
3.089598E+03	2.525408E-17	9.896556E-18
3.099501E+03	2.446620E-17	9.584197E-18
3.109403E+03	2.370175E-17	9.281224E-18
3.119306E+03	2.296030E-17	8.987464E-18
3.129209E+03	2.224190E-17	8.702921E-18
3.139111E+03	2.154572E-17	8.427267E-18
3.149014E+03	2.087178E-17	8.160505E-18
3.158916E+03	2.021972E-17	7.902477E-18
3.168819E+03	1.958914E-17	7.653025E-18
3.178721E+03	1.898000E-17	7.412124E-18
3.188624E+03	1.839126E-17	7.179355E-18
3.198526E+03	1.782348E-17	6.954938E-18
3.208429E+03	1.727535E-17	6.738345E-18
3.218332E+03	1.674735E-17	6.529758E-18
3.228234E+03	1.623850E-17	6.328785E-18
3.238137E+03	1.574864E-17	6.135364E-18
3.248039E+03	1.527737E-17	5.949319E-18
3.257942E+03	1.482400E-17	5.770387E-18
3.267844E+03	1.438858E-17	5.598568E-18
3.277747E+03	1.397022E-17	5.433513E-18
3.287650E+03	1.356849E-17	5.275052E-18
3.297552E+03	1.318338E-17	5.123166E-18
3.307455E+03	1.281403E-17	4.977523E-18
3.317357E+03	1.246004E-17	4.837950E-18
3.327260E+03	1.212097E-17	4.704278E-18
3.337162E+03	1.179657E-17	4.576402E-18
3.347065E+03	1.148609E-17	4.454021E-18
3.356967E+03	1.118913E-17	4.336977E-18
3.366870E+03	1.090544E-17	4.225166E-18
3.376773E+03	1.063448E-17	4.118369E-18
3.386675E+03	1.037584E-17	4.016431E-18
3.396578E+03	1.012889E-17	3.919095E-18
3.406480E+03	9.893419E-18	3.826273E-18
3.416383E+03	9.669048E-18	3.737818E-18
3.426285E+03	9.455207E-18	3.653502E-18
3.436188E+03	9.251576E-18	3.573197E-18
3.446090E+03	9.057732E-18	3.496735E-18
3.455993E+03	8.873488E-18	3.424038E-18
3.465896E+03	8.698248E-18	3.354873E-18
3.475798E+03	8.531845E-18	3.289171E-18
3.485701E+03	8.373831E-18	3.226754E-18
3.495603E+03	8.223875E-18	3.167491E-18
3.505506E+03	8.081663E-18	3.111257E-18
3.515408E+03	7.946816E-18	3.057903E-18
3.525311E+03	7.819142E-18	3.007351E-18
3.535213E+03	7.698205E-18	2.959430E-18
3.545116E+03	7.583766E-18	2.914044E-18
3.555019E+03	7.475677E-18	2.871133E-18
3.564921E+03	7.373634E-18	2.830579E-18
3.574824E+03	7.277427E-18	2.792296E-18
3.584726E+03	7.186791E-18	2.756180E-18
3.594629E+03	7.101462E-18	2.722128E-18
3.604531E+03	7.021276E-18	2.690073E-18
3.614434E+03	6.945928E-18	2.659896E-18
3.624337E+03	6.875335E-18	2.631563E-18
3.634239E+03	6.809227E-18	2.604968E-18
3.644142E+03	6.747465E-18	2.580055E-18
3.654044E+03	6.689983E-18	2.556797E-18
3.663947E+03	6.636530E-18	2.535096E-18
3.673849E+03	6.586995E-18	2.514907E-18
3.683752E+03	6.541377E-18	2.496228E-18
3.693654E+03	6.499498E-18	2.478988E-18
3.703557E+03	6.461254E-18	2.463147E-18
3.713460E+03	6.426649E-18	2.448703E-18
3.723362E+03	6.395514E-18	2.435590E-18
3.733265E+03	6.367798E-18	2.423787E-18
3.743167E+03	6.343504E-18	2.413293E-18
3.753070E+03	6.322525E-18	2.404065E-18
3.762972E+03	6.304809E-18	2.396082E-18
3.772875E+03	6.290305E-18	2.389323E-18
3.782777E+03	6.278964E-18	2.383767E-18
3.792680E+03	6.270789E-18	2.379413E-18
3.802583E+03	6.265670E-18	2.376218E-18
3.812485E+03	6.263618E-18	2.374185E-18
3.822388E+03	6.264629E-18	2.373310E-18
3.832290E+03	6.268604E-18	2.373553E-18
3.842193E+03	6.275493E-18	2.374894E-18
3.852095E+03	6.285353E-18	2.377354E-18
3.861998E+03	6.298129E-18	2.380909E-18
3.871900E+03	6.313722E-18	2.385520E-18
3.881803E+03	6.332182E-18	2.391205E-18
3.891706E+03	6.353510E-18	2.397961E-18
3.901608E+03	6.377548E-18	2.405729E-18
3.911511E+03	6.404349E-18	2.414526E-18
3.921413E+03	6.433896E-18	2.424344E-18
3.931316E+03	6.466141E-18	2.435163E-18
3.941218E+03	6.500971E-18	2.446940E-18
3.951121E+03	6.538480E-18	2.459708E-18
3.961024E+03	6.578547E-18	2.473419E-18
3.970926E+03	6.621119E-18	2.488053E-18
3.980829E+03	6.666221E-18	2.503618E-18
3.990731E+03	6.713745E-18	2.520071E-18
4.000634E+03	6.763721E-18	2.537422E-18
4.010536E+03	6.815974E-18	2.555603E-18
4.020439E+03	6.870601E-18	2.574651E-18
4.030341E+03	6.927474E-18	2.594515E-18
4.040244E+03	6.986526E-18	2.615169E-18
4.050147E+03	7.047794E-18	2.636626E-18
4.060049E+03	7.111098E-18	2.658817E-18
4.069952E+03	7.176540E-18	2.681778E-18
4.079854E+03	7.243940E-18	2.705442E-18
4.089757E+03	7.313284E-18	2.729802E-18
4.099659E+03	7.384562E-18	2.754853E-18
4.109562E+03	7.457651E-18	2.780548E-18
4.119464E+03	7.532549E-18	2.806885E-18
4.129367E+03	7.609186E-18	2.833838E-18
4.139270E+03	7.687443E-18	2.861360E-18
4.149172E+03	7.767377E-18	2.889472E-18
4.159075E+03	7.848802E-18	2.918104E-18
4.168977E+03	7.931780E-18	2.947278E-18
4.178880E+03	8.016125E-18	2.976924E-18
4.188782E+03	8.101838E-18	3.007042E-18
4.198685E+03	8.188856E-18	3.037607E-18
4.208587E+03	8.276984E-18	3.068548E-18
4.218490E+03	8.366293E-18	3.099888E-18
4.228393E+03	8.456654E-18	3.131581E-18
4.238295E+03	8.547934E-18	3.163576E-18
4.248198E+03	8.639999E-18	3.195822E-18
4.258100E+03	8.732852E-18	3.228322E-18
4.268003E+03	8.826436E-18	3.261054E-18
4.277905E+03	8.920463E-18	3.293910E-18
4.287808E+03	9.015023E-18	3.326925E-18
4.297711E+03	9.109824E-18	3.359989E-18
4.307613E+03	9.204949E-18	3.393135E-18
4.317516E+03	9.300188E-18	3.426284E-18
4.327418E+03	9.395556E-18	3.459442E-18
4.337321E+03	9.491058E-18	3.492611E-18
4.347223E+03	9.586723E-18	3.525802E-18
4.357126E+03	9.682556E-18	3.559017E-18
4.367028E+03	9.778655E-18	3.592292E-18
4.376931E+03	9.875109E-18	3.625659E-18
4.386834E+03	9.971945E-18	3.659129E-18
4.396736E+03	1.006927E-17	3.692741E-18
4.406639E+03	1.016702E-17	3.726473E-18
4.416541E+03	1.026541E-17	3.760400E-18
4.426444E+03	1.036440E-17	3.794508E-18
4.436346E+03	1.046402E-17	3.828810E-18
4.446249E+03	1.056430E-17	3.863319E-18
4.456151E+03	1.066532E-17	3.898057E-18
4.466054E+03	1.076710E-17	3.933040E-18
4.475957E+03	1.086972E-17	3.968287E-18
4.485859E+03	1.097301E-17	4.003743E-18
4.495762E+03	1.107724E-17	4.039501E-18
4.505664E+03	1.118225E-17	4.075508E-18
4.515567E+03	1.128812E-17	4.111784E-18
4.525469E+03	1.139478E-17	4.148312E-18
4.535372E+03	1.150241E-17	4.185150E-18
4.545274E+03	1.161095E-17	4.222280E-18
4.555177E+03	1.172027E-17	4.259651E-18
4.565080E+03	1.183063E-17	4.297358E-18
4.574982E+03	1.194189E-17	4.335350E-18
4.584885E+03	1.205400E-17	4.373605E-18
4.594787E+03	1.216713E-17	4.412189E-18
4.604690E+03	1.228135E-17	4.451127E-18
4.614592E+03	1.239641E-17	4.490321E-18
4.624495E+03	1.251261E-17	4.529883E-18
4.634398E+03	1.262991E-17	4.569799E-18
4.644300E+03	1.274828E-17	4.610058E-18
4.654203E+03	1.286783E-17	4.650692E-18
4.664105E+03	1.298854E-17	4.691700E-18
4.674008E+03	1.311051E-17	4.733118E-18
4.683910E+03	1.323352E-17	4.774857E-18
4.693813E+03	1.335767E-17	4.816963E-18
4.703715E+03	1.348311E-17	4.859482E-18
4.713618E+03	1.360948E-17	4.902285E-18
4.723521E+03	1.373705E-17	4.945467E-18
4.733423E+03	1.386570E-17	4.988989E-18
4.743326E+03	1.399532E-17	5.032806E-18
4.753228E+03	1.412620E-17	5.077023E-18
4.763131E+03	1.425794E-17	5.121496E-18
4.773033E+03	1.439097E-17	5.166376E-18
4.782936E+03	1.452489E-17	5.211521E-18
4.792838E+03	1.465997E-17	5.257026E-18
4.802741E+03	1.479595E-17	5.302796E-18
4.812644E+03	1.493310E-17	5.348930E-18
4.822546E+03	1.507114E-17	5.395323E-18
4.832449E+03	1.521022E-17	5.442027E-18
4.842351E+03	1.535030E-17	5.489033E-18
4.852254E+03	1.549125E-17	5.536288E-18
4.862156E+03	1.563305E-17	5.583785E-18
4.872059E+03	1.577567E-17	5.631517E-18
4.881961E+03	1.591926E-17	5.679531E-18
4.891864E+03	1.606350E-17	5.727710E-18
4.901767E+03	1.620864E-17	5.776152E-18
4.911669E+03	1.635436E-17	5.824735E-18
4.921572E+03	1.650078E-17	5.873500E-18
4.931474E+03	1.664768E-17	5.922372E-18
4.941377E+03	1.679501E-17	5.971328E-18
4.951279E+03	1.694269E-17	6.020346E-18
4.961182E+03	1.709081E-17	6.069451E-18
4.971085E+03	1.723894E-17	6.118491E-18
4.980987E+03	1.738714E-17	6.167487E-18
4.990890E+03	1.753509E-17	6.216330E-18
5.000792E+03	1.768283E-17	6.265027E-18
5.010695E+03	1.783003E-17	6.313462E-18
5.020597E+03	1.797631E-17	6.361506E-18
5.030500E+03	1.812166E-17	6.409148E-18
5.040402E+03	1.826586E-17	6.456315E-18
5.050305E+03	1.840848E-17	6.502857E-18
5.060208E+03	1.854909E-17	6.548621E-18
5.070110E+03	1.868779E-17	6.593639E-18
5.080013E+03	1.882393E-17	6.637687E-18
5.089915E+03	1.895719E-17	6.680653E-18
5.099818E+03	1.908727E-17	6.722433E-18
5.109720E+03	1.921384E-17	6.762913E-18
5.119623E+03	1.933638E-17	6.801910E-18
5.129525E+03	1.945474E-17	6.839373E-18
5.139428E+03	1.956818E-17	6.875048E-18
5.149331E+03	1.967654E-17	6.908878E-18
5.159233E+03	1.977906E-17	6.940600E-18
5.169136E+03	1.987576E-17	6.970224E-18
5.179038E+03	1.996586E-17	6.997482E-18
5.188941E+03	2.004917E-17	7.022313E-18
5.198843E+03	2.012490E-17	7.044442E-18
5.208746E+03	2.019286E-17	7.063806E-18
5.218648E+03	2.025265E-17	7.080270E-18
5.228551E+03	2.030347E-17	7.093563E-18
5.238454E+03	2.034494E-17	7.103554E-18
5.248356E+03	2.037688E-17	7.110191E-18
5.258259E+03	2.039874E-17	7.113284E-18
5.268161E+03	2.041000E-17	7.112660E-18
5.278064E+03	2.041036E-17	7.108222E-18
5.287966E+03	2.039958E-17	7.099896E-18
5.297869E+03	2.037748E-17	7.087619E-18
5.307772E+03	2.034371E-17	7.071288E-18
5.317674E+03	2.029845E-17	7.050961E-18
5.327577E+03	2.024150E-17	7.026587E-18
5.337479E+03	2.017319E-17	6.998284E-18
5.347382E+03	2.009355E-17	6.966069E-18
5.357284E+03	2.000328E-17	6.930194E-18
5.367187E+03	1.990302E-17	6.890889E-18
5.377089E+03	1.979309E-17	6.848273E-18
5.386992E+03	1.967474E-17	6.802779E-18
5.396895E+03	1.954868E-17	6.754665E-18
5.406797E+03	1.941500E-17	6.703962E-18
5.416700E+03	1.927518E-17	6.651192E-18
5.426602E+03	1.912986E-17	6.596577E-18
5.436505E+03	1.897973E-17	6.540357E-18
5.446407E+03	1.882573E-17	6.482865E-18
5.456310E+03	1.866866E-17	6.424374E-18
5.466212E+03	1.850936E-17	6.365176E-18
5.476115E+03	1.834904E-17	6.305695E-18
5.486018E+03	1.818858E-17	6.246226E-18
5.495920E+03	1.802939E-17	6.187254E-18
5.505823E+03	1.787265E-17	6.129191E-18
5.515725E+03	1.771937E-17	6.072373E-18
5.525628E+03	1.757083E-17	6.017239E-18
5.535530E+03	1.742810E-17	5.964151E-18
5.545433E+03	1.729215E-17	5.913439E-18
5.555335E+03	1.716405E-17	5.865464E-18
5.565238E+03	1.704463E-17	5.820499E-18
5.575141E+03	1.693457E-17	5.778777E-18
5.585043E+03	1.683466E-17	5.740554E-18
5.594946E+03	1.674540E-17	5.705996E-18
5.604848E+03	1.666733E-17	5.675281E-18
5.614751E+03	1.660074E-17	5.648497E-18
5.624653E+03	1.654581E-17	5.625698E-18
5.634556E+03	1.650280E-17	5.606963E-18
5.644459E+03	1.647172E-17	5.592285E-18
5.654361E+03	1.645249E-17	5.581632E-18
5.664264E+03	1.644516E-17	5.575010E-18
5.674166E+03	1.644957E-17	5.572353E-18
5.684069E+03	1.646566E-17	5.573637E-18
5.693971E+03	1.649306E-17	5.578723E-18
5.703874E+03	1.653188E-17	5.587642E-18
5.713776E+03	1.658172E-17	5.600252E-18
5.723679E+03	1.664239E-17	5.616475E-18
5.733582E+03	1.671405E-17	5.636362E-18
5.743484E+03	1.679619E-17	5.659728E-18
5.753387E+03	1.688905E-17	5.686646E-18
5.763289E+03	1.699253E-17	5.717078E-18
5.773192E+03	1.710656E-17	5.750989E-18
5.783094E+03	1.723091E-17	5.788295E-18
5.792997E+03	1.736593E-17	5.829101E-18
5.802899E+03	1.751142E-17	5.873336E-18
5.812802E+03	1.766759E-17	5.921056E-18
5.822705E+03	1.783442E-17	5.972254E-18
5.832607E+03	1.801174E-17	6.026859E-18
5.842510E+03	1.819976E-17	6.084928E-18
5.852412E+03	1.839865E-17	6.146519E-18
5.862315E+03	1.860801E-17	6.211484E-18
5.872217E+03	1.882801E-17	6.279870E-18
5.882120E+03	1.905859E-17	6.351650E-18
5.892022E+03	1.929990E-17	6.426865E-18
5.901925E+03	1.955141E-17	6.505328E-18
5.911828E+03	1.981343E-17	6.587136E-18
5.921730E+03	2.008537E-17	6.672081E-18
5.931633E+03	2.036726E-17	6.760165E-18
5.941535E+03	2.065889E-17	6.851311E-18
5.951438E+03	2.095977E-17	6.945349E-18
5.961340E+03	2.126986E-17	7.042256E-18
5.971243E+03	2.158835E-17	7.141755E-18
5.981146E+03	2.191537E-17	7.243885E-18
5.991048E+03	2.224978E-17	7.348258E-18
6.000951E+03	2.259163E-17	7.454887E-18
6.010853E+03	2.293993E-17	7.563439E-18
6.020756E+03	2.329443E-17	7.673823E-18
6.030658E+03	2.365402E-17	7.785672E-18
6.040561E+03	2.401809E-17	7.898777E-18
6.050463E+03	2.438572E-17	8.012832E-18
6.060366E+03	2.475622E-17	8.127610E-18
6.070269E+03	2.512828E-17	8.242676E-18
6.080171E+03	2.550084E-17	8.357682E-18
6.090074E+03	2.587312E-17	8.472372E-18
6.099976E+03	2.624402E-17	8.586387E-18
6.109879E+03	2.661178E-17	8.699149E-18
6.119781E+03	2.697556E-17	8.810391E-18
6.129684E+03	2.733424E-17	8.919748E-18
6.139586E+03	2.768704E-17	9.026971E-18
6.149489E+03	2.803358E-17	9.131940E-18
6.159392E+03	2.837355E-17	9.234559E-18
6.169294E+03	2.870708E-17	9.334879E-18
6.179197E+03	2.903514E-17	9.433221E-18
6.189099E+03	2.935773E-17	9.529586E-18
6.199002E+03	2.967452E-17	9.623875E-18
6.208904E+03	2.998680E-17	9.716511E-18
6.218807E+03	3.029480E-17	9.807568E-18
6.228709E+03	3.059799E-17	9.896885E-18
6.238612E+03	3.089791E-17	9.984964E-18
6.248515E+03	3.119373E-17	1.007153E-17
6.258417E+03	3.148671E-17	1.015701E-17
6.268320E+03	3.177646E-17	1.024127E-17
6.278222E+03	3.206350E-17	1.032447E-17
6.288125E+03	3.234789E-17	1.040665E-17
6.298027E+03	3.262975E-17	1.048784E-17
6.307930E+03	3.290918E-17	1.056808E-17
6.317833E+03	3.318583E-17	1.064725E-17
6.327735E+03	3.345933E-17	1.072525E-17
6.337638E+03	3.373024E-17	1.080224E-17
6.347540E+03	3.399770E-17	1.087797E-17
6.357443E+03	3.426226E-17	1.095260E-17
6.367345E+03	3.452354E-17	1.102602E-17
6.377248E+03	3.478161E-17	1.109826E-17
6.387150E+03	3.503705E-17	1.116950E-17
6.397053E+03	3.529103E-17	1.124011E-17
6.406956E+03	3.554371E-17	1.131015E-17
6.416858E+03	3.579576E-17	1.137984E-17
6.426761E+03	3.604793E-17	1.144941E-17
6.436663E+03	3.629988E-17	1.151875E-17
6.446566E+03	3.655290E-17	1.158827E-17
6.456468E+03	3.680723E-17	1.165805E-17
6.466371E+03	3.706252E-17	1.172799E-17
6.476273E+03	3.732014E-17	1.179850E-17
6.486176E+03	3.757976E-17	1.186948E-17
6.496079E+03	3.784098E-17	1.194081E-17
6.505981E+03	3.810520E-17	1.201292E-17
6.515884E+03	3.837203E-17	1.208570E-17
6.525786E+03	3.864167E-17	1.215920E-17
6.535689E+03	3.891493E-17	1.223367E-17
6.545591E+03	3.919071E-17	1.230877E-17
6.555494E+03	3.946916E-17	1.238454E-17
6.565396E+03	3.975169E-17	1.246142E-17
6.575299E+03	4.003713E-17	1.253904E-17
6.585202E+03	4.032554E-17	1.261743E-17
6.595104E+03	4.061767E-17	1.269681E-17
6.605007E+03	4.091289E-17	1.277698E-17
6.614909E+03	4.121123E-17	1.285794E-17
6.624812E+03	4.151338E-17	1.293993E-17
6.634714E+03	4.181792E-17	1.302248E-17
6.644617E+03	4.212479E-17	1.310558E-17
6.654520E+03	4.243536E-17	1.318966E-17
6.664422E+03	4.274810E-17	1.327423E-17
6.674325E+03	4.306290E-17	1.335926E-17
6.684227E+03	4.338036E-17	1.344494E-17
6.694130E+03	4.369961E-17	1.353099E-17
6.704032E+03	4.402046E-17	1.361736E-17
6.713935E+03	4.434275E-17	1.370400E-17
6.723837E+03	4.466627E-17	1.379085E-17
6.733740E+03	4.499002E-17	1.387759E-17
6.743643E+03	4.531457E-17	1.396440E-17
6.753545E+03	4.563971E-17	1.405123E-17
6.763448E+03	4.596439E-17	1.413773E-17
6.773350E+03	4.628918E-17	1.422411E-17
6.783253E+03	4.661302E-17	1.431002E-17
6.793155E+03	4.693564E-17	1.439539E-17
6.803058E+03	4.725678E-17	1.448016E-17
6.812960E+03	4.757532E-17	1.456396E-17
6.822863E+03	4.789276E-17	1.464728E-17
6.832766E+03	4.820800E-17	1.472976E-17
6.842668E+03	4.851988E-17	1.481108E-17
6.852571E+03	4.882907E-17	1.489143E-17
6.862473E+03	4.913442E-17	1.497047E-17
6.872376E+03	4.943569E-17	1.504814E-17
6.882278E+03	4.973361E-17	1.512465E-17
6.892181E+03	5.002702E-17	1.519967E-17
6.902083E+03	5.031572E-17	1.527314E-17
6.911986E+03	5.059951E-17	1.534500E-17
6.921889E+03	5.087822E-17	1.541522E-17
6.931791E+03	5.115071E-17	1.548346E-17
6.941694E+03	5.141883E-17	1.555027E-17
6.951596E+03	5.168046E-17	1.561503E-17
6.961499E+03	5.193551E-17	1.567773E-17
6.971401E+03	5.218491E-17	1.573864E-17
6.981304E+03	5.242763E-17	1.579747E-17
6.991207E+03	5.266364E-17	1.585422E-17
7.001109E+03	5.289298E-17	1.590891E-17
7.011012E+03	5.311572E-17	1.596156E-17
7.020914E+03	5.333302E-17	1.601254E-17
7.030817E+03	5.354290E-17	1.606126E-17
7.040719E+03	5.374553E-17	1.610779E-17
7.050622E+03	5.394222E-17	1.615251E-17
7.060524E+03	5.413323E-17	1.619552E-17
7.070427E+03	5.431776E-17	1.623659E-17
7.080330E+03	5.449726E-17	1.627616E-17
7.090232E+03	5.466986E-17	1.631367E-17
7.100135E+03	5.483817E-17	1.634993E-17
7.110037E+03	5.500149E-17	1.638472E-17
7.119940E+03	5.516024E-17	1.641818E-17
7.129842E+03	5.531370E-17	1.645011E-17
7.139745E+03	5.546458E-17	1.648131E-17
7.149647E+03	5.561100E-17	1.651123E-17
7.159550E+03	5.575449E-17	1.654034E-17
7.169453E+03	5.589425E-17	1.656840E-17
7.179355E+03	5.603176E-17	1.659587E-17
7.189258E+03	5.616611E-17	1.662247E-17
7.199160E+03	5.629751E-17	1.664827E-17
7.209063E+03	5.642728E-17	1.667368E-17
7.218965E+03	5.655431E-17	1.669837E-17
7.228868E+03	5.667982E-17	1.672270E-17
7.238770E+03	5.680138E-17	1.674598E-17
7.248673E+03	5.692006E-17	1.676850E-17
7.258576E+03	5.703695E-17	1.679062E-17
7.268478E+03	5.714944E-17	1.681156E-17
7.278381E+03	5.725855E-17	1.683163E-17
7.288283E+03	5.736282E-17	1.685042E-17
7.298186E+03	5.746331E-17	1.686823E-17
7.308088E+03	5.755858E-17	1.688465E-17
7.317991E+03	5.764849E-17	1.689966E-17
7.327894E+03	5.773294E-17	1.691322E-17
7.337796E+03	5.781061E-17	1.692497E-17
7.347699E+03	5.788150E-17	1.693490E-17
7.357601E+03	5.794569E-17	1.694306E-17
7.367504E+03	5.800335E-17	1.694950E-17
7.377406E+03	5.805596E-17	1.695466E-17
7.387309E+03	5.810254E-17	1.695825E-17
7.397211E+03	5.814603E-17	1.696116E-17
7.407114E+03	5.818682E-17	1.696349E-17
7.417017E+03	5.822532E-17	1.696537E-17
7.426919E+03	5.826192E-17	1.696692E-17
7.436822E+03	5.829695E-17	1.696825E-17
7.446724E+03	5.833329E-17	1.697019E-17
7.456627E+03	5.836830E-17	1.697198E-17
7.466529E+03	5.840329E-17	1.697400E-17
7.476432E+03	5.843817E-17	1.697622E-17
7.486334E+03	5.847417E-17	1.697899E-17
7.496237E+03	5.850847E-17	1.698150E-17
7.506140E+03	5.854232E-17	1.698411E-17
7.516042E+03	5.857561E-17	1.698677E-17
7.525945E+03	5.860965E-17	1.698988E-17
7.535847E+03	5.864164E-17	1.699260E-17
7.545750E+03	5.867432E-17	1.699575E-17
7.555652E+03	5.870634E-17	1.699892E-17
7.565555E+03	5.873632E-17	1.700171E-17
7.575457E+03	5.876711E-17	1.700494E-17
7.585360E+03	5.879739E-17	1.700824E-17
7.595263E+03	5.882724E-17	1.701161E-17
7.605165E+03	5.885674E-17	1.701509E-17
7.615068E+03	5.888596E-17	1.701869E-17
7.624970E+03	5.891498E-17	1.702243E-17
7.634873E+03	5.894528E-17	1.702674E-17
7.644775E+03	5.897401E-17	1.703079E-17
7.654678E+03	5.900405E-17	1.703541E-17
7.664581E+03	5.903393E-17	1.704017E-17
7.674483E+03	5.906358E-17	1.704506E-17
7.684386E+03	5.909290E-17	1.705004E-17
