#wls	flux	fluxerr
1.584409E+03	1.369620E-16	4.127253E-17
1.624020E+03	1.426959E-16	4.299982E-17
1.663630E+03	1.479637E-16	4.458659E-17
1.703240E+03	1.526766E-16	4.600609E-17
1.742850E+03	1.567251E-16	4.722533E-17
1.782461E+03	1.599584E-16	4.819885E-17
1.822071E+03	1.621689E-16	4.886416E-17
1.861681E+03	1.631570E-16	4.916112E-17
1.901291E+03	1.627056E-16	4.902429E-17
1.940902E+03	1.606303E-16	4.839818E-17
1.980512E+03	1.569136E-16	4.727754E-17
2.020122E+03	1.517939E-16	4.573415E-17
2.059732E+03	1.459264E-16	4.396554E-17
2.099342E+03	1.403735E-16	4.229175E-17
2.138953E+03	1.361933E-16	4.103157E-17
2.178563E+03	1.339618E-16	4.035847E-17
2.218173E+03	1.334303E-16	4.019754E-17
2.257783E+03	1.336747E-16	4.027033E-17
2.297394E+03	1.337927E-16	4.030504E-17
2.337004E+03	1.330975E-16	4.009474E-17
2.376614E+03	1.312075E-16	3.952452E-17
2.416224E+03	1.280089E-16	3.856012E-17
2.455835E+03	1.235697E-16	3.722203E-17
2.495445E+03	1.180480E-16	3.555791E-17
2.535055E+03	1.116331E-16	3.362482E-17
2.574665E+03	1.045321E-16	3.148516E-17
2.614276E+03	9.694457E-17	2.919903E-17
2.653886E+03	8.905649E-17	2.682248E-17
2.693496E+03	8.103902E-17	2.440708E-17
2.733106E+03	7.305236E-17	2.200107E-17
2.772716E+03	6.522931E-17	1.964445E-17
2.812327E+03	5.769011E-17	1.737344E-17
2.851937E+03	5.054316E-17	1.522067E-17
2.891547E+03	4.387846E-17	1.321325E-17
2.931157E+03	3.776829E-17	1.137292E-17
2.970768E+03	3.225861E-17	9.713511E-18
2.980670E+03	3.097744E-17	9.327657E-18
2.990573E+03	2.973499E-17	8.953466E-18
3.000475E+03	2.853164E-17	8.591055E-18
3.010378E+03	2.736699E-17	8.240303E-18
3.020280E+03	2.624061E-17	7.901082E-18
3.030183E+03	2.515259E-17	7.573414E-18
3.040086E+03	2.410210E-17	7.257050E-18
3.049988E+03	2.309050E-17	6.952400E-18
3.059891E+03	2.211730E-17	6.659321E-18
3.069793E+03	2.118175E-17	6.377578E-18
3.079696E+03	2.028262E-17	6.106810E-18
3.089598E+03	1.941918E-17	5.846788E-18
3.099501E+03	1.859026E-17	5.597165E-18
3.109403E+03	1.779478E-17	5.357612E-18
3.119306E+03	1.703200E-17	5.127912E-18
3.129209E+03	1.630058E-17	4.907656E-18
3.139111E+03	1.560010E-17	4.696717E-18
3.149014E+03	1.492926E-17	4.494707E-18
3.158916E+03	1.428735E-17	4.301410E-18
3.168819E+03	1.367338E-17	4.116527E-18
3.178721E+03	1.308640E-17	3.939774E-18
3.188624E+03	1.252569E-17	3.770933E-18
3.198526E+03	1.199030E-17	3.609716E-18
3.208429E+03	1.147909E-17	3.455783E-18
3.218332E+03	1.099176E-17	3.309041E-18
3.228234E+03	1.052684E-17	3.169046E-18
3.238137E+03	1.008397E-17	3.035694E-18
3.248039E+03	9.661955E-18	2.908622E-18
3.257942E+03	9.260119E-18	2.787627E-18
3.267844E+03	8.877770E-18	2.672500E-18
3.277747E+03	8.513830E-18	2.562917E-18
3.287650E+03	8.167781E-18	2.458721E-18
3.297552E+03	7.838845E-18	2.359679E-18
3.307455E+03	7.526163E-18	2.265532E-18
3.317357E+03	7.229025E-18	2.176065E-18
3.327260E+03	6.946746E-18	2.091073E-18
3.337162E+03	6.678750E-18	2.010382E-18
3.347065E+03	6.424210E-18	1.933742E-18
3.356967E+03	6.182685E-18	1.861022E-18
3.366870E+03	5.953411E-18	1.791991E-18
3.376773E+03	5.735827E-18	1.726479E-18
3.386675E+03	5.529462E-18	1.664346E-18
3.396578E+03	5.333590E-18	1.605373E-18
3.406480E+03	5.147856E-18	1.549451E-18
3.416383E+03	4.971722E-18	1.496421E-18
3.426285E+03	4.804566E-18	1.446094E-18
3.436188E+03	4.646092E-18	1.398380E-18
3.446090E+03	4.495736E-18	1.353111E-18
3.455993E+03	4.353130E-18	1.310176E-18
3.465896E+03	4.217875E-18	1.269454E-18
3.475798E+03	4.089456E-18	1.230790E-18
3.485701E+03	3.967581E-18	1.194096E-18
3.495603E+03	3.851838E-18	1.159249E-18
3.505506E+03	3.741852E-18	1.126135E-18
3.515408E+03	3.637311E-18	1.094660E-18
3.525311E+03	3.537852E-18	1.064715E-18
3.535213E+03	3.443176E-18	1.036211E-18
3.545116E+03	3.352971E-18	1.009052E-18
3.555019E+03	3.267012E-18	9.831720E-19
3.564921E+03	3.185057E-18	9.584972E-19
3.574824E+03	3.106848E-18	9.349504E-19
3.584726E+03	3.032206E-18	9.124772E-19
3.594629E+03	2.960954E-18	8.910251E-19
3.604531E+03	2.892878E-18	8.705289E-19
3.614434E+03	2.827901E-18	8.509655E-19
3.624337E+03	2.765820E-18	8.322742E-19
3.634239E+03	2.706541E-18	8.144262E-19
3.644142E+03	2.649948E-18	7.973870E-19
3.654044E+03	2.595927E-18	7.811220E-19
3.663947E+03	2.544389E-18	7.656046E-19
3.673849E+03	2.495270E-18	7.508154E-19
3.683752E+03	2.448419E-18	7.367088E-19
3.693654E+03	2.403815E-18	7.232786E-19
3.703557E+03	2.361334E-18	7.104877E-19
3.713460E+03	2.320918E-18	6.983180E-19
3.723362E+03	2.282504E-18	6.867514E-19
3.733265E+03	2.245979E-18	6.757529E-19
3.743167E+03	2.211324E-18	6.653174E-19
3.753070E+03	2.178444E-18	6.554164E-19
3.762972E+03	2.147289E-18	6.460345E-19
3.772875E+03	2.117788E-18	6.371501E-19
3.782777E+03	2.089890E-18	6.287484E-19
3.792680E+03	2.063529E-18	6.208095E-19
3.802583E+03	2.038660E-18	6.133194E-19
3.812485E+03	2.015221E-18	6.062594E-19
3.822388E+03	1.993184E-18	5.996217E-19
3.832290E+03	1.972489E-18	5.933879E-19
3.842193E+03	1.953084E-18	5.875421E-19
3.852095E+03	1.934929E-18	5.820723E-19
3.861998E+03	1.917971E-18	5.769629E-19
3.871900E+03	1.902192E-18	5.722081E-19
3.881803E+03	1.887540E-18	5.677925E-19
3.891706E+03	1.873985E-18	5.637072E-19
3.901608E+03	1.861482E-18	5.599380E-19
3.911511E+03	1.849986E-18	5.564718E-19
3.921413E+03	1.839498E-18	5.533091E-19
3.931316E+03	1.829948E-18	5.504285E-19
3.941218E+03	1.821326E-18	5.478270E-19
3.951121E+03	1.813593E-18	5.454931E-19
3.961024E+03	1.806727E-18	5.434197E-19
3.970926E+03	1.800704E-18	5.416001E-19
3.980829E+03	1.795477E-18	5.400199E-19
3.990731E+03	1.791040E-18	5.386774E-19
4.000634E+03	1.787362E-18	5.375628E-19
4.010536E+03	1.784422E-18	5.366705E-19
4.020439E+03	1.782194E-18	5.359920E-19
4.030341E+03	1.780644E-18	5.355175E-19
4.040244E+03	1.779773E-18	5.352473E-19
4.050147E+03	1.779540E-18	5.351688E-19
4.060049E+03	1.779930E-18	5.352777E-19
4.069952E+03	1.780932E-18	5.355704E-19
4.079854E+03	1.782506E-18	5.360352E-19
4.089757E+03	1.784656E-18	5.366732E-19
4.099659E+03	1.787341E-18	5.374721E-19
4.109562E+03	1.790555E-18	5.384299E-19
4.119464E+03	1.794287E-18	5.395433E-19
4.129367E+03	1.798501E-18	5.408015E-19
4.139270E+03	1.803204E-18	5.422066E-19
4.149172E+03	1.808344E-18	5.437433E-19
4.159075E+03	1.813946E-18	5.454184E-19
4.168977E+03	1.819959E-18	5.472173E-19
4.178880E+03	1.826377E-18	5.491378E-19
4.188782E+03	1.833182E-18	5.511745E-19
4.198685E+03	1.840367E-18	5.533255E-19
4.208587E+03	1.847886E-18	5.555764E-19
4.218490E+03	1.855748E-18	5.579305E-19
4.228393E+03	1.863919E-18	5.603774E-19
4.238295E+03	1.872368E-18	5.629078E-19
4.248198E+03	1.881089E-18	5.655198E-19
4.258100E+03	1.890065E-18	5.682080E-19
4.268003E+03	1.899247E-18	5.709583E-19
4.277905E+03	1.908616E-18	5.737646E-19
4.287808E+03	1.918155E-18	5.766218E-19
4.297711E+03	1.927842E-18	5.795233E-19
4.307613E+03	1.937660E-18	5.824641E-19
4.317516E+03	1.947605E-18	5.854429E-19
4.327418E+03	1.957658E-18	5.884538E-19
4.337321E+03	1.967800E-18	5.914914E-19
4.347223E+03	1.978060E-18	5.945644E-19
4.357126E+03	1.988419E-18	5.976669E-19
4.367028E+03	1.998878E-18	6.007993E-19
4.376931E+03	2.009449E-18	6.039652E-19
4.386834E+03	2.020136E-18	6.071657E-19
4.396736E+03	2.030921E-18	6.103955E-19
4.406639E+03	2.041823E-18	6.136603E-19
4.416541E+03	2.052828E-18	6.169559E-19
4.426444E+03	2.063939E-18	6.202830E-19
4.436346E+03	2.075159E-18	6.236428E-19
4.446249E+03	2.086460E-18	6.270267E-19
4.456151E+03	2.097864E-18	6.304414E-19
4.466054E+03	2.109361E-18	6.338838E-19
4.475957E+03	2.120940E-18	6.373507E-19
4.485859E+03	2.132611E-18	6.408449E-19
4.495762E+03	2.144345E-18	6.443579E-19
4.505664E+03	2.156154E-18	6.478931E-19
4.515567E+03	2.168049E-18	6.514539E-19
4.525469E+03	2.180021E-18	6.550377E-19
4.535372E+03	2.192048E-18	6.586380E-19
4.545274E+03	2.204144E-18	6.622587E-19
4.555177E+03	2.216304E-18	6.658981E-19
4.565080E+03	2.228524E-18	6.695556E-19
4.574982E+03	2.240822E-18	6.732363E-19
4.584885E+03	2.253176E-18	6.769333E-19
4.594787E+03	2.265603E-18	6.806523E-19
4.604690E+03	2.278105E-18	6.843935E-19
4.614592E+03	2.290680E-18	6.881562E-19
4.624495E+03	2.303331E-18	6.919417E-19
4.634398E+03	2.316057E-18	6.957492E-19
4.644300E+03	2.328861E-18	6.995803E-19
4.654203E+03	2.341788E-18	7.034479E-19
4.664105E+03	2.354842E-18	7.073532E-19
4.674008E+03	2.368026E-18	7.112975E-19
4.683910E+03	2.381391E-18	7.152956E-19
4.693813E+03	2.394919E-18	7.193426E-19
4.703715E+03	2.408618E-18	7.234409E-19
4.713618E+03	2.422519E-18	7.275993E-19
4.723521E+03	2.436628E-18	7.318199E-19
4.733423E+03	2.450934E-18	7.360994E-19
4.743326E+03	2.465467E-18	7.404469E-19
4.753228E+03	2.480237E-18	7.448651E-19
4.763131E+03	2.495232E-18	7.493507E-19
4.773033E+03	2.510486E-18	7.539135E-19
4.782936E+03	2.526007E-18	7.585565E-19
4.792838E+03	2.541810E-18	7.632838E-19
4.802741E+03	2.557906E-18	7.680986E-19
4.812644E+03	2.574283E-18	7.729972E-19
4.822546E+03	2.591001E-18	7.779981E-19
4.832449E+03	2.608024E-18	7.830903E-19
4.842351E+03	2.625367E-18	7.882783E-19
4.852254E+03	2.643065E-18	7.935723E-19
4.862156E+03	2.661134E-18	7.989773E-19
4.872059E+03	2.679585E-18	8.044968E-19
4.881961E+03	2.698384E-18	8.101203E-19
4.891864E+03	2.717593E-18	8.158663E-19
4.901767E+03	2.737202E-18	8.217321E-19
4.911669E+03	2.757222E-18	8.277208E-19
4.921572E+03	2.777667E-18	8.338366E-19
4.931474E+03	2.798552E-18	8.400842E-19
4.941377E+03	2.819861E-18	8.464585E-19
4.951279E+03	2.841607E-18	8.529636E-19
4.961182E+03	2.863831E-18	8.596117E-19
4.971085E+03	2.886517E-18	8.663979E-19
4.980987E+03	2.909649E-18	8.733175E-19
4.990890E+03	2.933294E-18	8.803905E-19
5.000792E+03	2.957378E-18	8.875946E-19
5.010695E+03	2.981968E-18	8.949503E-19
5.020597E+03	3.007074E-18	9.024604E-19
5.030500E+03	3.032620E-18	9.101017E-19
5.040402E+03	3.058701E-18	9.179029E-19
5.050305E+03	3.085266E-18	9.258490E-19
5.060208E+03	3.112322E-18	9.339420E-19
5.070110E+03	3.139908E-18	9.421930E-19
5.080013E+03	3.167969E-18	9.505860E-19
5.089915E+03	3.196508E-18	9.591221E-19
5.099818E+03	3.225565E-18	9.678126E-19
5.109720E+03	3.255108E-18	9.766486E-19
5.119623E+03	3.285142E-18	9.856309E-19
5.129525E+03	3.315638E-18	9.947513E-19
5.139428E+03	3.346629E-18	1.004019E-18
5.149331E+03	3.378048E-18	1.013415E-18
5.159233E+03	3.409960E-18	1.022958E-18
5.169136E+03	3.442332E-18	1.032639E-18
5.179038E+03	3.475125E-18	1.042444E-18
5.188941E+03	3.508335E-18	1.052374E-18
5.198843E+03	3.541990E-18	1.062437E-18
5.208746E+03	3.576012E-18	1.072609E-18
5.218648E+03	3.610428E-18	1.082899E-18
5.228551E+03	3.645262E-18	1.093313E-18
5.238454E+03	3.680397E-18	1.103816E-18
5.248356E+03	3.715926E-18	1.114436E-18
5.258259E+03	3.751724E-18	1.125137E-18
5.268161E+03	3.787885E-18	1.135946E-18
5.278064E+03	3.824279E-18	1.146823E-18
5.287966E+03	3.860959E-18	1.157785E-18
5.297869E+03	3.897906E-18	1.168827E-18
5.307772E+03	3.935056E-18	1.179928E-18
5.317674E+03	3.972462E-18	1.191105E-18
5.327577E+03	4.009980E-18	1.202315E-18
5.337479E+03	4.047699E-18	1.213584E-18
5.347382E+03	4.085549E-18	1.224891E-18
5.357284E+03	4.123497E-18	1.236227E-18
5.367187E+03	4.161511E-18	1.247582E-18
5.377089E+03	4.199554E-18	1.258944E-18
5.386992E+03	4.237544E-18	1.270290E-18
5.396895E+03	4.275442E-18	1.281606E-18
5.406797E+03	4.313204E-18	1.292881E-18
5.416700E+03	4.350785E-18	1.304101E-18
5.426602E+03	4.388094E-18	1.315238E-18
5.436505E+03	4.425036E-18	1.326264E-18
5.446407E+03	4.461603E-18	1.337177E-18
5.456310E+03	4.497697E-18	1.347947E-18
5.466212E+03	4.533216E-18	1.358543E-18
5.476115E+03	4.568054E-18	1.368935E-18
5.486018E+03	4.602198E-18	1.379117E-18
5.495920E+03	4.635492E-18	1.389044E-18
5.505823E+03	4.667919E-18	1.398710E-18
5.515725E+03	4.699321E-18	1.408068E-18
5.525628E+03	4.729631E-18	1.417098E-18
5.535530E+03	4.758831E-18	1.425794E-18
5.545433E+03	4.786761E-18	1.434109E-18
5.555335E+03	4.813403E-18	1.442037E-18
5.565238E+03	4.838695E-18	1.449559E-18
5.575141E+03	4.862523E-18	1.456642E-18
5.585043E+03	4.884828E-18	1.463268E-18
5.594946E+03	4.905599E-18	1.469435E-18
5.604848E+03	4.924786E-18	1.475125E-18
5.614751E+03	4.942280E-18	1.480308E-18
5.624653E+03	4.958087E-18	1.484985E-18
5.634556E+03	4.972212E-18	1.489157E-18
5.644459E+03	4.984513E-18	1.492782E-18
5.654361E+03	4.995002E-18	1.495865E-18
5.664264E+03	5.003702E-18	1.498411E-18
5.674166E+03	5.010588E-18	1.500413E-18
5.684069E+03	5.015638E-18	1.501865E-18
5.693971E+03	5.018834E-18	1.502762E-18
5.703874E+03	5.020167E-18	1.503100E-18
5.713776E+03	5.019687E-18	1.502895E-18
5.723679E+03	5.017339E-18	1.502130E-18
5.733582E+03	5.013240E-18	1.500841E-18
5.743484E+03	5.007345E-18	1.499015E-18
5.753387E+03	4.999675E-18	1.496656E-18
5.763289E+03	4.990360E-18	1.493805E-18
5.773192E+03	4.979321E-18	1.490438E-18
5.783094E+03	4.966646E-18	1.486582E-18
5.792997E+03	4.952428E-18	1.482263E-18
5.802899E+03	4.936658E-18	1.477480E-18
5.812802E+03	4.919436E-18	1.472263E-18
5.822705E+03	4.900761E-18	1.466611E-18
5.832607E+03	4.880797E-18	1.460573E-18
5.842510E+03	4.859551E-18	1.454152E-18
5.852412E+03	4.837082E-18	1.447365E-18
5.862315E+03	4.813513E-18	1.440249E-18
5.872217E+03	4.788855E-18	1.432808E-18
5.882120E+03	4.763230E-18	1.425078E-18
5.892022E+03	4.736657E-18	1.417064E-18
5.901925E+03	4.709258E-18	1.408804E-18
5.911828E+03	4.681107E-18	1.400319E-18
5.921730E+03	4.652277E-18	1.391632E-18
5.931633E+03	4.622783E-18	1.382746E-18
5.941535E+03	4.592751E-18	1.373701E-18
5.951438E+03	4.562252E-18	1.364515E-18
5.961340E+03	4.531302E-18	1.355196E-18
5.971243E+03	4.500022E-18	1.345778E-18
5.981146E+03	4.468425E-18	1.336267E-18
5.991048E+03	4.436524E-18	1.326665E-18
6.000951E+03	4.404487E-18	1.317022E-18
6.010853E+03	4.372269E-18	1.307327E-18
6.020756E+03	4.339981E-18	1.297611E-18
6.030658E+03	4.307576E-18	1.287860E-18
6.040561E+03	4.275160E-18	1.278107E-18
6.050463E+03	4.242733E-18	1.268352E-18
6.060366E+03	4.210344E-18	1.258608E-18
6.070269E+03	4.178039E-18	1.248890E-18
6.080171E+03	4.145813E-18	1.239197E-18
6.090074E+03	4.113705E-18	1.229539E-18
6.099976E+03	4.081757E-18	1.219930E-18
6.109879E+03	4.050005E-18	1.210380E-18
6.119781E+03	4.018482E-18	1.200899E-18
6.129684E+03	3.987170E-18	1.191482E-18
6.139586E+03	3.956149E-18	1.182152E-18
6.149489E+03	3.925445E-18	1.172918E-18
6.159392E+03	3.895084E-18	1.163787E-18
6.169294E+03	3.865137E-18	1.154781E-18
6.179197E+03	3.835674E-18	1.145919E-18
6.189099E+03	3.806762E-18	1.137223E-18
6.199002E+03	3.778470E-18	1.128713E-18
6.208904E+03	3.750856E-18	1.120406E-18
6.218807E+03	3.724037E-18	1.112337E-18
6.228709E+03	3.697969E-18	1.104493E-18
6.238612E+03	3.672864E-18	1.096936E-18
6.248515E+03	3.648674E-18	1.089654E-18
6.258417E+03	3.625509E-18	1.082679E-18
6.268320E+03	3.603423E-18	1.076026E-18
6.278222E+03	3.582470E-18	1.069711E-18
6.288125E+03	3.562653E-18	1.063737E-18
6.298027E+03	3.544026E-18	1.058118E-18
6.307930E+03	3.526642E-18	1.052871E-18
6.317833E+03	3.510506E-18	1.047996E-18
6.327735E+03	3.495618E-18	1.043494E-18
6.337638E+03	3.482034E-18	1.039382E-18
6.347540E+03	3.469652E-18	1.035629E-18
6.357443E+03	3.458477E-18	1.032236E-18
6.367345E+03	3.448459E-18	1.029189E-18
6.377248E+03	3.439500E-18	1.026458E-18
6.387150E+03	3.431650E-18	1.024058E-18
6.397053E+03	3.424811E-18	1.021959E-18
6.406956E+03	3.419032E-18	1.020177E-18
6.416858E+03	3.414317E-18	1.018712E-18
6.426761E+03	3.410617E-18	1.017550E-18
6.436663E+03	3.407929E-18	1.016690E-18
6.446566E+03	3.406259E-18	1.016133E-18
6.456468E+03	3.405605E-18	1.015879E-18
6.466371E+03	3.405970E-18	1.015929E-18
6.476273E+03	3.407411E-18	1.016300E-18
6.486176E+03	3.409875E-18	1.016975E-18
6.496079E+03	3.413311E-18	1.017940E-18
6.505981E+03	3.417830E-18	1.019228E-18
6.515884E+03	3.423327E-18	1.020807E-18
6.525786E+03	3.429858E-18	1.022693E-18
6.535689E+03	3.437426E-18	1.024889E-18
6.545591E+03	3.446036E-18	1.027395E-18
6.555494E+03	3.455693E-18	1.030212E-18
6.565396E+03	3.466343E-18	1.033324E-18
6.575299E+03	3.478046E-18	1.036750E-18
6.585202E+03	3.490751E-18	1.040474E-18
6.595104E+03	3.504521E-18	1.044515E-18
6.605007E+03	3.519303E-18	1.048856E-18
6.614909E+03	3.535098E-18	1.053499E-18
6.624812E+03	3.551975E-18	1.058464E-18
6.634714E+03	3.569939E-18	1.063751E-18
6.644617E+03	3.588876E-18	1.069327E-18
6.654520E+03	3.608913E-18	1.075230E-18
6.664422E+03	3.629933E-18	1.081425E-18
6.674325E+03	3.652065E-18	1.087951E-18
6.684227E+03	3.675258E-18	1.094791E-18
6.694130E+03	3.699452E-18	1.101928E-18
6.704032E+03	3.724783E-18	1.109403E-18
6.713935E+03	3.751129E-18	1.117179E-18
6.723837E+03	3.778562E-18	1.125277E-18
6.733740E+03	3.807091E-18	1.133701E-18
6.743643E+03	3.836723E-18	1.142452E-18
6.753545E+03	3.867398E-18	1.151511E-18
6.763448E+03	3.899193E-18	1.160903E-18
6.773350E+03	3.932045E-18	1.170608E-18
6.783253E+03	3.966032E-18	1.180650E-18
6.793155E+03	4.001092E-18	1.191009E-18
6.803058E+03	4.037232E-18	1.201688E-18
6.812960E+03	4.074531E-18	1.212711E-18
6.822863E+03	4.112850E-18	1.224035E-18
6.832766E+03	4.152344E-18	1.235707E-18
6.842668E+03	4.192947E-18	1.247708E-18
6.852571E+03	4.234668E-18	1.260039E-18
6.862473E+03	4.277509E-18	1.272702E-18
6.872376E+03	4.321481E-18	1.285699E-18
6.882278E+03	4.366507E-18	1.299007E-18
6.892181E+03	4.412675E-18	1.312654E-18
6.902083E+03	4.459991E-18	1.326639E-18
6.911986E+03	4.508462E-18	1.340967E-18
6.921889E+03	4.557920E-18	1.355585E-18
6.931791E+03	4.608633E-18	1.370575E-18
6.941694E+03	4.660338E-18	1.385857E-18
6.951596E+03	4.713217E-18	1.401486E-18
6.961499E+03	4.767184E-18	1.417436E-18
6.971401E+03	4.822242E-18	1.433708E-18
6.981304E+03	4.878392E-18	1.450302E-18
6.991207E+03	4.935638E-18	1.467219E-18
7.001109E+03	4.993879E-18	1.484430E-18
7.011012E+03	5.053213E-18	1.501963E-18
7.020914E+03	5.113643E-18	1.519818E-18
7.030817E+03	5.175064E-18	1.537966E-18
7.040719E+03	5.237578E-18	1.556436E-18
7.050622E+03	5.301077E-18	1.575195E-18
7.060524E+03	5.365555E-18	1.594242E-18
7.070427E+03	5.431004E-18	1.613576E-18
7.080330E+03	5.497535E-18	1.633227E-18
7.090232E+03	5.564913E-18	1.653127E-18
7.100135E+03	5.633125E-18	1.673272E-18
7.110037E+03	5.702396E-18	1.693728E-18
7.119940E+03	5.772481E-18	1.714423E-18
7.129842E+03	5.843362E-18	1.735351E-18
7.139745E+03	5.915149E-18	1.756544E-18
7.149647E+03	5.987704E-18	1.777963E-18
7.159550E+03	6.061009E-18	1.799601E-18
7.169453E+03	6.135044E-18	1.821452E-18
7.179355E+03	6.209789E-18	1.843510E-18
7.189258E+03	6.285359E-18	1.865810E-18
7.199160E+03	6.361462E-18	1.888266E-18
7.209063E+03	6.438348E-18	1.910949E-18
7.218965E+03	6.515860E-18	1.933815E-18
7.228868E+03	6.593968E-18	1.956855E-18
7.238770E+03	6.672796E-18	1.980104E-18
7.248673E+03	6.752173E-18	2.003513E-18
7.258576E+03	6.832224E-18	2.027118E-18
7.268478E+03	6.912923E-18	2.050912E-18
7.278381E+03	6.994407E-18	2.074935E-18
7.288283E+03	7.076659E-18	2.099182E-18
7.298186E+03	7.159822E-18	2.123695E-18
7.308088E+03	7.243724E-18	2.148424E-18
7.317991E+03	7.328846E-18	2.173511E-18
7.327894E+03	7.415193E-18	2.198957E-18
7.337796E+03	7.502599E-18	2.224713E-18
7.347699E+03	7.591586E-18	2.250935E-18
7.357601E+03	7.681997E-18	2.277574E-18
7.367504E+03	7.774024E-18	2.304688E-18
7.377406E+03	7.867507E-18	2.332230E-18
7.387309E+03	7.962644E-18	2.360258E-18
7.397211E+03	8.058884E-18	2.388608E-18
7.407114E+03	8.156609E-18	2.417394E-18
7.417017E+03	8.255241E-18	2.446445E-18
7.426919E+03	8.354963E-18	2.475814E-18
7.436822E+03	8.455566E-18	2.505440E-18
7.446724E+03	8.556823E-18	2.535255E-18
7.456627E+03	8.658917E-18	2.565314E-18
7.466529E+03	8.761188E-18	2.595420E-18
7.476432E+03	8.864021E-18	2.625689E-18
7.486334E+03	8.967161E-18	2.656044E-18
7.496237E+03	9.070565E-18	2.686472E-18
7.506140E+03	9.173965E-18	2.716895E-18
7.516042E+03	9.277530E-18	2.747362E-18
7.525945E+03	9.380983E-18	2.777791E-18
7.535847E+03	9.484262E-18	2.808164E-18
7.545750E+03	9.587546E-18	2.838534E-18
7.555652E+03	9.690538E-18	2.868814E-18
7.565555E+03	9.793422E-18	2.899057E-18
7.575457E+03	9.895641E-18	2.929099E-18
7.585360E+03	9.997626E-18	2.959067E-18
7.595263E+03	1.009906E-17	2.988867E-18
7.605165E+03	1.020013E-17	3.018557E-18
7.615068E+03	1.030052E-17	3.048040E-18
7.624970E+03	1.040015E-17	3.077294E-18
7.634873E+03	1.049895E-17	3.106297E-18
7.644775E+03	1.059739E-17	3.135191E-18
7.654678E+03	1.069458E-17	3.163711E-18
7.664581E+03	1.079128E-17	3.192083E-18
7.674483E+03	1.088687E-17	3.220121E-18
7.684386E+03	1.098156E-17	3.247889E-18
