#wls	flux	fluxerr
1.584409E+03	1.092924E-16	3.555190E-17
1.624020E+03	1.134913E-16	3.685778E-17
1.663630E+03	1.173820E-16	3.805708E-17
1.703240E+03	1.209185E-16	3.913518E-17
1.742850E+03	1.240155E-16	4.006487E-17
1.782461E+03	1.265754E-16	4.081519E-17
1.822071E+03	1.284423E-16	4.133677E-17
1.861681E+03	1.294615E-16	4.158102E-17
1.901291E+03	1.294598E-16	4.149392E-17
1.940902E+03	1.282930E-16	4.103142E-17
1.980512E+03	1.259025E-16	4.017719E-17
2.020122E+03	1.224708E-16	3.899208E-17
2.059732E+03	1.185067E-16	3.764013E-17
2.099342E+03	1.148229E-16	3.638029E-17
2.138953E+03	1.123008E-16	3.549070E-17
2.178563E+03	1.114322E-16	3.512365E-17
2.218173E+03	1.120575E-16	3.522489E-17
2.257783E+03	1.135139E-16	3.558271E-17
2.297394E+03	1.149880E-16	3.594052E-17
2.337004E+03	1.158717E-16	3.610860E-17
2.376614E+03	1.158085E-16	3.597775E-17
2.416224E+03	1.146648E-16	3.550929E-17
2.455835E+03	1.124687E-16	3.471508E-17
2.495445E+03	1.093137E-16	3.362729E-17
2.535055E+03	1.053228E-16	3.228684E-17
2.574665E+03	1.006451E-16	3.074223E-17
2.614276E+03	9.540992E-17	2.903548E-17
2.653886E+03	8.975192E-17	2.720971E-17
2.693496E+03	8.378820E-17	2.530224E-17
2.733106E+03	7.764023E-17	2.335119E-17
2.772716E+03	7.141317E-17	2.138927E-17
2.812327E+03	6.521088E-17	1.944829E-17
2.851937E+03	5.912981E-17	1.755736E-17
2.891547E+03	5.325726E-17	1.574235E-17
2.931157E+03	4.766945E-17	1.402539E-17
2.970768E+03	4.242825E-17	1.242393E-17
2.980670E+03	4.117743E-17	1.204305E-17
2.990573E+03	3.995213E-17	1.167045E-17
3.000475E+03	3.875176E-17	1.130591E-17
3.010378E+03	3.757827E-17	1.095000E-17
3.020280E+03	3.643095E-17	1.060248E-17
3.030183E+03	3.530995E-17	1.026337E-17
3.040086E+03	3.421582E-17	9.932815E-18
3.049988E+03	3.315130E-17	9.611583E-18
3.059891E+03	3.211609E-17	9.299562E-18
3.069793E+03	3.111076E-17	8.996889E-18
3.079696E+03	3.013397E-17	8.703148E-18
3.089598E+03	2.918570E-17	8.418310E-18
3.099501E+03	2.826538E-17	8.142180E-18
3.109403E+03	2.737248E-17	7.874583E-18
3.119306E+03	2.650653E-17	7.615357E-18
3.129209E+03	2.566759E-17	7.364492E-18
3.139111E+03	2.485473E-17	7.121696E-18
3.149014E+03	2.406800E-17	6.886961E-18
3.158916E+03	2.330698E-17	6.660135E-18
3.168819E+03	2.257122E-17	6.441068E-18
3.178721E+03	2.186068E-17	6.229723E-18
3.188624E+03	2.117415E-17	6.025729E-18
3.198526E+03	2.051228E-17	5.829246E-18
3.208429E+03	1.987354E-17	5.639816E-18
3.218332E+03	1.925848E-17	5.457569E-18
3.228234E+03	1.866595E-17	5.282155E-18
3.238137E+03	1.809577E-17	5.113502E-18
3.248039E+03	1.754743E-17	4.951440E-18
3.257942E+03	1.702016E-17	4.795728E-18
3.267844E+03	1.651397E-17	4.646347E-18
3.277747E+03	1.602782E-17	4.502983E-18
3.287650E+03	1.556121E-17	4.365469E-18
3.297552E+03	1.511408E-17	4.233772E-18
3.307455E+03	1.468545E-17	4.107595E-18
3.317357E+03	1.427481E-17	3.986775E-18
3.327260E+03	1.388168E-17	3.871154E-18
3.337162E+03	1.350572E-17	3.760624E-18
3.347065E+03	1.314607E-17	3.654918E-18
3.356967E+03	1.280223E-17	3.553889E-18
3.366870E+03	1.247391E-17	3.457430E-18
3.376773E+03	1.216045E-17	3.365343E-18
3.386675E+03	1.186138E-17	3.277481E-18
3.396578E+03	1.157595E-17	3.193618E-18
3.406480E+03	1.130386E-17	3.113661E-18
3.416383E+03	1.104469E-17	3.037472E-18
3.426285E+03	1.079776E-17	2.964852E-18
3.436188E+03	1.056266E-17	2.895676E-18
3.446090E+03	1.033891E-17	2.829795E-18
3.455993E+03	1.012628E-17	2.767131E-18
3.465896E+03	9.924057E-18	2.707482E-18
3.475798E+03	9.732065E-18	2.650783E-18
3.485701E+03	9.549757E-18	2.596873E-18
3.495603E+03	9.376765E-18	2.545640E-18
3.505506E+03	9.212710E-18	2.496971E-18
3.515408E+03	9.057158E-18	2.450737E-18
3.525311E+03	8.909885E-18	2.406866E-18
3.535213E+03	8.770383E-18	2.365212E-18
3.545116E+03	8.638374E-18	2.325689E-18
3.555019E+03	8.513681E-18	2.288241E-18
3.564921E+03	8.395948E-18	2.252762E-18
3.574824E+03	8.284927E-18	2.219178E-18
3.584726E+03	8.180305E-18	2.187396E-18
3.594629E+03	8.081786E-18	2.157329E-18
3.604531E+03	7.989163E-18	2.128914E-18
3.614434E+03	7.902095E-18	2.102053E-18
3.624337E+03	7.820475E-18	2.076709E-18
3.634239E+03	7.743996E-18	2.052795E-18
3.644142E+03	7.672501E-18	2.030262E-18
3.654044E+03	7.605919E-18	2.009085E-18
3.663947E+03	7.543958E-18	1.989180E-18
3.673849E+03	7.486486E-18	1.970507E-18
3.683752E+03	7.433519E-18	1.953064E-18
3.693654E+03	7.384854E-18	1.936791E-18
3.703557E+03	7.340358E-18	1.921649E-18
3.713460E+03	7.300042E-18	1.907634E-18
3.723362E+03	7.263711E-18	1.894690E-18
3.733265E+03	7.231302E-18	1.882796E-18
3.743167E+03	7.202817E-18	1.871945E-18
3.753070E+03	7.178131E-18	1.862102E-18
3.762972E+03	7.157178E-18	1.853242E-18
3.772875E+03	7.139888E-18	1.845345E-18
3.782777E+03	7.126213E-18	1.838391E-18
3.792680E+03	7.116149E-18	1.832375E-18
3.802583E+03	7.109578E-18	1.827262E-18
3.812485E+03	7.106495E-18	1.823046E-18
3.822388E+03	7.106919E-18	1.819727E-18
3.832290E+03	7.110720E-18	1.817266E-18
3.842193E+03	7.117854E-18	1.815648E-18
3.852095E+03	7.128387E-18	1.814886E-18
3.861998E+03	7.142256E-18	1.814958E-18
3.871900E+03	7.159352E-18	1.815832E-18
3.881803E+03	7.179737E-18	1.817520E-18
3.891706E+03	7.203414E-18	1.820018E-18
3.901608E+03	7.230199E-18	1.823274E-18
3.911511E+03	7.260149E-18	1.827300E-18
3.921413E+03	7.293258E-18	1.832089E-18
3.931316E+03	7.329456E-18	1.837619E-18
3.941218E+03	7.368613E-18	1.843854E-18
3.951121E+03	7.410832E-18	1.850815E-18
3.961024E+03	7.455972E-18	1.858464E-18
3.970926E+03	7.503954E-18	1.866776E-18
3.980829E+03	7.554806E-18	1.875755E-18
3.990731E+03	7.608389E-18	1.885363E-18
4.000634E+03	7.664738E-18	1.895604E-18
4.010536E+03	7.723634E-18	1.906422E-18
4.020439E+03	7.785176E-18	1.917836E-18
4.030341E+03	7.849206E-18	1.929805E-18
4.040244E+03	7.915646E-18	1.942307E-18
4.050147E+03	7.984526E-18	1.955347E-18
4.060049E+03	8.055630E-18	1.968867E-18
4.069952E+03	8.129068E-18	1.982892E-18
4.079854E+03	8.204619E-18	1.997367E-18
4.089757E+03	8.282272E-18	2.012285E-18
4.099659E+03	8.361998E-18	2.027637E-18
4.109562E+03	8.443657E-18	2.043388E-18
4.119464E+03	8.527232E-18	2.059531E-18
4.129367E+03	8.612649E-18	2.076045E-18
4.139270E+03	8.699751E-18	2.092892E-18
4.149172E+03	8.788608E-18	2.110087E-18
4.159075E+03	8.879000E-18	2.127575E-18
4.168977E+03	8.970998E-18	2.145371E-18
4.178880E+03	9.064382E-18	2.163423E-18
4.188782E+03	9.159142E-18	2.181726E-18
4.198685E+03	9.255204E-18	2.200262E-18
4.208587E+03	9.352337E-18	2.218976E-18
4.218490E+03	9.450601E-18	2.237880E-18
4.228393E+03	9.549853E-18	2.256942E-18
4.238295E+03	9.649921E-18	2.276119E-18
4.248198E+03	9.750636E-18	2.295373E-18
4.258100E+03	9.851998E-18	2.314703E-18
4.268003E+03	9.953916E-18	2.334088E-18
4.277905E+03	1.005606E-17	2.353454E-18
4.287808E+03	1.015851E-17	2.372816E-18
4.297711E+03	1.026093E-17	2.392099E-18
4.307613E+03	1.036340E-17	2.411324E-18
4.317516E+03	1.046568E-17	2.430433E-18
4.327418E+03	1.056776E-17	2.449432E-18
4.337321E+03	1.066967E-17	2.468324E-18
4.347223E+03	1.077145E-17	2.487121E-18
4.357126E+03	1.087311E-17	2.505827E-18
4.367028E+03	1.097475E-17	2.524468E-18
4.376931E+03	1.107650E-17	2.543074E-18
4.386834E+03	1.117840E-17	2.561655E-18
4.396736E+03	1.128058E-17	2.580247E-18
4.406639E+03	1.138301E-17	2.598839E-18
4.416541E+03	1.148595E-17	2.617492E-18
4.426444E+03	1.158936E-17	2.636202E-18
4.436346E+03	1.169331E-17	2.654982E-18
4.446249E+03	1.179787E-17	2.673852E-18
4.456151E+03	1.190311E-17	2.692827E-18
4.466054E+03	1.200910E-17	2.711923E-18
4.475957E+03	1.211592E-17	2.731157E-18
4.485859E+03	1.222342E-17	2.750497E-18
4.495762E+03	1.233188E-17	2.770003E-18
4.505664E+03	1.244118E-17	2.789649E-18
4.515567E+03	1.255138E-17	2.809447E-18
4.525469E+03	1.266244E-17	2.829388E-18
4.535372E+03	1.277456E-17	2.849517E-18
4.545274E+03	1.288770E-17	2.869822E-18
4.555177E+03	1.300170E-17	2.890269E-18
4.565080E+03	1.311687E-17	2.910928E-18
4.574982E+03	1.323305E-17	2.931759E-18
4.584885E+03	1.335020E-17	2.952753E-18
4.594787E+03	1.346851E-17	2.973952E-18
4.604690E+03	1.358804E-17	2.995370E-18
4.614592E+03	1.370851E-17	3.016944E-18
4.624495E+03	1.383024E-17	3.038743E-18
4.634398E+03	1.395319E-17	3.060756E-18
4.644300E+03	1.407731E-17	3.082973E-18
4.654203E+03	1.420270E-17	3.105413E-18
4.664105E+03	1.432931E-17	3.128068E-18
4.674008E+03	1.445727E-17	3.150964E-18
4.683910E+03	1.458631E-17	3.174039E-18
4.693813E+03	1.471659E-17	3.197329E-18
4.703715E+03	1.484827E-17	3.220868E-18
4.713618E+03	1.498099E-17	3.244577E-18
4.723521E+03	1.511507E-17	3.268524E-18
4.733423E+03	1.525042E-17	3.292689E-18
4.743326E+03	1.538692E-17	3.317047E-18
4.753228E+03	1.552492E-17	3.341670E-18
4.763131E+03	1.566400E-17	3.366466E-18
4.773033E+03	1.580461E-17	3.391534E-18
4.782936E+03	1.594632E-17	3.416780E-18
4.792838E+03	1.608944E-17	3.442269E-18
4.802741E+03	1.623365E-17	3.467933E-18
4.812644E+03	1.637927E-17	3.493837E-18
4.822546E+03	1.652597E-17	3.519912E-18
4.832449E+03	1.667389E-17	3.546186E-18
4.842351E+03	1.682302E-17	3.572658E-18
4.852254E+03	1.697319E-17	3.599291E-18
4.862156E+03	1.712438E-17	3.626078E-18
4.872059E+03	1.727659E-17	3.653019E-18
4.881961E+03	1.742996E-17	3.680145E-18
4.891864E+03	1.758414E-17	3.707382E-18
4.901767E+03	1.773948E-17	3.734800E-18
4.911669E+03	1.789561E-17	3.762324E-18
4.921572E+03	1.805270E-17	3.789987E-18
4.931474E+03	1.821055E-17	3.817748E-18
4.941377E+03	1.836913E-17	3.845602E-18
4.951279E+03	1.852839E-17	3.873536E-18
4.961182E+03	1.868844E-17	3.901575E-18
4.971085E+03	1.884885E-17	3.929626E-18
4.980987E+03	1.900968E-17	3.957705E-18
4.990890E+03	1.917063E-17	3.985749E-18
5.000792E+03	1.933172E-17	4.013763E-18
5.010695E+03	1.949261E-17	4.041676E-18
5.020597E+03	1.965292E-17	4.069410E-18
5.030500E+03	1.981261E-17	4.096960E-18
5.040402E+03	1.997146E-17	4.124278E-18
5.050305E+03	2.012900E-17	4.151273E-18
5.060208E+03	2.028477E-17	4.177849E-18
5.070110E+03	2.043885E-17	4.204023E-18
5.080013E+03	2.059052E-17	4.229653E-18
5.089915E+03	2.073943E-17	4.254669E-18
5.099818E+03	2.088524E-17	4.279004E-18
5.109720E+03	2.102759E-17	4.302587E-18
5.119623E+03	2.116591E-17	4.325306E-18
5.129525E+03	2.130006E-17	4.347134E-18
5.139428E+03	2.142925E-17	4.367916E-18
5.149331E+03	2.155333E-17	4.387626E-18
5.159233E+03	2.167150E-17	4.406106E-18
5.169136E+03	2.178381E-17	4.423372E-18
5.179038E+03	2.188944E-17	4.439262E-18
5.188941E+03	2.198819E-17	4.453741E-18
5.198843E+03	2.207919E-17	4.466642E-18
5.208746E+03	2.216221E-17	4.477920E-18
5.218648E+03	2.223677E-17	4.487489E-18
5.228551E+03	2.230194E-17	4.495165E-18
5.238454E+03	2.235721E-17	4.500856E-18
5.248356E+03	2.240228E-17	4.504510E-18
5.258259E+03	2.243645E-17	4.505992E-18
5.268161E+03	2.245899E-17	4.505166E-18
5.278064E+03	2.246943E-17	4.501944E-18
5.287966E+03	2.246734E-17	4.496251E-18
5.297869E+03	2.245233E-17	4.488018E-18
5.307772E+03	2.242384E-17	4.477143E-18
5.317674E+03	2.238184E-17	4.463629E-18
5.327577E+03	2.232593E-17	4.447407E-18
5.337479E+03	2.225628E-17	4.428519E-18
5.347382E+03	2.217272E-17	4.406943E-18
5.357284E+03	2.207590E-17	4.382814E-18
5.367187E+03	2.196639E-17	4.356257E-18
5.377089E+03	2.184447E-17	4.327334E-18
5.386992E+03	2.171147E-17	4.296316E-18
5.396895E+03	2.156822E-17	4.263375E-18
5.406797E+03	2.141483E-17	4.228540E-18
5.416700E+03	2.125308E-17	4.192167E-18
5.426602E+03	2.108380E-17	4.154422E-18
5.436505E+03	2.090793E-17	4.115497E-18
5.446407E+03	2.072670E-17	4.075636E-18
5.456310E+03	2.054116E-17	4.035050E-18
5.466212E+03	2.035241E-17	3.993957E-18
5.476115E+03	2.016201E-17	3.952659E-18
5.486018E+03	1.997114E-17	3.911387E-18
5.495920E+03	1.978156E-17	3.870485E-18
5.505823E+03	1.959484E-17	3.830256E-18
5.515725E+03	1.941233E-17	3.790956E-18
5.525628E+03	1.923570E-17	3.752911E-18
5.535530E+03	1.906640E-17	3.716394E-18
5.545433E+03	1.890576E-17	3.681659E-18
5.555335E+03	1.875520E-17	3.648976E-18
5.565238E+03	1.861582E-17	3.618552E-18
5.575141E+03	1.848859E-17	3.590566E-18
5.585043E+03	1.837448E-17	3.565196E-18
5.594946E+03	1.827409E-17	3.542556E-18
5.604848E+03	1.818806E-17	3.522755E-18
5.614751E+03	1.811664E-17	3.505835E-18
5.624653E+03	1.805992E-17	3.491805E-18
5.634556E+03	1.801803E-17	3.480680E-18
5.644459E+03	1.799074E-17	3.472409E-18
5.654361E+03	1.797774E-17	3.466922E-18
5.664264E+03	1.797879E-17	3.464162E-18
5.674166E+03	1.799338E-17	3.464029E-18
5.684069E+03	1.802118E-17	3.466448E-18
5.693971E+03	1.806145E-17	3.471269E-18
5.703874E+03	1.811404E-17	3.478458E-18
5.713776E+03	1.817832E-17	3.487885E-18
5.723679E+03	1.825387E-17	3.499465E-18
5.733582E+03	1.834076E-17	3.513206E-18
5.743484E+03	1.843839E-17	3.528985E-18
5.753387E+03	1.854699E-17	3.546842E-18
5.763289E+03	1.866649E-17	3.566755E-18
5.773192E+03	1.879686E-17	3.588714E-18
5.783094E+03	1.893791E-17	3.612678E-18
5.792997E+03	1.909010E-17	3.638728E-18
5.802899E+03	1.925329E-17	3.666832E-18
5.812802E+03	1.942775E-17	3.697034E-18
5.822705E+03	1.961358E-17	3.729348E-18
5.832607E+03	1.981060E-17	3.763737E-18
5.842510E+03	2.001913E-17	3.800249E-18
5.852412E+03	2.023941E-17	3.838931E-18
5.862315E+03	2.047105E-17	3.879697E-18
5.872217E+03	2.071426E-17	3.922586E-18
5.882120E+03	2.096902E-17	3.967584E-18
5.892022E+03	2.123550E-17	4.014719E-18
5.901925E+03	2.151313E-17	4.063877E-18
5.911828E+03	2.180225E-17	4.115118E-18
5.921730E+03	2.210222E-17	4.168313E-18
5.931633E+03	2.241307E-17	4.223463E-18
5.941535E+03	2.273457E-17	4.280518E-18
5.951438E+03	2.306617E-17	4.339373E-18
5.961340E+03	2.340784E-17	4.400011E-18
5.971243E+03	2.375867E-17	4.462261E-18
5.981146E+03	2.411884E-17	4.526148E-18
5.991048E+03	2.448706E-17	4.591428E-18
6.000951E+03	2.486341E-17	4.658110E-18
6.010853E+03	2.524680E-17	4.725986E-18
6.020756E+03	2.563695E-17	4.795000E-18
6.030658E+03	2.603263E-17	4.864918E-18
6.040561E+03	2.643315E-17	4.935610E-18
6.050463E+03	2.683746E-17	5.006875E-18
6.060366E+03	2.724477E-17	5.078564E-18
6.070269E+03	2.765356E-17	5.150393E-18
6.080171E+03	2.806259E-17	5.222128E-18
6.090074E+03	2.847088E-17	5.293589E-18
6.099976E+03	2.887711E-17	5.364529E-18
6.109879E+03	2.927920E-17	5.434563E-18
6.119781E+03	2.967613E-17	5.503505E-18
6.129684E+03	3.006656E-17	5.571108E-18
6.139586E+03	3.044960E-17	5.637210E-18
6.149489E+03	3.082488E-17	5.701745E-18
6.159392E+03	3.119212E-17	5.764668E-18
6.169294E+03	3.155160E-17	5.826031E-18
6.179197E+03	3.190450E-17	5.886061E-18
6.189099E+03	3.225096E-17	5.944780E-18
6.199002E+03	3.259073E-17	6.002151E-18
6.208904E+03	3.292534E-17	6.058459E-18
6.218807E+03	3.325517E-17	6.113771E-18
6.228709E+03	3.357971E-17	6.168003E-18
6.238612E+03	3.390074E-17	6.221482E-18
6.248515E+03	3.421741E-17	6.274053E-18
6.258417E+03	3.453116E-17	6.325978E-18
6.268320E+03	3.484163E-17	6.377192E-18
6.278222E+03	3.514937E-17	6.427798E-18
6.288125E+03	3.545452E-17	6.477818E-18
6.298027E+03	3.575719E-17	6.527274E-18
6.307930E+03	3.605751E-17	6.576185E-18
6.317833E+03	3.635506E-17	6.624481E-18
6.327735E+03	3.664943E-17	6.672083E-18
6.337638E+03	3.694121E-17	6.719099E-18
6.347540E+03	3.722941E-17	6.765348E-18
6.357443E+03	3.751459E-17	6.810935E-18
6.367345E+03	3.779627E-17	6.855769E-18
6.377248E+03	3.807447E-17	6.899857E-18
6.387150E+03	3.834980E-17	6.943307E-18
6.397053E+03	3.862346E-17	6.986341E-18
6.406956E+03	3.889559E-17	7.028979E-18
6.416858E+03	3.916692E-17	7.071356E-18
6.426761E+03	3.943823E-17	7.113610E-18
6.436663E+03	3.970912E-17	7.155667E-18
6.446566E+03	3.998099E-17	7.197782E-18
6.456468E+03	4.025410E-17	7.239997E-18
6.466371E+03	4.052804E-17	7.282239E-18
6.476273E+03	4.080430E-17	7.324773E-18
6.486176E+03	4.108248E-17	7.367526E-18
6.496079E+03	4.136213E-17	7.410415E-18
6.505981E+03	4.164478E-17	7.453713E-18
6.515884E+03	4.192997E-17	7.497336E-18
6.525786E+03	4.221790E-17	7.541318E-18
6.535689E+03	4.250947E-17	7.585817E-18
6.545591E+03	4.280345E-17	7.630614E-18
6.555494E+03	4.310001E-17	7.675734E-18
6.565396E+03	4.340067E-17	7.721451E-18
6.575299E+03	4.370415E-17	7.767530E-18
6.585202E+03	4.401049E-17	7.813982E-18
6.595104E+03	4.432048E-17	7.860943E-18
6.605007E+03	4.463340E-17	7.908286E-18
6.614909E+03	4.494925E-17	7.956006E-18
6.624812E+03	4.526873E-17	8.004231E-18
6.634714E+03	4.559026E-17	8.052677E-18
6.644617E+03	4.591372E-17	8.101325E-18
6.654520E+03	4.624058E-17	8.150434E-18
6.664422E+03	4.656911E-17	8.199699E-18
6.674325E+03	4.689915E-17	8.249090E-18
6.684227E+03	4.723133E-17	8.298722E-18
6.694130E+03	4.756463E-17	8.348413E-18
6.704032E+03	4.789880E-17	8.398125E-18
6.713935E+03	4.823363E-17	8.447820E-18
6.723837E+03	4.856884E-17	8.497452E-18
6.733740E+03	4.890330E-17	8.546824E-18
6.743643E+03	4.923759E-17	8.596043E-18
6.753545E+03	4.957143E-17	8.645062E-18
6.763448E+03	4.990362E-17	8.693677E-18
6.773350E+03	5.023478E-17	8.741998E-18
6.783253E+03	5.056367E-17	8.789816E-18
6.793155E+03	5.089001E-17	8.837085E-18
6.803058E+03	5.121348E-17	8.883758E-18
6.812960E+03	5.153284E-17	8.929623E-18
6.822863E+03	5.184974E-17	8.974973E-18
6.832766E+03	5.216294E-17	9.019601E-18
6.842668E+03	5.247123E-17	9.063306E-18
6.852571E+03	5.277533E-17	9.106218E-18
6.862473E+03	5.307402E-17	9.148135E-18
6.872376E+03	5.336704E-17	9.189021E-18
6.882278E+03	5.365518E-17	9.229020E-18
6.892181E+03	5.393719E-17	9.267929E-18
6.902083E+03	5.421285E-17	9.305717E-18
6.911986E+03	5.448194E-17	9.342358E-18
6.921889E+03	5.474429E-17	9.377830E-18
6.931791E+03	5.499864E-17	9.411932E-18
6.941694E+03	5.524698E-17	9.445015E-18
6.951596E+03	5.548707E-17	9.476705E-18
6.961499E+03	5.571879E-17	9.506994E-18
6.971401E+03	5.594319E-17	9.536074E-18
6.981304E+03	5.615913E-17	9.563763E-18
6.991207E+03	5.636665E-17	9.590078E-18
7.001109E+03	5.656578E-17	9.615038E-18
7.011012E+03	5.675665E-17	9.638678E-18
7.020914E+03	5.694054E-17	9.661228E-18
7.030817E+03	5.711540E-17	9.682353E-18
7.040719E+03	5.728149E-17	9.702109E-18
7.050622E+03	5.744029E-17	9.720761E-18
7.060524E+03	5.759221E-17	9.738388E-18
7.070427E+03	5.773651E-17	9.754881E-18
7.080330E+03	5.787487E-17	9.770537E-18
7.090232E+03	5.800548E-17	9.785060E-18
7.100135E+03	5.813129E-17	9.798960E-18
7.110037E+03	5.825173E-17	9.812156E-18
7.119940E+03	5.836747E-17	9.824771E-18
7.129842E+03	5.847797E-17	9.836727E-18
7.139745E+03	5.858633E-17	9.848559E-18
7.149647E+03	5.869084E-17	9.859987E-18
7.159550E+03	5.879337E-17	9.871340E-18
7.169453E+03	5.889332E-17	9.882528E-18
7.179355E+03	5.899248E-17	9.893863E-18
7.189258E+03	5.909008E-17	9.905228E-18
7.199160E+03	5.918649E-17	9.916696E-18
7.209063E+03	5.928321E-17	9.928529E-18
7.218965E+03	5.937910E-17	9.940550E-18
7.228868E+03	5.947543E-17	9.952980E-18
7.238770E+03	5.956951E-17	9.965385E-18
7.248673E+03	5.966238E-17	9.977948E-18
7.258576E+03	5.975498E-17	9.990838E-18
7.268478E+03	5.984432E-17	1.000357E-17
7.278381E+03	5.993123E-17	1.001629E-17
7.288283E+03	6.001395E-17	1.002873E-17
7.298186E+03	6.009329E-17	1.004102E-17
7.308088E+03	6.016753E-17	1.005289E-17
7.317991E+03	6.023625E-17	1.006429E-17
7.327894E+03	6.029917E-17	1.007517E-17
7.337796E+03	6.035473E-17	1.008530E-17
7.347699E+03	6.040281E-17	1.009466E-17
7.357601E+03	6.044342E-17	1.010326E-17
7.367504E+03	6.047668E-17	1.011114E-17
7.377406E+03	6.050414E-17	1.011857E-17
7.387309E+03	6.052484E-17	1.012538E-17
7.397211E+03	6.054192E-17	1.013213E-17
7.407114E+03	6.055595E-17	1.013891E-17
7.417017E+03	6.056752E-17	1.014584E-17
7.426919E+03	6.057727E-17	1.015302E-17
7.436822E+03	6.058582E-17	1.016058E-17
7.446724E+03	6.059625E-17	1.016904E-17
7.456627E+03	6.060581E-17	1.017793E-17
7.466529E+03	6.061577E-17	1.018747E-17
7.476432E+03	6.062596E-17	1.019760E-17
7.486334E+03	6.063763E-17	1.020855E-17
7.496237E+03	6.064781E-17	1.021979E-17
7.506140E+03	6.065779E-17	1.023154E-17
7.516042E+03	6.066749E-17	1.024377E-17
7.525945E+03	6.067831E-17	1.025672E-17
7.535847E+03	6.068744E-17	1.026990E-17
7.545750E+03	6.069780E-17	1.028379E-17
7.555652E+03	6.070811E-17	1.029817E-17
7.565555E+03	6.071705E-17	1.031281E-17
7.575457E+03	6.072773E-17	1.032822E-17
7.585360E+03	6.073891E-17	1.034419E-17
7.595263E+03	6.075083E-17	1.036075E-17
7.605165E+03	6.076373E-17	1.037793E-17
7.615068E+03	6.077785E-17	1.039577E-17
7.624970E+03	6.079335E-17	1.041428E-17
7.634873E+03	6.081190E-17	1.043374E-17
7.644775E+03	6.083061E-17	1.045365E-17
7.654678E+03	6.085252E-17	1.047453E-17
7.664581E+03	6.087612E-17	1.049611E-17
7.674483E+03	6.090135E-17	1.051837E-17
7.684386E+03	6.092807E-17	1.054128E-17
