#wls	flux	fluxerr
1.584409E+03	8.179352E-17	1.130538E-17
1.624020E+03	8.251513E-17	1.134770E-17
1.663630E+03	8.297776E-17	1.135198E-17
1.703240E+03	8.316375E-17	1.131630E-17
1.742850E+03	8.306247E-17	1.123980E-17
1.782461E+03	8.262776E-17	1.111687E-17
1.822071E+03	8.180992E-17	1.094164E-17
1.861681E+03	8.054369E-17	1.070636E-17
1.901291E+03	7.875871E-17	1.040290E-17
1.940902E+03	7.640742E-17	1.002640E-17
1.980512E+03	7.350525E-17	9.580460E-18
2.020122E+03	7.019440E-17	9.085119E-18
2.059732E+03	6.676944E-17	8.579544E-18
2.099342E+03	6.369947E-17	8.124096E-18
2.138953E+03	6.145252E-17	7.777186E-18
2.178563E+03	6.026171E-17	7.565794E-18
2.218173E+03	6.002940E-17	7.474635E-18
2.257783E+03	6.038381E-17	7.454829E-18
2.297394E+03	6.090232E-17	7.452740E-18
2.337004E+03	6.125781E-17	7.428099E-18
2.376614E+03	6.126806E-17	7.359506E-18
2.416224E+03	6.087571E-17	7.241287E-18
2.455835E+03	6.008510E-17	7.075373E-18
2.495445E+03	5.894502E-17	6.868918E-18
2.535055E+03	5.751447E-17	6.630084E-18
2.574665E+03	5.584694E-17	6.366162E-18
2.614276E+03	5.399466E-17	6.084075E-18
2.653886E+03	5.200088E-17	5.789516E-18
2.693496E+03	4.990565E-17	5.487620E-18
2.733106E+03	4.774127E-17	5.182489E-18
2.772716E+03	4.553689E-17	4.877725E-18
2.812327E+03	4.331772E-17	4.576356E-18
2.851937E+03	4.111142E-17	4.281530E-18
2.891547E+03	3.894124E-17	3.995777E-18
2.931157E+03	3.682786E-17	3.721220E-18
2.970768E+03	3.479391E-17	3.460044E-18
2.980670E+03	3.430042E-17	3.397076E-18
2.990573E+03	3.381319E-17	3.335054E-18
3.000475E+03	3.333245E-17	3.273998E-18
3.010378E+03	3.285920E-17	3.214000E-18
3.020280E+03	3.239365E-17	3.155074E-18
3.030183E+03	3.193604E-17	3.097237E-18
3.040086E+03	3.148698E-17	3.040540E-18
3.049988E+03	3.104800E-17	2.985123E-18
3.059891E+03	3.062051E-17	2.931111E-18
3.069793E+03	3.020488E-17	2.878526E-18
3.079696E+03	2.980089E-17	2.827337E-18
3.089598E+03	2.940780E-17	2.777459E-18
3.099501E+03	2.902670E-17	2.728985E-18
3.109403E+03	2.865641E-17	2.681791E-18
3.119306E+03	2.829753E-17	2.635920E-18
3.129209E+03	2.795061E-17	2.591413E-18
3.139111E+03	2.761521E-17	2.548213E-18
3.149014E+03	2.729193E-17	2.506364E-18
3.158916E+03	2.698037E-17	2.465815E-18
3.168819E+03	2.668119E-17	2.426611E-18
3.178721E+03	2.639451E-17	2.388751E-18
3.188624E+03	2.612004E-17	2.352192E-18
3.198526E+03	2.585843E-17	2.316979E-18
3.208429E+03	2.560988E-17	2.283113E-18
3.218332E+03	2.537461E-17	2.250597E-18
3.228234E+03	2.515283E-17	2.219434E-18
3.238137E+03	2.494479E-17	2.189628E-18
3.248039E+03	2.475076E-17	2.161186E-18
3.257942E+03	2.457063E-17	2.134080E-18
3.267844E+03	2.440551E-17	2.108388E-18
3.277747E+03	2.425496E-17	2.084052E-18
3.287650E+03	2.411975E-17	2.061119E-18
3.297552E+03	2.399991E-17	2.039570E-18
3.307455E+03	2.389625E-17	2.019452E-18
3.317357E+03	2.380921E-17	2.000782E-18
3.327260E+03	2.373855E-17	1.983516E-18
3.337162E+03	2.368546E-17	1.967730E-18
3.347065E+03	2.364976E-17	1.953384E-18
3.356967E+03	2.363232E-17	1.940524E-18
3.366870E+03	2.363366E-17	1.929169E-18
3.376773E+03	2.365368E-17	1.919281E-18
3.386675E+03	2.369362E-17	1.910934E-18
3.396578E+03	2.375343E-17	1.904095E-18
3.406480E+03	2.383374E-17	1.898784E-18
3.416383E+03	2.393521E-17	1.895024E-18
3.426285E+03	2.405820E-17	1.892811E-18
3.436188E+03	2.420377E-17	1.892194E-18
3.446090E+03	2.437203E-17	1.893150E-18
3.455993E+03	2.456379E-17	1.895705E-18
3.465896E+03	2.477957E-17	1.899863E-18
3.475798E+03	2.502053E-17	1.905675E-18
3.485701E+03	2.528694E-17	1.913123E-18
3.495603E+03	2.557943E-17	1.922215E-18
3.505506E+03	2.589925E-17	1.933001E-18
3.515408E+03	2.624645E-17	1.945444E-18
3.525311E+03	2.662202E-17	1.959572E-18
3.535213E+03	2.702696E-17	1.975414E-18
3.545116E+03	2.746166E-17	1.992950E-18
3.555019E+03	2.792712E-17	2.012205E-18
3.564921E+03	2.842372E-17	2.033155E-18
3.574824E+03	2.895212E-17	2.055799E-18
3.584726E+03	2.951328E-17	2.080151E-18
3.594629E+03	3.010717E-17	2.106156E-18
3.604531E+03	3.073497E-17	2.133842E-18
3.614434E+03	3.139686E-17	2.163165E-18
3.624337E+03	3.209323E-17	2.194096E-18
3.634239E+03	3.282406E-17	2.226577E-18
3.644142E+03	3.358988E-17	2.260586E-18
3.654044E+03	3.439071E-17	2.296067E-18
3.663947E+03	3.522612E-17	2.332931E-18
3.673849E+03	3.609615E-17	2.371125E-18
3.683752E+03	3.700031E-17	2.410558E-18
3.693654E+03	3.793754E-17	2.451104E-18
3.703557E+03	3.890805E-17	2.492721E-18
3.713460E+03	3.990993E-17	2.535233E-18
3.723362E+03	4.094220E-17	2.578524E-18
3.733265E+03	4.200406E-17	2.622493E-18
3.743167E+03	4.309288E-17	2.666928E-18
3.753070E+03	4.420783E-17	2.711732E-18
3.762972E+03	4.534624E-17	2.756700E-18
3.772875E+03	4.650650E-17	2.801694E-18
3.782777E+03	4.768640E-17	2.846547E-18
3.792680E+03	4.888312E-17	2.891059E-18
3.802583E+03	5.009411E-17	2.935054E-18
3.812485E+03	5.131718E-17	2.978380E-18
3.822388E+03	5.254908E-17	3.020834E-18
3.832290E+03	5.378746E-17	3.062266E-18
3.842193E+03	5.502893E-17	3.102479E-18
3.852095E+03	5.627107E-17	3.141333E-18
3.861998E+03	5.751100E-17	3.178672E-18
3.871900E+03	5.874594E-17	3.214352E-18
3.881803E+03	5.997360E-17	3.248260E-18
3.891706E+03	6.119108E-17	3.280258E-18
3.901608E+03	6.239650E-17	3.310268E-18
3.911511E+03	6.358825E-17	3.338233E-18
3.921413E+03	6.476354E-17	3.364038E-18
3.931316E+03	6.592249E-17	3.387723E-18
3.941218E+03	6.706348E-17	3.409242E-18
3.951121E+03	6.818572E-17	3.428594E-18
3.961024E+03	6.928937E-17	3.445828E-18
3.970926E+03	7.037389E-17	3.460959E-18
3.980829E+03	7.144076E-17	3.474103E-18
3.990731E+03	7.249070E-17	3.485335E-18
4.000634E+03	7.352462E-17	3.494742E-18
4.010536E+03	7.454307E-17	3.502389E-18
4.020439E+03	7.554854E-17	3.508434E-18
4.030341E+03	7.654263E-17	3.512986E-18
4.040244E+03	7.752674E-17	3.516147E-18
4.050147E+03	7.850259E-17	3.518028E-18
4.060049E+03	7.947169E-17	3.518731E-18
4.069952E+03	8.043645E-17	3.518391E-18
4.079854E+03	8.139768E-17	3.517075E-18
4.089757E+03	8.235790E-17	3.514921E-18
4.099659E+03	8.331878E-17	3.512025E-18
4.109562E+03	8.428210E-17	3.508487E-18
4.119464E+03	8.524989E-17	3.504418E-18
4.129367E+03	8.622430E-17	3.499928E-18
4.139270E+03	8.720833E-17	3.495161E-18
4.149172E+03	8.820310E-17	3.490180E-18
4.159075E+03	8.921231E-17	3.485151E-18
4.168977E+03	9.023982E-17	3.480241E-18
4.178880E+03	9.128753E-17	3.475537E-18
4.188782E+03	9.235984E-17	3.471218E-18
4.198685E+03	9.345976E-17	3.467409E-18
4.208587E+03	9.459186E-17	3.464288E-18
4.218490E+03	9.575903E-17	3.461967E-18
4.228393E+03	9.696397E-17	3.460550E-18
4.238295E+03	9.821136E-17	3.460213E-18
4.248198E+03	9.950124E-17	3.460964E-18
4.258100E+03	1.008371E-16	3.462936E-18
4.268003E+03	1.022193E-16	3.466154E-18
4.277905E+03	1.036480E-16	3.470642E-18
4.287808E+03	1.051215E-16	3.476374E-18
4.297711E+03	1.066392E-16	3.483361E-18
4.307613E+03	1.081988E-16	3.491568E-18
4.317516E+03	1.097961E-16	3.500919E-18
4.327418E+03	1.114310E-16	3.511464E-18
4.337321E+03	1.130993E-16	3.523149E-18
4.347223E+03	1.148005E-16	3.536035E-18
4.357126E+03	1.165333E-16	3.550172E-18
4.367028E+03	1.182994E-16	3.565706E-18
4.376931E+03	1.200985E-16	3.582728E-18
4.386834E+03	1.219352E-16	3.601481E-18
4.396736E+03	1.238113E-16	3.622125E-18
4.406639E+03	1.257290E-16	3.644836E-18
4.416541E+03	1.276935E-16	3.669889E-18
4.426444E+03	1.297075E-16	3.697475E-18
4.436346E+03	1.317747E-16	3.727827E-18
4.446249E+03	1.338992E-16	3.761192E-18
4.456151E+03	1.360856E-16	3.797827E-18
4.466054E+03	1.383369E-16	3.837957E-18
4.475957E+03	1.406592E-16	3.881888E-18
4.485859E+03	1.430566E-16	3.929884E-18
4.495762E+03	1.455321E-16	3.982167E-18
4.505664E+03	1.480874E-16	4.038900E-18
4.515567E+03	1.507263E-16	4.100258E-18
4.525469E+03	1.534504E-16	4.166355E-18
4.535372E+03	1.562574E-16	4.237198E-18
4.545274E+03	1.591495E-16	4.312916E-18
4.555177E+03	1.621199E-16	4.393395E-18
4.565080E+03	1.651662E-16	4.478630E-18
4.574982E+03	1.682819E-16	4.568512E-18
4.584885E+03	1.714568E-16	4.662820E-18
4.594787E+03	1.746789E-16	4.761283E-18
4.604690E+03	1.779295E-16	4.863432E-18
4.614592E+03	1.811930E-16	4.968879E-18
4.624495E+03	1.844418E-16	5.076886E-18
4.634398E+03	1.876518E-16	5.186798E-18
4.644300E+03	1.907937E-16	5.297785E-18
4.654203E+03	1.938398E-16	5.409041E-18
4.664105E+03	1.967609E-16	5.519694E-18
4.674008E+03	1.995370E-16	5.629095E-18
4.683910E+03	2.021524E-16	5.736695E-18
4.693813E+03	2.046066E-16	5.842351E-18
4.703715E+03	2.068997E-16	5.945932E-18
4.713618E+03	2.090445E-16	6.047662E-18
4.723521E+03	2.110564E-16	6.147835E-18
4.733423E+03	2.129502E-16	6.246746E-18
4.743326E+03	2.147461E-16	6.344840E-18
4.753228E+03	2.164586E-16	6.442423E-18
4.763131E+03	2.181034E-16	6.539834E-18
4.773033E+03	2.196942E-16	6.637370E-18
4.782936E+03	2.212424E-16	6.735268E-18
4.792838E+03	2.227553E-16	6.833653E-18
4.802741E+03	2.242447E-16	6.932786E-18
4.812644E+03	2.257089E-16	7.032531E-18
4.822546E+03	2.271556E-16	7.133028E-18
4.832449E+03	2.285833E-16	7.234151E-18
4.842351E+03	2.299934E-16	7.335860E-18
4.852254E+03	2.313786E-16	7.437837E-18
4.862156E+03	2.327373E-16	7.539940E-18
4.872059E+03	2.340642E-16	7.641915E-18
4.881961E+03	2.353509E-16	7.743398E-18
4.891864E+03	2.365936E-16	7.844168E-18
4.901767E+03	2.377834E-16	7.943834E-18
4.911669E+03	2.389163E-16	8.042167E-18
4.921572E+03	2.399817E-16	8.138703E-18
4.931474E+03	2.409793E-16	8.233329E-18
4.941377E+03	2.418997E-16	8.325619E-18
4.951279E+03	2.427421E-16	8.415434E-18
4.961182E+03	2.435018E-16	8.502506E-18
4.971085E+03	2.441802E-16	8.586777E-18
4.980987E+03	2.447776E-16	8.668154E-18
4.990890E+03	2.452907E-16	8.746420E-18
5.000792E+03	2.457251E-16	8.821676E-18
5.010695E+03	2.460852E-16	8.893984E-18
5.020597E+03	2.463766E-16	8.963467E-18
5.030500E+03	2.466014E-16	9.030115E-18
5.040402E+03	2.467724E-16	9.094323E-18
5.050305E+03	2.468983E-16	9.156355E-18
5.060208E+03	2.469809E-16	9.216221E-18
5.070110E+03	2.470376E-16	9.274516E-18
5.080013E+03	2.470728E-16	9.331374E-18
5.089915E+03	2.470960E-16	9.387121E-18
5.099818E+03	2.471161E-16	9.442069E-18
5.109720E+03	2.471386E-16	9.496416E-18
5.119623E+03	2.471732E-16	9.550518E-18
5.129525E+03	2.472231E-16	9.604498E-18
5.139428E+03	2.472927E-16	9.658526E-18
5.149331E+03	2.473848E-16	9.712708E-18
5.159233E+03	2.474955E-16	9.766900E-18
5.169136E+03	2.476289E-16	9.821266E-18
5.179038E+03	2.477800E-16	9.875608E-18
5.188941E+03	2.479416E-16	9.929645E-18
5.198843E+03	2.481074E-16	9.983121E-18
5.208746E+03	2.482692E-16	1.003570E-17
5.218648E+03	2.484147E-16	1.008688E-17
5.228551E+03	2.485352E-16	1.013630E-17
5.238454E+03	2.486132E-16	1.018321E-17
5.248356E+03	2.486376E-16	1.022715E-17
5.258259E+03	2.485892E-16	1.026729E-17
5.268161E+03	2.484554E-16	1.030307E-17
5.278064E+03	2.482187E-16	1.033373E-17
5.287966E+03	2.478640E-16	1.035859E-17
5.297869E+03	2.473768E-16	1.037699E-17
5.307772E+03	2.467382E-16	1.038809E-17
5.317674E+03	2.459379E-16	1.039139E-17
5.327577E+03	2.449626E-16	1.038627E-17
5.337479E+03	2.438032E-16	1.037228E-17
5.347382E+03	2.424481E-16	1.034886E-17
5.357284E+03	2.408984E-16	1.031601E-17
5.367187E+03	2.391463E-16	1.027332E-17
5.377089E+03	2.371949E-16	1.022087E-17
5.386992E+03	2.350510E-16	1.015890E-17
5.396895E+03	2.327134E-16	1.008732E-17
5.406797E+03	2.301857E-16	1.000624E-17
5.416700E+03	2.274754E-16	9.915946E-18
5.426602E+03	2.246144E-16	9.817802E-18
5.436505E+03	2.216351E-16	9.713198E-18
5.446407E+03	2.185673E-16	9.603431E-18
5.456310E+03	2.154428E-16	9.489900E-18
5.466212E+03	2.122944E-16	9.374059E-18
5.476115E+03	2.091511E-16	9.257213E-18
5.486018E+03	2.060512E-16	9.141091E-18
5.495920E+03	2.030243E-16	9.027057E-18
5.505823E+03	2.001030E-16	8.916600E-18
5.515725E+03	1.973231E-16	8.811390E-18
5.525628E+03	1.947143E-16	8.712815E-18
5.535530E+03	1.923091E-16	8.622405E-18
5.545433E+03	1.901377E-16	8.541601E-18
5.555335E+03	1.882261E-16	8.471646E-18
5.565238E+03	1.865981E-16	8.413712E-18
5.575141E+03	1.852719E-16	8.368696E-18
5.585043E+03	1.842603E-16	8.337277E-18
5.594946E+03	1.835732E-16	8.319983E-18
5.604848E+03	1.832110E-16	8.316924E-18
5.614751E+03	1.831766E-16	8.328310E-18
5.624653E+03	1.834584E-16	8.353691E-18
5.634556E+03	1.840476E-16	8.392744E-18
5.644459E+03	1.849274E-16	8.444764E-18
5.654361E+03	1.860751E-16	8.508771E-18
5.664264E+03	1.874702E-16	8.583880E-18
5.674166E+03	1.890829E-16	8.668779E-18
5.684069E+03	1.908849E-16	8.762206E-18
5.693971E+03	1.928439E-16	8.862708E-18
5.703874E+03	1.949290E-16	8.968892E-18
5.713776E+03	1.971053E-16	9.079179E-18
5.723679E+03	1.993459E-16	9.192336E-18
5.733582E+03	2.016177E-16	9.306854E-18
5.743484E+03	2.038975E-16	9.421669E-18
5.753387E+03	2.061656E-16	9.535883E-18
5.763289E+03	2.084051E-16	9.648706E-18
5.773192E+03	2.106002E-16	9.759420E-18
5.783094E+03	2.127442E-16	9.867716E-18
5.792997E+03	2.148341E-16	9.973458E-18
5.802899E+03	2.168629E-16	1.007633E-17
5.812802E+03	2.188334E-16	1.017645E-17
5.822705E+03	2.207501E-16	1.027406E-17
5.832607E+03	2.226120E-16	1.036912E-17
5.842510E+03	2.244284E-16	1.046206E-17
5.852412E+03	2.262047E-16	1.055316E-17
5.862315E+03	2.279410E-16	1.064242E-17
5.872217E+03	2.296448E-16	1.073023E-17
5.882120E+03	2.313233E-16	1.081693E-17
5.892022E+03	2.329755E-16	1.090249E-17
5.901925E+03	2.346075E-16	1.098723E-17
5.911828E+03	2.362221E-16	1.107130E-17
5.921730E+03	2.378188E-16	1.115470E-17
5.931633E+03	2.393994E-16	1.123753E-17
5.941535E+03	2.409646E-16	1.131987E-17
5.951438E+03	2.425125E-16	1.140163E-17
5.961340E+03	2.440456E-16	1.148298E-17
5.971243E+03	2.455608E-16	1.156380E-17
5.981146E+03	2.470573E-16	1.164407E-17
5.991048E+03	2.485279E-16	1.172348E-17
6.000951E+03	2.499766E-16	1.180226E-17
6.010853E+03	2.513917E-16	1.187987E-17
6.020756E+03	2.527758E-16	1.195649E-17
6.030658E+03	2.541157E-16	1.203151E-17
6.040561E+03	2.554121E-16	1.210499E-17
6.050463E+03	2.566497E-16	1.217624E-17
6.060366E+03	2.578240E-16	1.224507E-17
6.070269E+03	2.589268E-16	1.231113E-17
6.080171E+03	2.599451E-16	1.237380E-17
6.090074E+03	2.608654E-16	1.243248E-17
6.099976E+03	2.616796E-16	1.248680E-17
6.109879E+03	2.623768E-16	1.253625E-17
6.119781E+03	2.629475E-16	1.258040E-17
6.129684E+03	2.633845E-16	1.261889E-17
6.139586E+03	2.636905E-16	1.265187E-17
6.149489E+03	2.638688E-16	1.267951E-17
6.159392E+03	2.639163E-16	1.270161E-17
6.169294E+03	2.638455E-16	1.271873E-17
6.179197E+03	2.636610E-16	1.273103E-17
6.189099E+03	2.633715E-16	1.273888E-17
6.199002E+03	2.629931E-16	1.274300E-17
6.208904E+03	2.625348E-16	1.274380E-17
6.218807E+03	2.620089E-16	1.274180E-17
6.228709E+03	2.614236E-16	1.273736E-17
6.238612E+03	2.607861E-16	1.273080E-17
6.248515E+03	2.601134E-16	1.272289E-17
6.258417E+03	2.594045E-16	1.271354E-17
6.268320E+03	2.586711E-16	1.270329E-17
6.278222E+03	2.579141E-16	1.269216E-17
6.288125E+03	2.571443E-16	1.268062E-17
6.298027E+03	2.563611E-16	1.266862E-17
6.307930E+03	2.555708E-16	1.265644E-17
6.317833E+03	2.547792E-16	1.264435E-17
6.327735E+03	2.539809E-16	1.263203E-17
6.337638E+03	2.531842E-16	1.261987E-17
6.347540E+03	2.523899E-16	1.260789E-17
6.357443E+03	2.515983E-16	1.259608E-17
6.367345E+03	2.508128E-16	1.258458E-17
6.377248E+03	2.500363E-16	1.257351E-17
6.387150E+03	2.492715E-16	1.256299E-17
6.397053E+03	2.485170E-16	1.255293E-17
6.406956E+03	2.477712E-16	1.254324E-17
6.416858E+03	2.470365E-16	1.253399E-17
6.426761E+03	2.463036E-16	1.252472E-17
6.436663E+03	2.455786E-16	1.251570E-17
6.446566E+03	2.448602E-16	1.250686E-17
6.456468E+03	2.441472E-16	1.249811E-17
6.466371E+03	2.434387E-16	1.248938E-17
6.476273E+03	2.427341E-16	1.248064E-17
6.486176E+03	2.420367E-16	1.247203E-17
6.496079E+03	2.413425E-16	1.246333E-17
6.505981E+03	2.406558E-16	1.245475E-17
6.515884E+03	2.399768E-16	1.244627E-17
6.525786E+03	2.393024E-16	1.243774E-17
6.535689E+03	2.386375E-16	1.242939E-17
6.545591E+03	2.379834E-16	1.242128E-17
6.555494E+03	2.373416E-16	1.241346E-17
6.565396E+03	2.367134E-16	1.240601E-17
6.575299E+03	2.361006E-16	1.239900E-17
6.585202E+03	2.355045E-16	1.239250E-17
6.595104E+03	2.349226E-16	1.238637E-17
6.605007E+03	2.343598E-16	1.238085E-17
6.614909E+03	2.338128E-16	1.237578E-17
6.624812E+03	2.332861E-16	1.237138E-17
6.634714E+03	2.327799E-16	1.236765E-17
6.644617E+03	2.322896E-16	1.236436E-17
6.654520E+03	2.318144E-16	1.236144E-17
6.664422E+03	2.313575E-16	1.235908E-17
6.674325E+03	2.309093E-16	1.235674E-17
6.684227E+03	2.304760E-16	1.235477E-17
6.694130E+03	2.300519E-16	1.235283E-17
6.704032E+03	2.296305E-16	1.235060E-17
6.713935E+03	2.292138E-16	1.234816E-17
6.723837E+03	2.287996E-16	1.234539E-17
6.733740E+03	2.283816E-16	1.234193E-17
6.743643E+03	2.279617E-16	1.233791E-17
6.753545E+03	2.275341E-16	1.233298E-17
6.763448E+03	2.271011E-16	1.232727E-17
6.773350E+03	2.266531E-16	1.232026E-17
6.783253E+03	2.261974E-16	1.231232E-17
6.793155E+03	2.257248E-16	1.230296E-17
6.803058E+03	2.252431E-16	1.229260E-17
6.812960E+03	2.247440E-16	1.228077E-17
6.822863E+03	2.242318E-16	1.226770E-17
6.832766E+03	2.237027E-16	1.225319E-17
6.842668E+03	2.231616E-16	1.223750E-17
6.852571E+03	2.226050E-16	1.222044E-17
6.862473E+03	2.220384E-16	1.220229E-17
6.872376E+03	2.214539E-16	1.218263E-17
6.882278E+03	2.208611E-16	1.216199E-17
6.892181E+03	2.202568E-16	1.214019E-17
6.902083E+03	2.196374E-16	1.211702E-17
6.911986E+03	2.190121E-16	1.209300E-17
6.921889E+03	2.183732E-16	1.206770E-17
6.931791E+03	2.177252E-16	1.204137E-17
6.941694E+03	2.170646E-16	1.201383E-17
6.951596E+03	2.163960E-16	1.198532E-17
6.961499E+03	2.157156E-16	1.195565E-17
6.971401E+03	2.150282E-16	1.192507E-17
6.981304E+03	2.143260E-16	1.189317E-17
6.991207E+03	2.136180E-16	1.186044E-17
7.001109E+03	2.128964E-16	1.182646E-17
7.011012E+03	2.121706E-16	1.179174E-17
7.020914E+03	2.114331E-16	1.175589E-17
7.030817E+03	2.106892E-16	1.171920E-17
7.040719E+03	2.099358E-16	1.168151E-17
7.050622E+03	2.091788E-16	1.164315E-17
7.060524E+03	2.084197E-16	1.160421E-17
7.070427E+03	2.076521E-16	1.156433E-17
7.080330E+03	2.068865E-16	1.152412E-17
7.090232E+03	2.061249E-16	1.148370E-17
7.100135E+03	2.053616E-16	1.144275E-17
7.110037E+03	2.046036E-16	1.140166E-17
7.119940E+03	2.038535E-16	1.136061E-17
7.129842E+03	2.031104E-16	1.131953E-17
7.139745E+03	2.023853E-16	1.127906E-17
7.149647E+03	2.016731E-16	1.123892E-17
7.159550E+03	2.009763E-16	1.119925E-17
7.169453E+03	2.003019E-16	1.116046E-17
7.179355E+03	1.996435E-16	1.112219E-17
7.189258E+03	1.990111E-16	1.108502E-17
7.199160E+03	1.984016E-16	1.104876E-17
7.209063E+03	1.978155E-16	1.101347E-17
7.218965E+03	1.972483E-16	1.097890E-17
7.228868E+03	1.966995E-16	1.094502E-17
7.238770E+03	1.961717E-16	1.091200E-17
7.248673E+03	1.956592E-16	1.087951E-17
7.258576E+03	1.951556E-16	1.084722E-17
7.268478E+03	1.946586E-16	1.081499E-17
7.278381E+03	1.941653E-16	1.078268E-17
7.288283E+03	1.936731E-16	1.075016E-17
7.298186E+03	1.931751E-16	1.071704E-17
7.308088E+03	1.926641E-16	1.068294E-17
7.317991E+03	1.921373E-16	1.064771E-17
7.327894E+03	1.915832E-16	1.061072E-17
7.337796E+03	1.910068E-16	1.057227E-17
7.347699E+03	1.903922E-16	1.053147E-17
7.357601E+03	1.897355E-16	1.048814E-17
7.367504E+03	1.890367E-16	1.044228E-17
7.377406E+03	1.882955E-16	1.039389E-17
7.387309E+03	1.875034E-16	1.034250E-17
7.397211E+03	1.866643E-16	1.028832E-17
7.407114E+03	1.857739E-16	1.023112E-17
7.417017E+03	1.848375E-16	1.017118E-17
7.426919E+03	1.838490E-16	1.010816E-17
7.436822E+03	1.828160E-16	1.004249E-17
7.446724E+03	1.817406E-16	9.974287E-18
7.456627E+03	1.806263E-16	9.903732E-18
7.466529E+03	1.794828E-16	9.831360E-18
7.476432E+03	1.783127E-16	9.757315E-18
7.486334E+03	1.771314E-16	9.682437E-18
7.496237E+03	1.759428E-16	9.606936E-18
7.506140E+03	1.747543E-16	9.531224E-18
7.516042E+03	1.735776E-16	9.455917E-18
7.525945E+03	1.724190E-16	9.381371E-18
7.535847E+03	1.712848E-16	9.307907E-18
7.545750E+03	1.701759E-16	9.235578E-18
7.555652E+03	1.691046E-16	9.165037E-18
7.565555E+03	1.680663E-16	9.096027E-18
7.575457E+03	1.670711E-16	9.029088E-18
7.585360E+03	1.661131E-16	8.963879E-18
7.595263E+03	1.652007E-16	8.900853E-18
7.605165E+03	1.643265E-16	8.839590E-18
7.615068E+03	1.634978E-16	8.780477E-18
7.624970E+03	1.627099E-16	8.723241E-18
7.634873E+03	1.619612E-16	8.667795E-18
7.644775E+03	1.612464E-16	8.613835E-18
7.654678E+03	1.605710E-16	8.561639E-18
7.664581E+03	1.599286E-16	8.510861E-18
7.674483E+03	1.593166E-16	8.461349E-18
7.684386E+03	1.587285E-16	8.412744E-18
