#wls	flux	fluxerr
1.584409E+03	1.328531E-16	3.235691E-17
1.624020E+03	1.379055E-16	3.358686E-17
1.663630E+03	1.424290E-16	3.468790E-17
1.703240E+03	1.463518E-16	3.564255E-17
1.742850E+03	1.495425E-16	3.641881E-17
1.782461E+03	1.519039E-16	3.699303E-17
1.822071E+03	1.532190E-16	3.731238E-17
1.861681E+03	1.533257E-16	3.733736E-17
1.901291E+03	1.520376E-16	3.702264E-17
1.940902E+03	1.491951E-16	3.632938E-17
1.980512E+03	1.448238E-16	3.526384E-17
2.020122E+03	1.391752E-16	3.388729E-17
2.059732E+03	1.328775E-16	3.235275E-17
2.099342E+03	1.268946E-16	3.089487E-17
2.138953E+03	1.221896E-16	2.974817E-17
2.178563E+03	1.192345E-16	2.902751E-17
2.218173E+03	1.177613E-16	2.866758E-17
2.257783E+03	1.169861E-16	2.847755E-17
2.297394E+03	1.160639E-16	2.825168E-17
2.337004E+03	1.144266E-16	2.785170E-17
2.376614E+03	1.117877E-16	2.720791E-17
2.416224E+03	1.081084E-16	2.631093E-17
2.455835E+03	1.034761E-16	2.518204E-17
2.495445E+03	9.806420E-17	2.386350E-17
2.535055E+03	9.205803E-17	2.240046E-17
2.574665E+03	8.565099E-17	2.084000E-17
2.614276E+03	7.901207E-17	1.922329E-17
2.653886E+03	7.229374E-17	1.758743E-17
2.693496E+03	6.562944E-17	1.596490E-17
2.733106E+03	5.912704E-17	1.438196E-17
2.772716E+03	5.287780E-17	1.286080E-17
2.812327E+03	4.695438E-17	1.141910E-17
2.851937E+03	4.141518E-17	1.007105E-17
2.891547E+03	3.630442E-17	8.827394E-18
2.931157E+03	3.165010E-17	7.694918E-18
2.970768E+03	2.746533E-17	6.676790E-18
2.980670E+03	2.649249E-17	6.440119E-18
2.990573E+03	2.554821E-17	6.210403E-18
3.000475E+03	2.463325E-17	5.987821E-18
3.010378E+03	2.374603E-17	5.771996E-18
3.020280E+03	2.288716E-17	5.563072E-18
3.030183E+03	2.205611E-17	5.360918E-18
3.040086E+03	2.125302E-17	5.165573E-18
3.049988E+03	2.047725E-17	4.976874E-18
3.059891E+03	1.973016E-17	4.795158E-18
3.069793E+03	1.900988E-17	4.619966E-18
3.079696E+03	1.831620E-17	4.451247E-18
3.089598E+03	1.764814E-17	4.288764E-18
3.099501E+03	1.700447E-17	4.132216E-18
3.109403E+03	1.638502E-17	3.981561E-18
3.119306E+03	1.578867E-17	3.836528E-18
3.129209E+03	1.521495E-17	3.697002E-18
3.139111E+03	1.466312E-17	3.562801E-18
3.149014E+03	1.413247E-17	3.433755E-18
3.158916E+03	1.362258E-17	3.309760E-18
3.168819E+03	1.313278E-17	3.190652E-18
3.178721E+03	1.266221E-17	3.076223E-18
3.188624E+03	1.221070E-17	2.966433E-18
3.198526E+03	1.177744E-17	2.861079E-18
3.208429E+03	1.136204E-17	2.760073E-18
3.218332E+03	1.096392E-17	2.663270E-18
3.228234E+03	1.058236E-17	2.570495E-18
3.238137E+03	1.021717E-17	2.481701E-18
3.248039E+03	9.867457E-18	2.396672E-18
3.257942E+03	9.533033E-18	2.315362E-18
3.267844E+03	9.213361E-18	2.237640E-18
3.277747E+03	8.907654E-18	2.163314E-18
3.287650E+03	8.615693E-18	2.092331E-18
3.297552E+03	8.336978E-18	2.024569E-18
3.307455E+03	8.070904E-18	1.959881E-18
3.317357E+03	7.817012E-18	1.898156E-18
3.327260E+03	7.574849E-18	1.839282E-18
3.337162E+03	7.343975E-18	1.783153E-18
3.347065E+03	7.123961E-18	1.729665E-18
3.356967E+03	6.914387E-18	1.678715E-18
3.366870E+03	6.714759E-18	1.630183E-18
3.376773E+03	6.524609E-18	1.583956E-18
3.386675E+03	6.343734E-18	1.539983E-18
3.396578E+03	6.171531E-18	1.498118E-18
3.406480E+03	6.007740E-18	1.458298E-18
3.416383E+03	5.851960E-18	1.420425E-18
3.426285E+03	5.703877E-18	1.384423E-18
3.436188E+03	5.563060E-18	1.350187E-18
3.446090E+03	5.429168E-18	1.317634E-18
3.455993E+03	5.301942E-18	1.286701E-18
3.465896E+03	5.181012E-18	1.257298E-18
3.475798E+03	5.066148E-18	1.229369E-18
3.485701E+03	4.956910E-18	1.202807E-18
3.495603E+03	4.853104E-18	1.177565E-18
3.505506E+03	4.754393E-18	1.153561E-18
3.515408E+03	4.660511E-18	1.130731E-18
3.525311E+03	4.571211E-18	1.109014E-18
3.535213E+03	4.486170E-18	1.088331E-18
3.545116E+03	4.405267E-18	1.068654E-18
3.555019E+03	4.328254E-18	1.049922E-18
3.564921E+03	4.254901E-18	1.032078E-18
3.574824E+03	4.185114E-18	1.015102E-18
3.584726E+03	4.118643E-18	9.989303E-19
3.594629E+03	4.055333E-18	9.835266E-19
3.604531E+03	3.995034E-18	9.688542E-19
3.614434E+03	3.937609E-18	9.548798E-19
3.624337E+03	3.882923E-18	9.415704E-19
3.634239E+03	3.830848E-18	9.288951E-19
3.644142E+03	3.781297E-18	9.168329E-19
3.654044E+03	3.734188E-18	9.053634E-19
3.663947E+03	3.689402E-18	8.944578E-19
3.673849E+03	3.646959E-18	8.841210E-19
3.683752E+03	3.606710E-18	8.743169E-19
3.693654E+03	3.568643E-18	8.650422E-19
3.703557E+03	3.532677E-18	8.562772E-19
3.713460E+03	3.498765E-18	8.480107E-19
3.723362E+03	3.466916E-18	8.402447E-19
3.733265E+03	3.436994E-18	8.329463E-19
3.743167E+03	3.409009E-18	8.261175E-19
3.753070E+03	3.382941E-18	8.197535E-19
3.762972E+03	3.358681E-18	8.138282E-19
3.772875E+03	3.336240E-18	8.083437E-19
3.782777E+03	3.315595E-18	8.032945E-19
3.792680E+03	3.296669E-18	7.986620E-19
3.802583E+03	3.279414E-18	7.944345E-19
3.812485E+03	3.263864E-18	7.906201E-19
3.822388E+03	3.249917E-18	7.871939E-19
3.832290E+03	3.237578E-18	7.841572E-19
3.842193E+03	3.226801E-18	7.814988E-19
3.852095E+03	3.217567E-18	7.792140E-19
3.861998E+03	3.209855E-18	7.772975E-19
3.871900E+03	3.203595E-18	7.757326E-19
3.881803E+03	3.198771E-18	7.745148E-19
3.891706E+03	3.195386E-18	7.736456E-19
3.901608E+03	3.193402E-18	7.731149E-19
3.911511E+03	3.192774E-18	7.729122E-19
3.921413E+03	3.193488E-18	7.730341E-19
3.931316E+03	3.195503E-18	7.734702E-19
3.941218E+03	3.198805E-18	7.742174E-19
3.951121E+03	3.203380E-18	7.752722E-19
3.961024E+03	3.209216E-18	7.766314E-19
3.970926E+03	3.216250E-18	7.782800E-19
3.980829E+03	3.224471E-18	7.802150E-19
3.990731E+03	3.233868E-18	7.824338E-19
4.000634E+03	3.244431E-18	7.849341E-19
4.010536E+03	3.256129E-18	7.877080E-19
4.020439E+03	3.268926E-18	7.907469E-19
4.030341E+03	3.282816E-18	7.940491E-19
4.040244E+03	3.297766E-18	7.976068E-19
4.050147E+03	3.313770E-18	8.014184E-19
4.060049E+03	3.330798E-18	8.054767E-19
4.069952E+03	3.348846E-18	8.097804E-19
4.079854E+03	3.367883E-18	8.143221E-19
4.089757E+03	3.387879E-18	8.190944E-19
4.099659E+03	3.408832E-18	8.240968E-19
4.109562E+03	3.430713E-18	8.293223E-19
4.119464E+03	3.453520E-18	8.347701E-19
4.129367E+03	3.477198E-18	8.404271E-19
4.139270E+03	3.501746E-18	8.462928E-19
4.149172E+03	3.527108E-18	8.523538E-19
4.159075E+03	3.553312E-18	8.586168E-19
4.168977E+03	3.580303E-18	8.650682E-19
4.178880E+03	3.608079E-18	8.717078E-19
4.188782E+03	3.636560E-18	8.785160E-19
4.198685E+03	3.665772E-18	8.854988E-19
4.208587E+03	3.695631E-18	8.926361E-19
4.218490E+03	3.726164E-18	8.999344E-19
4.228393E+03	3.757286E-18	9.073732E-19
4.238295E+03	3.788936E-18	9.149376E-19
4.248198E+03	3.821146E-18	9.226350E-19
4.258100E+03	3.853792E-18	9.304359E-19
4.268003E+03	3.886907E-18	9.383479E-19
4.277905E+03	3.920364E-18	9.463403E-19
4.287808E+03	3.954193E-18	9.544203E-19
4.297711E+03	3.988330E-18	9.625727E-19
4.307613E+03	4.022709E-18	9.707811E-19
4.317516E+03	4.057329E-18	9.790453E-19
4.327418E+03	4.092151E-18	9.873561E-19
4.337321E+03	4.127208E-18	9.957214E-19
4.347223E+03	4.162432E-18	1.004124E-18
4.357126E+03	4.197889E-18	1.012581E-18
4.367028E+03	4.233579E-18	1.021092E-18
4.376931E+03	4.269507E-18	1.029658E-18
4.386834E+03	4.305673E-18	1.038279E-18
4.396736E+03	4.342118E-18	1.046964E-18
4.406639E+03	4.378812E-18	1.055707E-18
4.416541E+03	4.415798E-18	1.064518E-18
4.426444E+03	4.453083E-18	1.073398E-18
4.436346E+03	4.490676E-18	1.082350E-18
4.446249E+03	4.528552E-18	1.091367E-18
4.456151E+03	4.566717E-18	1.100451E-18
4.466054E+03	4.605145E-18	1.109596E-18
4.475957E+03	4.643886E-18	1.118813E-18
4.485859E+03	4.682873E-18	1.128086E-18
4.495762E+03	4.722116E-18	1.137419E-18
4.505664E+03	4.761630E-18	1.146813E-18
4.515567E+03	4.801344E-18	1.156253E-18
4.525469E+03	4.841315E-18	1.165752E-18
4.535372E+03	4.881473E-18	1.175292E-18
4.545274E+03	4.921833E-18	1.184878E-18
4.555177E+03	4.962329E-18	1.194494E-18
4.565080E+03	5.003019E-18	1.204153E-18
4.574982E+03	5.043880E-18	1.213850E-18
4.584885E+03	5.084846E-18	1.223569E-18
4.594787E+03	5.125939E-18	1.233315E-18
4.604690E+03	5.167182E-18	1.243094E-18
4.614592E+03	5.208559E-18	1.252901E-18
4.624495E+03	5.250005E-18	1.262722E-18
4.634398E+03	5.291644E-18	1.272586E-18
4.644300E+03	5.333509E-18	1.282500E-18
4.654203E+03	5.375548E-18	1.292453E-18
4.664105E+03	5.417796E-18	1.302452E-18
4.674008E+03	5.460296E-18	1.312508E-18
4.683910E+03	5.502947E-18	1.322597E-18
4.693813E+03	5.545792E-18	1.332728E-18
4.703715E+03	5.588779E-18	1.342890E-18
4.713618E+03	5.631955E-18	1.353093E-18
4.723521E+03	5.675320E-18	1.363338E-18
4.733423E+03	5.718822E-18	1.373612E-18
4.743326E+03	5.762515E-18	1.383928E-18
4.753228E+03	5.806348E-18	1.394273E-18
4.763131E+03	5.850377E-18	1.404661E-18
4.773033E+03	5.894553E-18	1.415080E-18
4.782936E+03	5.938877E-18	1.425530E-18
4.792838E+03	5.983355E-18	1.436013E-18
4.802741E+03	6.028046E-18	1.446543E-18
4.812644E+03	6.072899E-18	1.457107E-18
4.822546E+03	6.117918E-18	1.467707E-18
4.832449E+03	6.163047E-18	1.478329E-18
4.842351E+03	6.208406E-18	1.489001E-18
4.852254E+03	6.253940E-18	1.499711E-18
4.862156E+03	6.299649E-18	1.510457E-18
4.872059E+03	6.345473E-18	1.521227E-18
4.881961E+03	6.391471E-18	1.532034E-18
4.891864E+03	6.437580E-18	1.542862E-18
4.901767E+03	6.483796E-18	1.553712E-18
4.911669E+03	6.530174E-18	1.564595E-18
4.921572E+03	6.576649E-18	1.575496E-18
4.931474E+03	6.623210E-18	1.586413E-18
4.941377E+03	6.669785E-18	1.597328E-18
4.951279E+03	6.716428E-18	1.608255E-18
4.961182E+03	6.763126E-18	1.619189E-18
4.971085E+03	6.809802E-18	1.630113E-18
4.980987E+03	6.856440E-18	1.641022E-18
4.990890E+03	6.903024E-18	1.651913E-18
5.000792E+03	6.949470E-18	1.662766E-18
5.010695E+03	6.995825E-18	1.673591E-18
5.020597E+03	7.042072E-18	1.684386E-18
5.030500E+03	7.088055E-18	1.695111E-18
5.040402E+03	7.133822E-18	1.705780E-18
5.050305E+03	7.179350E-18	1.716386E-18
5.060208E+03	7.224551E-18	1.726907E-18
5.070110E+03	7.269402E-18	1.737340E-18
5.080013E+03	7.313881E-18	1.747678E-18
5.089915E+03	7.357965E-18	1.757917E-18
5.099818E+03	7.401558E-18	1.768032E-18
5.109720E+03	7.444707E-18	1.778035E-18
5.119623E+03	7.487240E-18	1.787886E-18
5.129525E+03	7.529197E-18	1.797593E-18
5.139428E+03	7.570473E-18	1.807133E-18
5.149331E+03	7.611030E-18	1.816494E-18
5.159233E+03	7.650827E-18	1.825669E-18
5.169136E+03	7.689820E-18	1.834646E-18
5.179038E+03	7.727808E-18	1.843378E-18
5.188941E+03	7.764890E-18	1.851889E-18
5.198843E+03	7.800932E-18	1.860146E-18
5.208746E+03	7.835877E-18	1.868135E-18
5.218648E+03	7.869583E-18	1.875824E-18
5.228551E+03	7.901984E-18	1.883197E-18
5.238454E+03	7.933015E-18	1.890237E-18
5.248356E+03	7.962611E-18	1.896931E-18
5.258259E+03	7.990706E-18	1.903262E-18
5.268161E+03	8.017157E-18	1.909196E-18
5.278064E+03	8.042066E-18	1.914758E-18
5.287966E+03	8.065215E-18	1.919897E-18
5.297869E+03	8.086555E-18	1.924600E-18
5.307772E+03	8.106199E-18	1.928895E-18
5.317674E+03	8.123947E-18	1.932734E-18
5.327577E+03	8.139925E-18	1.936148E-18
5.337479E+03	8.154027E-18	1.939112E-18
5.347382E+03	8.166310E-18	1.941639E-18
5.357284E+03	8.176680E-18	1.943708E-18
5.367187E+03	8.185292E-18	1.945355E-18
5.377089E+03	8.192063E-18	1.946561E-18
5.386992E+03	8.197080E-18	1.947347E-18
5.396895E+03	8.200193E-18	1.947678E-18
5.406797E+03	8.201503E-18	1.947577E-18
5.416700E+03	8.200953E-18	1.947032E-18
5.426602E+03	8.198494E-18	1.946030E-18
5.436505E+03	8.194243E-18	1.944602E-18
5.446407E+03	8.188082E-18	1.942717E-18
5.456310E+03	8.179977E-18	1.940369E-18
5.466212E+03	8.169981E-18	1.937571E-18
5.476115E+03	8.157985E-18	1.934297E-18
5.486018E+03	8.144137E-18	1.930582E-18
5.495920E+03	8.128253E-18	1.926383E-18
5.505823E+03	8.110565E-18	1.921756E-18
5.515725E+03	8.091060E-18	1.916697E-18
5.525628E+03	8.069727E-18	1.911205E-18
5.535530E+03	8.046636E-18	1.905296E-18
5.545433E+03	8.021860E-18	1.898987E-18
5.555335E+03	7.995387E-18	1.892277E-18
5.565238E+03	7.967452E-18	1.885221E-18
5.575141E+03	7.937960E-18	1.877796E-18
5.585043E+03	7.907143E-18	1.870059E-18
5.594946E+03	7.874904E-18	1.861986E-18
5.604848E+03	7.841470E-18	1.853632E-18
5.614751E+03	7.806903E-18	1.845010E-18
5.624653E+03	7.771187E-18	1.836119E-18
5.634556E+03	7.734460E-18	1.826989E-18
5.644459E+03	7.696782E-18	1.817637E-18
5.654361E+03	7.658291E-18	1.808094E-18
5.664264E+03	7.619044E-18	1.798375E-18
5.674166E+03	7.579018E-18	1.788473E-18
5.684069E+03	7.538429E-18	1.778440E-18
5.693971E+03	7.497332E-18	1.768290E-18
5.703874E+03	7.455705E-18	1.758017E-18
5.713776E+03	7.413684E-18	1.747653E-18
5.723679E+03	7.371406E-18	1.737231E-18
5.733582E+03	7.328927E-18	1.726764E-18
5.743484E+03	7.286231E-18	1.716248E-18
5.753387E+03	7.243456E-18	1.705717E-18
5.763289E+03	7.200741E-18	1.695201E-18
5.773192E+03	7.158150E-18	1.684718E-18
5.783094E+03	7.115668E-18	1.674263E-18
5.792997E+03	7.073438E-18	1.663870E-18
5.802899E+03	7.031523E-18	1.653554E-18
5.812802E+03	6.990068E-18	1.643348E-18
5.822705E+03	6.949138E-18	1.633269E-18
5.832607E+03	6.908719E-18	1.623312E-18
5.842510E+03	6.868953E-18	1.613511E-18
5.852412E+03	6.829824E-18	1.603862E-18
5.862315E+03	6.791622E-18	1.594434E-18
5.872217E+03	6.754176E-18	1.585185E-18
5.882120E+03	6.717616E-18	1.576146E-18
5.892022E+03	6.682070E-18	1.567348E-18
5.901925E+03	6.647510E-18	1.558783E-18
5.911828E+03	6.613982E-18	1.550462E-18
5.921730E+03	6.581603E-18	1.542412E-18
5.931633E+03	6.550333E-18	1.534624E-18
5.941535E+03	6.520286E-18	1.527123E-18
5.951438E+03	6.491338E-18	1.519882E-18
5.961340E+03	6.463671E-18	1.512942E-18
5.971243E+03	6.437158E-18	1.506273E-18
5.981146E+03	6.411971E-18	1.499916E-18
5.991048E+03	6.387903E-18	1.493821E-18
6.000951E+03	6.365121E-18	1.488028E-18
6.010853E+03	6.343562E-18	1.482521E-18
6.020756E+03	6.323238E-18	1.477303E-18
6.030658E+03	6.304006E-18	1.472340E-18
6.040561E+03	6.286022E-18	1.467670E-18
6.050463E+03	6.269064E-18	1.463238E-18
6.060366E+03	6.253282E-18	1.459081E-18
6.070269E+03	6.238450E-18	1.455145E-18
6.080171E+03	6.224562E-18	1.451429E-18
6.090074E+03	6.211535E-18	1.447913E-18
6.099976E+03	6.199361E-18	1.444595E-18
6.109879E+03	6.187799E-18	1.441419E-18
6.119781E+03	6.176831E-18	1.438380E-18
6.129684E+03	6.166364E-18	1.435457E-18
6.139586E+03	6.156376E-18	1.432644E-18
6.149489E+03	6.146845E-18	1.429937E-18
6.159392E+03	6.137904E-18	1.427365E-18
6.169294E+03	6.129766E-18	1.424979E-18
6.179197E+03	6.122488E-18	1.422792E-18
6.189099E+03	6.116207E-18	1.420834E-18
6.199002E+03	6.111062E-18	1.419139E-18
6.208904E+03	6.107118E-18	1.417721E-18
6.218807E+03	6.104519E-18	1.416613E-18
6.228709E+03	6.103332E-18	1.415830E-18
6.238612E+03	6.103625E-18	1.415387E-18
6.248515E+03	6.105554E-18	1.415322E-18
6.258417E+03	6.109112E-18	1.415630E-18
6.268320E+03	6.114461E-18	1.416350E-18
6.278222E+03	6.121511E-18	1.417461E-18
6.288125E+03	6.130348E-18	1.418981E-18
6.298027E+03	6.140969E-18	1.420909E-18
6.307930E+03	6.153463E-18	1.423267E-18
6.317833E+03	6.167746E-18	1.426033E-18
6.327735E+03	6.183821E-18	1.429207E-18
6.337638E+03	6.201602E-18	1.432771E-18
6.347540E+03	6.220913E-18	1.436682E-18
6.357443E+03	6.241658E-18	1.440917E-18
6.367345E+03	6.263837E-18	1.445477E-18
6.377248E+03	6.287444E-18	1.450360E-18
6.387150E+03	6.312479E-18	1.455565E-18
6.397053E+03	6.339032E-18	1.461112E-18
6.406956E+03	6.367202E-18	1.467024E-18
6.416858E+03	6.396993E-18	1.473302E-18
6.426761E+03	6.428314E-18	1.479923E-18
6.436663E+03	6.461365E-18	1.486934E-18
6.446566E+03	6.496159E-18	1.494337E-18
6.456468E+03	6.532605E-18	1.502110E-18
6.466371E+03	6.570813E-18	1.510278E-18
6.476273E+03	6.610799E-18	1.518845E-18
6.486176E+03	6.652469E-18	1.527788E-18
6.496079E+03	6.695839E-18	1.537110E-18
6.505981E+03	6.741132E-18	1.546863E-18
6.515884E+03	6.788045E-18	1.556975E-18
6.525786E+03	6.836806E-18	1.567499E-18
6.535689E+03	6.887436E-18	1.578438E-18
6.545591E+03	6.939727E-18	1.589745E-18
6.555494E+03	6.993918E-18	1.601474E-18
6.565396E+03	7.049800E-18	1.613576E-18
6.575299E+03	7.107620E-18	1.626108E-18
6.585202E+03	7.167164E-18	1.639018E-18
6.595104E+03	7.228563E-18	1.652338E-18
6.605007E+03	7.291839E-18	1.666072E-18
6.614909E+03	7.356887E-18	1.680194E-18
6.624812E+03	7.423723E-18	1.694708E-18
6.634714E+03	7.492492E-18	1.709646E-18
6.644617E+03	7.563084E-18	1.724982E-18
6.654520E+03	7.635520E-18	1.740721E-18
6.664422E+03	7.709816E-18	1.756866E-18
6.674325E+03	7.785993E-18	1.773421E-18
6.684227E+03	7.864069E-18	1.790388E-18
6.694130E+03	7.944067E-18	1.807774E-18
6.704032E+03	8.025863E-18	1.825548E-18
6.713935E+03	8.109619E-18	1.843747E-18
6.723837E+03	8.195357E-18	1.862375E-18
6.733740E+03	8.282951E-18	1.881404E-18
6.743643E+03	8.372569E-18	1.900869E-18
6.753545E+03	8.464083E-18	1.920743E-18
6.763448E+03	8.557509E-18	1.941026E-18
6.773350E+03	8.652868E-18	1.961725E-18
6.783253E+03	8.750176E-18	1.982840E-18
6.793155E+03	8.849617E-18	2.004414E-18
6.803058E+03	8.950886E-18	2.026377E-18
6.812960E+03	9.054162E-18	2.048768E-18
6.822863E+03	9.159465E-18	2.071591E-18
6.832766E+03	9.266643E-18	2.094810E-18
6.842668E+03	9.375884E-18	2.118469E-18
6.852571E+03	9.487209E-18	2.142570E-18
6.862473E+03	9.600454E-18	2.167076E-18
6.872376E+03	9.715634E-18	2.191989E-18
6.882278E+03	9.832944E-18	2.217353E-18
6.892181E+03	9.952218E-18	2.243129E-18
6.902083E+03	1.007346E-17	2.269318E-18
6.911986E+03	1.019669E-17	2.295923E-18
6.921889E+03	1.032191E-17	2.322944E-18
6.931791E+03	1.044894E-17	2.350337E-18
6.941694E+03	1.057817E-17	2.378195E-18
6.951596E+03	1.070921E-17	2.406425E-18
6.961499E+03	1.084228E-17	2.435075E-18
6.971401E+03	1.097715E-17	2.464097E-18
6.981304E+03	1.111384E-17	2.493490E-18
6.991207E+03	1.125256E-17	2.523302E-18
7.001109E+03	1.139308E-17	2.553482E-18
7.011012E+03	1.153517E-17	2.583977E-18
7.020914E+03	1.167928E-17	2.614885E-18
7.030817E+03	1.182518E-17	2.646158E-18
7.040719E+03	1.197262E-17	2.677734E-18
7.050622E+03	1.212181E-17	2.709663E-18
7.060524E+03	1.227250E-17	2.741889E-18
7.070427E+03	1.242493E-17	2.774461E-18
7.080330E+03	1.257881E-17	2.807318E-18
7.090232E+03	1.273439E-17	2.840510E-18
7.100135E+03	1.289112E-17	2.873919E-18
7.110037E+03	1.304921E-17	2.907589E-18
7.119940E+03	1.320893E-17	2.941579E-18
7.129842E+03	1.336968E-17	2.975756E-18
7.139745E+03	1.353143E-17	3.010113E-18
7.149647E+03	1.369442E-17	3.044700E-18
7.159550E+03	1.385859E-17	3.079507E-18
7.169453E+03	1.402361E-17	3.114458E-18
7.179355E+03	1.418976E-17	3.149613E-18
7.189258E+03	1.435663E-17	3.184887E-18
7.199160E+03	1.452420E-17	3.220268E-18
7.209063E+03	1.469271E-17	3.255810E-18
7.218965E+03	1.486178E-17	3.291434E-18
7.228868E+03	1.503167E-17	3.327191E-18
7.238770E+03	1.520198E-17	3.362996E-18
7.248673E+03	1.537266E-17	3.398836E-18
7.258576E+03	1.554429E-17	3.434839E-18
7.268478E+03	1.571615E-17	3.470846E-18
7.278381E+03	1.588885E-17	3.506993E-18
7.288283E+03	1.606200E-17	3.543190E-18
7.298186E+03	1.623587E-17	3.579501E-18
7.308088E+03	1.641083E-17	3.616003E-18
7.317991E+03	1.658645E-17	3.652603E-18
7.327894E+03	1.676346E-17	3.689461E-18
7.337796E+03	1.694186E-17	3.726575E-18
7.347699E+03	1.712203E-17	3.764030E-18
7.357601E+03	1.730399E-17	3.801831E-18
7.367504E+03	1.748778E-17	3.839982E-18
7.377406E+03	1.767381E-17	3.878578E-18
7.387309E+03	1.786133E-17	3.917446E-18
7.397211E+03	1.805033E-17	3.956592E-18
7.407114E+03	1.824044E-17	3.995925E-18
7.417017E+03	1.843206E-17	4.035541E-18
7.426919E+03	1.862480E-17	4.075350E-18
7.436822E+03	1.881824E-17	4.115259E-18
7.446724E+03	1.901237E-17	4.155267E-18
7.456627E+03	1.920720E-17	4.195376E-18
7.466529E+03	1.940227E-17	4.235485E-18
7.476432E+03	1.959803E-17	4.275693E-18
7.486334E+03	1.979354E-17	4.315794E-18
7.496237E+03	1.998974E-17	4.355994E-18
7.506140E+03	2.018614E-17	4.396184E-18
7.516042E+03	2.038271E-17	4.436361E-18
7.525945E+03	2.057893E-17	4.476406E-18
7.535847E+03	2.077525E-17	4.516426E-18
7.545750E+03	2.097162E-17	4.556402E-18
7.555652E+03	2.116799E-17	4.596327E-18
7.565555E+03	2.136375E-17	4.636071E-18
7.575457E+03	2.155933E-17	4.675722E-18
7.585360E+03	2.175409E-17	4.715147E-18
7.595263E+03	2.194899E-17	4.754552E-18
7.605165E+03	2.214226E-17	4.793552E-18
7.615068E+03	2.233538E-17	4.832472E-18
7.624970E+03	2.252766E-17	4.871161E-18
7.634873E+03	2.271836E-17	4.909459E-18
7.644775E+03	2.290784E-17	4.947446E-18
7.654678E+03	2.309591E-17	4.985082E-18
7.664581E+03	2.328236E-17	5.022322E-18
7.674483E+03	2.346699E-17	5.059121E-18
7.684386E+03	2.365017E-17	5.095564E-18
