#wls	flux	fluxerr
1.584409E+03	1.486773E-16	4.758473E-17
1.624020E+03	1.548052E-16	4.954528E-17
1.663630E+03	1.604096E-16	5.133820E-17
1.703240E+03	1.653935E-16	5.293248E-17
1.742850E+03	1.696381E-16	5.429009E-17
1.782461E+03	1.729806E-16	5.535890E-17
1.822071E+03	1.751975E-16	5.606747E-17
1.861681E+03	1.760754E-16	5.634748E-17
1.901291E+03	1.753835E-16	5.612510E-17
1.940902E+03	1.729282E-16	5.533840E-17
1.980512E+03	1.686973E-16	5.398348E-17
2.020122E+03	1.629541E-16	5.214468E-17
2.059732E+03	1.564089E-16	5.004930E-17
2.099342E+03	1.502035E-16	4.806270E-17
2.138953E+03	1.454679E-16	4.654645E-17
2.178563E+03	1.428090E-16	4.569474E-17
2.218173E+03	1.419509E-16	4.541922E-17
2.257783E+03	1.419013E-16	4.540237E-17
2.297394E+03	1.416988E-16	4.533657E-17
2.337004E+03	1.406185E-16	4.498993E-17
2.376614E+03	1.382651E-16	4.423596E-17
2.416224E+03	1.345297E-16	4.303982E-17
2.455835E+03	1.294966E-16	4.142860E-17
2.495445E+03	1.233445E-16	3.945944E-17
2.535055E+03	1.162840E-16	3.719972E-17
2.574665E+03	1.085422E-16	3.472218E-17
2.614276E+03	1.003363E-16	3.209629E-17
2.653886E+03	9.186718E-17	2.938633E-17
2.693496E+03	8.331770E-17	2.665078E-17
2.733106E+03	7.485663E-17	2.394365E-17
2.772716E+03	6.662198E-17	2.130908E-17
2.812327E+03	5.873614E-17	1.878622E-17
2.851937E+03	5.130675E-17	1.640949E-17
2.891547E+03	4.442028E-17	1.420653E-17
2.931157E+03	3.814304E-17	1.219854E-17
2.970768E+03	3.251327E-17	1.039773E-17
2.980670E+03	3.120840E-17	9.980347E-18
2.990573E+03	2.994448E-17	9.576068E-18
3.000475E+03	2.872177E-17	9.184975E-18
3.010378E+03	2.753975E-17	8.806896E-18
3.020280E+03	2.639783E-17	8.441650E-18
3.030183E+03	2.529595E-17	8.089216E-18
3.040086E+03	2.423320E-17	7.749296E-18
3.049988E+03	2.321076E-17	7.422276E-18
3.059891E+03	2.222808E-17	7.107973E-18
3.069793E+03	2.128425E-17	6.806099E-18
3.079696E+03	2.037797E-17	6.516236E-18
3.089598E+03	1.950837E-17	6.238109E-18
3.099501E+03	1.867419E-17	5.971311E-18
3.109403E+03	1.787427E-17	5.715475E-18
3.119306E+03	1.710780E-17	5.470337E-18
3.129209E+03	1.637332E-17	5.235435E-18
3.139111E+03	1.567040E-17	5.010625E-18
3.149014E+03	1.499761E-17	4.795456E-18
3.158916E+03	1.435423E-17	4.589693E-18
3.168819E+03	1.373919E-17	4.392996E-18
3.178721E+03	1.315150E-17	4.205044E-18
3.188624E+03	1.259039E-17	4.025596E-18
3.198526E+03	1.205486E-17	3.854331E-18
3.208429E+03	1.154376E-17	3.690880E-18
3.218332E+03	1.105672E-17	3.535126E-18
3.228234E+03	1.059226E-17	3.386592E-18
3.238137E+03	1.015000E-17	3.245157E-18
3.248039E+03	9.728701E-18	3.110429E-18
3.257942E+03	9.327676E-18	2.982185E-18
3.267844E+03	8.946210E-18	2.860196E-18
3.277747E+03	8.583205E-18	2.744111E-18
3.287650E+03	8.238128E-18	2.633761E-18
3.297552E+03	7.910191E-18	2.528892E-18
3.307455E+03	7.598518E-18	2.429225E-18
3.317357E+03	7.302392E-18	2.334530E-18
3.327260E+03	7.021115E-18	2.244584E-18
3.337162E+03	6.754109E-18	2.159201E-18
3.347065E+03	6.500536E-18	2.078115E-18
3.356967E+03	6.259952E-18	2.001183E-18
3.366870E+03	6.031588E-18	1.928159E-18
3.376773E+03	5.814881E-18	1.858862E-18
3.386675E+03	5.609357E-18	1.793142E-18
3.396578E+03	5.414285E-18	1.730765E-18
3.406480E+03	5.229313E-18	1.671617E-18
3.416383E+03	5.053902E-18	1.615527E-18
3.426285E+03	4.887428E-18	1.562294E-18
3.436188E+03	4.729598E-18	1.511826E-18
3.446090E+03	4.579845E-18	1.463941E-18
3.455993E+03	4.437805E-18	1.418522E-18
3.465896E+03	4.303077E-18	1.375441E-18
3.475798E+03	4.175150E-18	1.334535E-18
3.485701E+03	4.053730E-18	1.295709E-18
3.495603E+03	3.938407E-18	1.258833E-18
3.505506E+03	3.828806E-18	1.223787E-18
3.515408E+03	3.724619E-18	1.190472E-18
3.525311E+03	3.625479E-18	1.158771E-18
3.535213E+03	3.531090E-18	1.128589E-18
3.545116E+03	3.441139E-18	1.099827E-18
3.555019E+03	3.355404E-18	1.072412E-18
3.564921E+03	3.273645E-18	1.046268E-18
3.574824E+03	3.195604E-18	1.021313E-18
3.584726E+03	3.121101E-18	9.974902E-19
3.594629E+03	3.049968E-18	9.747442E-19
3.604531E+03	2.981982E-18	9.530049E-19
3.614434E+03	2.917078E-18	9.322506E-19
3.624337E+03	2.855049E-18	9.124157E-19
3.634239E+03	2.795806E-18	8.934715E-19
3.644142E+03	2.739235E-18	8.753815E-19
3.654044E+03	2.685224E-18	8.581103E-19
3.663947E+03	2.633688E-18	8.416302E-19
3.673849E+03	2.584564E-18	8.259212E-19
3.683752E+03	2.537700E-18	8.109350E-19
3.693654E+03	2.493084E-18	7.966672E-19
3.703557E+03	2.450590E-18	7.830777E-19
3.713460E+03	2.410160E-18	7.701483E-19
3.723362E+03	2.371736E-18	7.578600E-19
3.733265E+03	2.335204E-18	7.461767E-19
3.743167E+03	2.300548E-18	7.350930E-19
3.753070E+03	2.267675E-18	7.245792E-19
3.762972E+03	2.236534E-18	7.146192E-19
3.772875E+03	2.207056E-18	7.051907E-19
3.782777E+03	2.179192E-18	6.962782E-19
3.792680E+03	2.152878E-18	6.878609E-19
3.802583E+03	2.128068E-18	6.799243E-19
3.812485E+03	2.104700E-18	6.724487E-19
3.822388E+03	2.082749E-18	6.654262E-19
3.832290E+03	2.062158E-18	6.588381E-19
3.842193E+03	2.042872E-18	6.526670E-19
3.852095E+03	2.024852E-18	6.469005E-19
3.861998E+03	2.008047E-18	6.415225E-19
3.871900E+03	1.992440E-18	6.365269E-19
3.881803E+03	1.977979E-18	6.318979E-19
3.891706E+03	1.964634E-18	6.276254E-19
3.901608E+03	1.952360E-18	6.236952E-19
3.911511E+03	1.941113E-18	6.200930E-19
3.921413E+03	1.930896E-18	6.168197E-19
3.931316E+03	1.921636E-18	6.138525E-19
3.941218E+03	1.913325E-18	6.111884E-19
3.951121E+03	1.905923E-18	6.088144E-19
3.961024E+03	1.899407E-18	6.067238E-19
3.970926E+03	1.893756E-18	6.049093E-19
3.980829E+03	1.888921E-18	6.033557E-19
3.990731E+03	1.884895E-18	6.020603E-19
4.000634E+03	1.881647E-18	6.010134E-19
4.010536E+03	1.879160E-18	6.002094E-19
4.020439E+03	1.877399E-18	5.996375E-19
4.030341E+03	1.876337E-18	5.992888E-19
4.040244E+03	1.875974E-18	5.991630E-19
4.050147E+03	1.876265E-18	5.992463E-19
4.060049E+03	1.877197E-18	5.995343E-19
4.069952E+03	1.878760E-18	6.000236E-19
4.079854E+03	1.880910E-18	6.007006E-19
4.089757E+03	1.883654E-18	6.015669E-19
4.099659E+03	1.886953E-18	6.026103E-19
4.109562E+03	1.890793E-18	6.038266E-19
4.119464E+03	1.895170E-18	6.052143E-19
4.129367E+03	1.900044E-18	6.067605E-19
4.139270E+03	1.905423E-18	6.084677E-19
4.149172E+03	1.911254E-18	6.103195E-19
4.159075E+03	1.917564E-18	6.123237E-19
4.168977E+03	1.924299E-18	6.144637E-19
4.178880E+03	1.931452E-18	6.167372E-19
4.188782E+03	1.939008E-18	6.191390E-19
4.198685E+03	1.946958E-18	6.216665E-19
4.208587E+03	1.955254E-18	6.243045E-19
4.218490E+03	1.963907E-18	6.270562E-19
4.228393E+03	1.972883E-18	6.299107E-19
4.238295E+03	1.982147E-18	6.328574E-19
4.248198E+03	1.991695E-18	6.358942E-19
4.258100E+03	2.001510E-18	6.390162E-19
4.268003E+03	2.011540E-18	6.422067E-19
4.277905E+03	2.021766E-18	6.454596E-19
4.287808E+03	2.032168E-18	6.487685E-19
4.297711E+03	2.042727E-18	6.521273E-19
4.307613E+03	2.053423E-18	6.555294E-19
4.317516E+03	2.064252E-18	6.589741E-19
4.327418E+03	2.075194E-18	6.624548E-19
4.337321E+03	2.086230E-18	6.659648E-19
4.347223E+03	2.097388E-18	6.695140E-19
4.357126E+03	2.108651E-18	6.730962E-19
4.367028E+03	2.120016E-18	6.767109E-19
4.376931E+03	2.131498E-18	6.803628E-19
4.386834E+03	2.143098E-18	6.840520E-19
4.396736E+03	2.154798E-18	6.877729E-19
4.406639E+03	2.166617E-18	6.915316E-19
4.416541E+03	2.178537E-18	6.953222E-19
4.426444E+03	2.190563E-18	6.991465E-19
4.436346E+03	2.202696E-18	7.030047E-19
4.446249E+03	2.214904E-18	7.068869E-19
4.456151E+03	2.227212E-18	7.108004E-19
4.466054E+03	2.239607E-18	7.147416E-19
4.475957E+03	2.252076E-18	7.187060E-19
4.485859E+03	2.264627E-18	7.226963E-19
4.495762E+03	2.277231E-18	7.267035E-19
4.505664E+03	2.289898E-18	7.307304E-19
4.515567E+03	2.302638E-18	7.347805E-19
4.525469E+03	2.315445E-18	7.388514E-19
4.535372E+03	2.328291E-18	7.429346E-19
4.545274E+03	2.341190E-18	7.470344E-19
4.555177E+03	2.354138E-18	7.511498E-19
4.565080E+03	2.367129E-18	7.552785E-19
4.574982E+03	2.380180E-18	7.594260E-19
4.584885E+03	2.393268E-18	7.635854E-19
4.594787E+03	2.406414E-18	7.677625E-19
4.604690E+03	2.419614E-18	7.719569E-19
4.614592E+03	2.432869E-18	7.761684E-19
4.624495E+03	2.446179E-18	7.803974E-19
4.634398E+03	2.459547E-18	7.846442E-19
4.644300E+03	2.472971E-18	7.889088E-19
4.654203E+03	2.486499E-18	7.932063E-19
4.664105E+03	2.500136E-18	7.975381E-19
4.674008E+03	2.513886E-18	8.019058E-19
4.683910E+03	2.527798E-18	8.063248E-19
4.693813E+03	2.541857E-18	8.107904E-19
4.703715E+03	2.556068E-18	8.153043E-19
4.713618E+03	2.570464E-18	8.198768E-19
4.723521E+03	2.585054E-18	8.245106E-19
4.733423E+03	2.599821E-18	8.292009E-19
4.743326E+03	2.614799E-18	8.339578E-19
4.753228E+03	2.629998E-18	8.387851E-19
4.763131E+03	2.645404E-18	8.436782E-19
4.773033E+03	2.661053E-18	8.486479E-19
4.782936E+03	2.676955E-18	8.536982E-19
4.792838E+03	2.693122E-18	8.588327E-19
4.802741E+03	2.709567E-18	8.640554E-19
4.812644E+03	2.726277E-18	8.693626E-19
4.822546E+03	2.743317E-18	8.747742E-19
4.832449E+03	2.760650E-18	8.802787E-19
4.842351E+03	2.778286E-18	8.858798E-19
4.852254E+03	2.796268E-18	8.915907E-19
4.862156E+03	2.814610E-18	8.974158E-19
4.872059E+03	2.833325E-18	9.033593E-19
4.881961E+03	2.852375E-18	9.094096E-19
4.891864E+03	2.871829E-18	9.155878E-19
4.901767E+03	2.891674E-18	9.218902E-19
4.911669E+03	2.911922E-18	9.283211E-19
4.921572E+03	2.932590E-18	9.348848E-19
4.931474E+03	2.953690E-18	9.415862E-19
4.941377E+03	2.975208E-18	9.484201E-19
4.951279E+03	2.997160E-18	9.553916E-19
4.961182E+03	3.019582E-18	9.625128E-19
4.971085E+03	3.042462E-18	9.697792E-19
4.980987E+03	3.065780E-18	9.771847E-19
4.990890E+03	3.089608E-18	9.847522E-19
5.000792E+03	3.113868E-18	9.924568E-19
5.010695E+03	3.138626E-18	1.000320E-18
5.020597E+03	3.163898E-18	1.008346E-18
5.030500E+03	3.189597E-18	1.016507E-18
5.040402E+03	3.215825E-18	1.024836E-18
5.050305E+03	3.242528E-18	1.033316E-18
5.060208E+03	3.269711E-18	1.041949E-18
5.070110E+03	3.297415E-18	1.050747E-18
5.080013E+03	3.325582E-18	1.059691E-18
5.089915E+03	3.354214E-18	1.068783E-18
5.099818E+03	3.383347E-18	1.078034E-18
5.109720E+03	3.412956E-18	1.087436E-18
5.119623E+03	3.443038E-18	1.096988E-18
5.129525E+03	3.473566E-18	1.106681E-18
5.139428E+03	3.504570E-18	1.116525E-18
5.149331E+03	3.535984E-18	1.126499E-18
5.159233E+03	3.567872E-18	1.136623E-18
5.169136E+03	3.600199E-18	1.146886E-18
5.179038E+03	3.632925E-18	1.157275E-18
5.188941E+03	3.666043E-18	1.167789E-18
5.198843E+03	3.699583E-18	1.178436E-18
5.208746E+03	3.733464E-18	1.189190E-18
5.218648E+03	3.767711E-18	1.200060E-18
5.228551E+03	3.802348E-18	1.211054E-18
5.238454E+03	3.837255E-18	1.222133E-18
5.248356E+03	3.872524E-18	1.233326E-18
5.258259E+03	3.908027E-18	1.244593E-18
5.268161E+03	3.943861E-18	1.255964E-18
5.278064E+03	3.979889E-18	1.267396E-18
5.287966E+03	4.016167E-18	1.278906E-18
5.297869E+03	4.052673E-18	1.290488E-18
5.307772E+03	4.089341E-18	1.302121E-18
5.317674E+03	4.126228E-18	1.313822E-18
5.327577E+03	4.163184E-18	1.325545E-18
5.337479E+03	4.200301E-18	1.337317E-18
5.347382E+03	4.237510E-18	1.349118E-18
5.357284E+03	4.274778E-18	1.360937E-18
5.367187E+03	4.312074E-18	1.372763E-18
5.377089E+03	4.349362E-18	1.384585E-18
5.386992E+03	4.386563E-18	1.396379E-18
5.396895E+03	4.423638E-18	1.408132E-18
5.406797E+03	4.460545E-18	1.419830E-18
5.416700E+03	4.497245E-18	1.431461E-18
5.426602E+03	4.533646E-18	1.442996E-18
5.436505E+03	4.569657E-18	1.454406E-18
5.446407E+03	4.605276E-18	1.465689E-18
5.456310E+03	4.640405E-18	1.476816E-18
5.466212E+03	4.674947E-18	1.487755E-18
5.476115E+03	4.708797E-18	1.498472E-18
5.486018E+03	4.741948E-18	1.508966E-18
5.495920E+03	4.774245E-18	1.519188E-18
5.505823E+03	4.805680E-18	1.529133E-18
5.515725E+03	4.836093E-18	1.538753E-18
5.525628E+03	4.865422E-18	1.548026E-18
5.535530E+03	4.893656E-18	1.556950E-18
5.545433E+03	4.920635E-18	1.565475E-18
5.555335E+03	4.946346E-18	1.573594E-18
5.565238E+03	4.970730E-18	1.581290E-18
5.575141E+03	4.993677E-18	1.588529E-18
5.585043E+03	5.015131E-18	1.595291E-18
5.594946E+03	5.035087E-18	1.601577E-18
5.604848E+03	5.053493E-18	1.607368E-18
5.614751E+03	5.070248E-18	1.612634E-18
5.624653E+03	5.085357E-18	1.617375E-18
5.634556E+03	5.098833E-18	1.621596E-18
5.644459E+03	5.110530E-18	1.625251E-18
5.654361E+03	5.120466E-18	1.628345E-18
5.664264E+03	5.128667E-18	1.630887E-18
5.674166E+03	5.135105E-18	1.632867E-18
5.684069E+03	5.139762E-18	1.634281E-18
5.693971E+03	5.142622E-18	1.635123E-18
5.703874E+03	5.143675E-18	1.635390E-18
5.713776E+03	5.142971E-18	1.635098E-18
5.723679E+03	5.140457E-18	1.634230E-18
5.733582E+03	5.136247E-18	1.632823E-18
5.743484E+03	5.130296E-18	1.630862E-18
5.753387E+03	5.122624E-18	1.628354E-18
5.763289E+03	5.113362E-18	1.625340E-18
5.773192E+03	5.102425E-18	1.621794E-18
5.783094E+03	5.089901E-18	1.617744E-18
5.792997E+03	5.075884E-18	1.613218E-18
5.802899E+03	5.060359E-18	1.608214E-18
5.812802E+03	5.043430E-18	1.602764E-18
5.822705E+03	5.025091E-18	1.596865E-18
5.832607E+03	5.005507E-18	1.590572E-18
5.842510E+03	4.984684E-18	1.583884E-18
5.852412E+03	4.962680E-18	1.576822E-18
5.862315E+03	4.939617E-18	1.569423E-18
5.872217E+03	4.915505E-18	1.561692E-18
5.882120E+03	4.890468E-18	1.553667E-18
5.892022E+03	4.864520E-18	1.545353E-18
5.901925E+03	4.837787E-18	1.536789E-18
5.911828E+03	4.810342E-18	1.528001E-18
5.921730E+03	4.782252E-18	1.519008E-18
5.931633E+03	4.753536E-18	1.509816E-18
5.941535E+03	4.724316E-18	1.500465E-18
5.951438E+03	4.694665E-18	1.490977E-18
5.961340E+03	4.664593E-18	1.481357E-18
5.971243E+03	4.634224E-18	1.471643E-18
5.981146E+03	4.603567E-18	1.461837E-18
5.991048E+03	4.572630E-18	1.451944E-18
6.000951E+03	4.541582E-18	1.442016E-18
6.010853E+03	4.510375E-18	1.432038E-18
6.020756E+03	4.479121E-18	1.422046E-18
6.030658E+03	4.447765E-18	1.412022E-18
6.040561E+03	4.416413E-18	1.401999E-18
6.050463E+03	4.385062E-18	1.391978E-18
6.060366E+03	4.353758E-18	1.381973E-18
6.070269E+03	4.322549E-18	1.371998E-18
6.080171E+03	4.291420E-18	1.362049E-18
6.090074E+03	4.260415E-18	1.352141E-18
6.099976E+03	4.229571E-18	1.342284E-18
6.109879E+03	4.198921E-18	1.332489E-18
6.119781E+03	4.168499E-18	1.322768E-18
6.129684E+03	4.138283E-18	1.313112E-18
6.139586E+03	4.108353E-18	1.303548E-18
6.149489E+03	4.078735E-18	1.294083E-18
6.159392E+03	4.049451E-18	1.284726E-18
6.169294E+03	4.020577E-18	1.275499E-18
6.179197E+03	3.992181E-18	1.266424E-18
6.189099E+03	3.964335E-18	1.257524E-18
6.199002E+03	3.937103E-18	1.248820E-18
6.208904E+03	3.910553E-18	1.240332E-18
6.218807E+03	3.884799E-18	1.232098E-18
6.228709E+03	3.859797E-18	1.224103E-18
6.238612E+03	3.835768E-18	1.216417E-18
6.248515E+03	3.812665E-18	1.209025E-18
6.258417E+03	3.790598E-18	1.201962E-18
6.268320E+03	3.769625E-18	1.195247E-18
6.278222E+03	3.749805E-18	1.188897E-18
6.288125E+03	3.731141E-18	1.182914E-18
6.298027E+03	3.713689E-18	1.177316E-18
6.307930E+03	3.697508E-18	1.172121E-18
6.317833E+03	3.682599E-18	1.167330E-18
6.327735E+03	3.668968E-18	1.162944E-18
6.337638E+03	3.656671E-18	1.158981E-18
6.347540E+03	3.645605E-18	1.155409E-18
6.357443E+03	3.635775E-18	1.152228E-18
6.367345E+03	3.627129E-18	1.149423E-18
6.377248E+03	3.619565E-18	1.146960E-18
6.387150E+03	3.613137E-18	1.144858E-18
6.397053E+03	3.607740E-18	1.143082E-18
6.406956E+03	3.603430E-18	1.141650E-18
6.416858E+03	3.600211E-18	1.140564E-18
6.426761E+03	3.598029E-18	1.139806E-18
6.436663E+03	3.596888E-18	1.139378E-18
6.446566E+03	3.596788E-18	1.139279E-18
6.456468E+03	3.597732E-18	1.139511E-18
6.466371E+03	3.599723E-18	1.140074E-18
6.476273E+03	3.602821E-18	1.140987E-18
6.486176E+03	3.606971E-18	1.142234E-18
6.496079E+03	3.612121E-18	1.143796E-18
6.505981E+03	3.618386E-18	1.145711E-18
6.515884E+03	3.625658E-18	1.147944E-18
6.525786E+03	3.633995E-18	1.150514E-18
6.535689E+03	3.643403E-18	1.153422E-18
6.545591E+03	3.653888E-18	1.156671E-18
6.555494E+03	3.665451E-18	1.160260E-18
6.565396E+03	3.678040E-18	1.164173E-18
6.575299E+03	3.691717E-18	1.168430E-18
6.585202E+03	3.706428E-18	1.173013E-18
6.595104E+03	3.722241E-18	1.177944E-18
6.605007E+03	3.739096E-18	1.183204E-18
6.614909E+03	3.757002E-18	1.188796E-18
6.624812E+03	3.776025E-18	1.194740E-18
6.634714E+03	3.796175E-18	1.201040E-18
6.644617E+03	3.817328E-18	1.207656E-18
6.654520E+03	3.839621E-18	1.214631E-18
6.664422E+03	3.862929E-18	1.221926E-18
6.674325E+03	3.887391E-18	1.229585E-18
6.684227E+03	3.912949E-18	1.237590E-18
6.694130E+03	3.939543E-18	1.245921E-18
6.704032E+03	3.967315E-18	1.254623E-18
6.713935E+03	3.996137E-18	1.263655E-18
6.723837E+03	4.026084E-18	1.273042E-18
6.733740E+03	4.057166E-18	1.282786E-18
6.743643E+03	4.089392E-18	1.292890E-18
6.753545E+03	4.122697E-18	1.303334E-18
6.763448E+03	4.157160E-18	1.314143E-18
6.773350E+03	4.192720E-18	1.325296E-18
6.783253E+03	4.229455E-18	1.336819E-18
6.793155E+03	4.267300E-18	1.348691E-18
6.803058E+03	4.306260E-18	1.360914E-18
6.812960E+03	4.346425E-18	1.373515E-18
6.822863E+03	4.387641E-18	1.386446E-18
6.832766E+03	4.430077E-18	1.399761E-18
6.842668E+03	4.473659E-18	1.413436E-18
6.852571E+03	4.518394E-18	1.427473E-18
6.862473E+03	4.564290E-18	1.441875E-18
6.872376E+03	4.611353E-18	1.456643E-18
6.882278E+03	4.659503E-18	1.471752E-18
6.892181E+03	4.708832E-18	1.487231E-18
6.902083E+03	4.759348E-18	1.503082E-18
6.911986E+03	4.811055E-18	1.519307E-18
6.921889E+03	4.863774E-18	1.535849E-18
6.931791E+03	4.917789E-18	1.552798E-18
6.941694E+03	4.972821E-18	1.570065E-18
6.951596E+03	5.029063E-18	1.587712E-18
6.961499E+03	5.086422E-18	1.605708E-18
6.971401E+03	5.144900E-18	1.624055E-18
6.981304E+03	5.204497E-18	1.642752E-18
6.991207E+03	5.265216E-18	1.661800E-18
7.001109E+03	5.326949E-18	1.681166E-18
7.011012E+03	5.389799E-18	1.700880E-18
7.020914E+03	5.453770E-18	1.720946E-18
7.030817E+03	5.518747E-18	1.741325E-18
7.040719E+03	5.584837E-18	1.762053E-18
7.050622E+03	5.651926E-18	1.783093E-18
7.060524E+03	5.720005E-18	1.804441E-18
7.070427E+03	5.789067E-18	1.826096E-18
7.080330E+03	5.859224E-18	1.848094E-18
7.090232E+03	5.930228E-18	1.870355E-18
7.100135E+03	6.002063E-18	1.892874E-18
7.110037E+03	6.074968E-18	1.915728E-18
7.119940E+03	6.148678E-18	1.938831E-18
7.129842E+03	6.223177E-18	1.962180E-18
7.139745E+03	6.298578E-18	1.985810E-18
7.149647E+03	6.374734E-18	2.009673E-18
7.159550E+03	6.451622E-18	2.033764E-18
7.169453E+03	6.529222E-18	2.058076E-18
7.179355E+03	6.607511E-18	2.082600E-18
7.189258E+03	6.686609E-18	2.107376E-18
7.199160E+03	6.766202E-18	2.132304E-18
7.209063E+03	6.846560E-18	2.157469E-18
7.218965E+03	6.927507E-18	2.182815E-18
7.228868E+03	7.009016E-18	2.208335E-18
7.238770E+03	7.091215E-18	2.234068E-18
7.248673E+03	7.173921E-18	2.259957E-18
7.258576E+03	7.257262E-18	2.286041E-18
7.268478E+03	7.341214E-18	2.312314E-18
7.278381E+03	7.425917E-18	2.338820E-18
7.288283E+03	7.511353E-18	2.365552E-18
7.298186E+03	7.597671E-18	2.392557E-18
7.308088E+03	7.684684E-18	2.419777E-18
7.317991E+03	7.772906E-18	2.447374E-18
7.327894E+03	7.862337E-18	2.475346E-18
7.337796E+03	7.952797E-18	2.503638E-18
7.347699E+03	8.044838E-18	2.532424E-18
7.357601E+03	8.138292E-18	2.561650E-18
7.367504E+03	8.233359E-18	2.591379E-18
7.377406E+03	8.329865E-18	2.621556E-18
7.387309E+03	8.428020E-18	2.652247E-18
7.397211E+03	8.527235E-18	2.683267E-18
7.407114E+03	8.627915E-18	2.714744E-18
7.417017E+03	8.729441E-18	2.746481E-18
7.426919E+03	8.832008E-18	2.778541E-18
7.436822E+03	8.935390E-18	2.810853E-18
7.446724E+03	9.039348E-18	2.843341E-18
7.456627E+03	9.144068E-18	2.876063E-18
7.466529E+03	9.248860E-18	2.908803E-18
7.476432E+03	9.354119E-18	2.941685E-18
7.486334E+03	9.459579E-18	2.974625E-18
7.496237E+03	9.565196E-18	3.007609E-18
7.506140E+03	9.670681E-18	3.040547E-18
7.516042E+03	9.776216E-18	3.073496E-18
7.525945E+03	9.881505E-18	3.106362E-18
7.535847E+03	9.986485E-18	3.139126E-18
7.545750E+03	1.009134E-17	3.171847E-18
7.555652E+03	1.019577E-17	3.204428E-18
7.565555E+03	1.029995E-17	3.236927E-18
7.575457E+03	1.040332E-17	3.269164E-18
7.585360E+03	1.050631E-17	3.301279E-18
7.595263E+03	1.060860E-17	3.333169E-18
7.605165E+03	1.071039E-17	3.364897E-18
7.615068E+03	1.081135E-17	3.396358E-18
7.624970E+03	1.091139E-17	3.427529E-18
7.634873E+03	1.101045E-17	3.458385E-18
7.644775E+03	1.110902E-17	3.489084E-18
7.654678E+03	1.120618E-17	3.519336E-18
7.664581E+03	1.130273E-17	3.549392E-18
7.674483E+03	1.139802E-17	3.579045E-18
7.684386E+03	1.149226E-17	3.608368E-18
