#wls	flux	fluxerr
1.584409E+03	6.599045E-17	3.310942E-17
1.624020E+03	6.881950E-17	3.452416E-17
1.663630E+03	7.147408E-17	3.585068E-17
1.703240E+03	7.392236E-17	3.707302E-17
1.742850E+03	7.610798E-17	3.816293E-17
1.782461E+03	7.796631E-17	3.908803E-17
1.822071E+03	7.939628E-17	3.979770E-17
1.861681E+03	8.029632E-17	4.024112E-17
1.901291E+03	8.055255E-17	4.036138E-17
1.940902E+03	8.006873E-17	4.011042E-17
1.980512E+03	7.880161E-17	3.946684E-17
2.020122E+03	7.685975E-17	3.848525E-17
2.059732E+03	7.455900E-17	3.732403E-17
2.099342E+03	7.241072E-17	3.623928E-17
2.138953E+03	7.097461E-17	3.551097E-17
2.178563E+03	7.056789E-17	3.529753E-17
2.218173E+03	7.109642E-17	3.555143E-17
2.257783E+03	7.214480E-17	3.606459E-17
2.297394E+03	7.319839E-17	3.657955E-17
2.337004E+03	7.387028E-17	3.690300E-17
2.376614E+03	7.393226E-17	3.692113E-17
2.416224E+03	7.329789E-17	3.659111E-17
2.455835E+03	7.198395E-17	3.592167E-17
2.495445E+03	7.004989E-17	3.494289E-17
2.535055E+03	6.757426E-17	3.369432E-17
2.574665E+03	6.465258E-17	3.222395E-17
2.614276E+03	6.136788E-17	3.057347E-17
2.653886E+03	5.780654E-17	2.878621E-17
2.693496E+03	5.404340E-17	2.689968E-17
2.733106E+03	5.015615E-17	2.495275E-17
2.772716E+03	4.621153E-17	2.297879E-17
2.812327E+03	4.227553E-17	2.101073E-17
2.851937E+03	3.840934E-17	1.907905E-17
2.891547E+03	3.466867E-17	1.721144E-17
2.931157E+03	3.110252E-17	1.543221E-17
2.970768E+03	2.775136E-17	1.376137E-17
2.980670E+03	2.695071E-17	1.336234E-17
2.990573E+03	2.616608E-17	1.297136E-17
3.000475E+03	2.539710E-17	1.258823E-17
3.010378E+03	2.464507E-17	1.221361E-17
3.020280E+03	2.390953E-17	1.184726E-17
3.030183E+03	2.319062E-17	1.148926E-17
3.040086E+03	2.248870E-17	1.113976E-17
3.049988E+03	2.180561E-17	1.079968E-17
3.059891E+03	2.114116E-17	1.046894E-17
3.069793E+03	2.049576E-17	1.014771E-17
3.079696E+03	1.986853E-17	9.835575E-18
3.089598E+03	1.925947E-17	9.532520E-18
3.099501E+03	1.866818E-17	9.238351E-18
3.109403E+03	1.809433E-17	8.952891E-18
3.119306E+03	1.753758E-17	8.675975E-18
3.129209E+03	1.699795E-17	8.407608E-18
3.139111E+03	1.647480E-17	8.147474E-18
3.149014E+03	1.596817E-17	7.895581E-18
3.158916E+03	1.547773E-17	7.651774E-18
3.168819E+03	1.500322E-17	7.415909E-18
3.178721E+03	1.454458E-17	7.187965E-18
3.188624E+03	1.410103E-17	6.967546E-18
3.198526E+03	1.367301E-17	6.754868E-18
3.208429E+03	1.325952E-17	6.549432E-18
3.218332E+03	1.286095E-17	6.351426E-18
3.228234E+03	1.247653E-17	6.160476E-18
3.238137E+03	1.210620E-17	5.976537E-18
3.248039E+03	1.174962E-17	5.799452E-18
3.257942E+03	1.140633E-17	5.628974E-18
3.267844E+03	1.107635E-17	5.465125E-18
3.277747E+03	1.075903E-17	5.307573E-18
3.287650E+03	1.045407E-17	5.156167E-18
3.297552E+03	1.016147E-17	5.010908E-18
3.307455E+03	9.880602E-18	4.871481E-18
3.317357E+03	9.611167E-18	4.737738E-18
3.327260E+03	9.352868E-18	4.609527E-18
3.337162E+03	9.105524E-18	4.486758E-18
3.347065E+03	8.868581E-18	4.369154E-18
3.356967E+03	8.641755E-18	4.256574E-18
3.366870E+03	8.424874E-18	4.148931E-18
3.376773E+03	8.217536E-18	4.046023E-18
3.386675E+03	8.019466E-18	3.947713E-18
3.396578E+03	7.830190E-18	3.853765E-18
3.406480E+03	7.649555E-18	3.764102E-18
3.416383E+03	7.477307E-18	3.678597E-18
3.426285E+03	7.313015E-18	3.597035E-18
3.436188E+03	7.156448E-18	3.519300E-18
3.446090E+03	7.007300E-18	3.445241E-18
3.455993E+03	6.865442E-18	3.374791E-18
3.465896E+03	6.730423E-18	3.307727E-18
3.475798E+03	6.602127E-18	3.243991E-18
3.485701E+03	6.480220E-18	3.183415E-18
3.495603E+03	6.364457E-18	3.125879E-18
3.505506E+03	6.254600E-18	3.071264E-18
3.515408E+03	6.150368E-18	3.019429E-18
3.525311E+03	6.051617E-18	2.970303E-18
3.535213E+03	5.958020E-18	2.923724E-18
3.545116E+03	5.869397E-18	2.879601E-18
3.555019E+03	5.785640E-18	2.837881E-18
3.564921E+03	5.706519E-18	2.798449E-18
3.574824E+03	5.631875E-18	2.761226E-18
3.584726E+03	5.561508E-18	2.726112E-18
3.594629E+03	5.495217E-18	2.693008E-18
3.604531E+03	5.432878E-18	2.661852E-18
3.614434E+03	5.374261E-18	2.632529E-18
3.624337E+03	5.319302E-18	2.605008E-18
3.634239E+03	5.267794E-18	2.579186E-18
3.644142E+03	5.219627E-18	2.555007E-18
3.654044E+03	5.174753E-18	2.532448E-18
3.663947E+03	5.132984E-18	2.511416E-18
3.673849E+03	5.094220E-18	2.491859E-18
3.683752E+03	5.058472E-18	2.473784E-18
3.693654E+03	5.025606E-18	2.457123E-18
3.703557E+03	4.995529E-18	2.441829E-18
3.713460E+03	4.968252E-18	2.427909E-18
3.723362E+03	4.943644E-18	2.415295E-18
3.733265E+03	4.921666E-18	2.403969E-18
3.743167E+03	4.902323E-18	2.393933E-18
3.753070E+03	4.885533E-18	2.385144E-18
3.762972E+03	4.871260E-18	2.377585E-18
3.772875E+03	4.859458E-18	2.371232E-18
3.782777E+03	4.850098E-18	2.366071E-18
3.792680E+03	4.843173E-18	2.362096E-18
3.802583E+03	4.838612E-18	2.359273E-18
3.812485E+03	4.836407E-18	2.357596E-18
3.822388E+03	4.836571E-18	2.357072E-18
3.832290E+03	4.839020E-18	2.357658E-18
3.842193E+03	4.843714E-18	2.359334E-18
3.852095E+03	4.850695E-18	2.362119E-18
3.861998E+03	4.859925E-18	2.365995E-18
3.871900E+03	4.871322E-18	2.370921E-18
3.881803E+03	4.884933E-18	2.376918E-18
3.891706E+03	4.900754E-18	2.383983E-18
3.901608E+03	4.918668E-18	2.392059E-18
3.911511E+03	4.938714E-18	2.401165E-18
3.921413E+03	4.960893E-18	2.411299E-18
3.931316E+03	4.985169E-18	2.422443E-18
3.941218E+03	5.011450E-18	2.434552E-18
3.951121E+03	5.039830E-18	2.447671E-18
3.961024E+03	5.070219E-18	2.461754E-18
3.970926E+03	5.102582E-18	2.476785E-18
3.980829E+03	5.136953E-18	2.492778E-18
3.990731E+03	5.173256E-18	2.509697E-18
4.000634E+03	5.211534E-18	2.527560E-18
4.010536E+03	5.251655E-18	2.546304E-18
4.020439E+03	5.293709E-18	2.565971E-18
4.030341E+03	5.337612E-18	2.586519E-18
4.040244E+03	5.383320E-18	2.607927E-18
4.050147E+03	5.430881E-18	2.630216E-18
4.060049E+03	5.480165E-18	2.653323E-18
4.069952E+03	5.531262E-18	2.677291E-18
4.079854E+03	5.584050E-18	2.702060E-18
4.089757E+03	5.638523E-18	2.727626E-18
4.099659E+03	5.694694E-18	2.753994E-18
4.109562E+03	5.752474E-18	2.781122E-18
4.119464E+03	5.811870E-18	2.809011E-18
4.129367E+03	5.872843E-18	2.837642E-18
4.139270E+03	5.935306E-18	2.866971E-18
4.149172E+03	5.999317E-18	2.897028E-18
4.159075E+03	6.064738E-18	2.927743E-18
4.168977E+03	6.131631E-18	2.959146E-18
4.178880E+03	6.199855E-18	2.991169E-18
4.188782E+03	6.269424E-18	3.023817E-18
4.198685E+03	6.340297E-18	3.057071E-18
4.208587E+03	6.412336E-18	3.090861E-18
4.218490E+03	6.485596E-18	3.125217E-18
4.228393E+03	6.559991E-18	3.160093E-18
4.238295E+03	6.635423E-18	3.195443E-18
4.248198E+03	6.711798E-18	3.231222E-18
4.258100E+03	6.789121E-18	3.267430E-18
4.268003E+03	6.867348E-18	3.304047E-18
4.277905E+03	6.946271E-18	3.340971E-18
4.287808E+03	7.025941E-18	3.378227E-18
4.297711E+03	7.106145E-18	3.415712E-18
4.307613E+03	7.186940E-18	3.453453E-18
4.317516E+03	7.268147E-18	3.491364E-18
4.327418E+03	7.349772E-18	3.529446E-18
4.337321E+03	7.431813E-18	3.567700E-18
4.347223E+03	7.514268E-18	3.606123E-18
4.357126E+03	7.597138E-18	3.644717E-18
4.367028E+03	7.680483E-18	3.683509E-18
4.376931E+03	7.764375E-18	3.722533E-18
4.386834E+03	7.848818E-18	3.761792E-18
4.396736E+03	7.933882E-18	3.801317E-18
4.406639E+03	8.019517E-18	3.841086E-18
4.416541E+03	8.105867E-18	3.881166E-18
4.426444E+03	8.192878E-18	3.921532E-18
4.436346E+03	8.280573E-18	3.962193E-18
4.446249E+03	8.368966E-18	4.003157E-18
4.456151E+03	8.458083E-18	4.044434E-18
4.466054E+03	8.547947E-18	4.086037E-18
4.475957E+03	8.638582E-18	4.127975E-18
4.485859E+03	8.729869E-18	4.170191E-18
4.495762E+03	8.821990E-18	4.212771E-18
4.505664E+03	8.914820E-18	4.255657E-18
4.515567E+03	9.008395E-18	4.298863E-18
4.525469E+03	9.102671E-18	4.342368E-18
4.535372E+03	9.197765E-18	4.386229E-18
4.545274E+03	9.293637E-18	4.430424E-18
4.555177E+03	9.390170E-18	4.474898E-18
4.565080E+03	9.487573E-18	4.519750E-18
4.574982E+03	9.585729E-18	4.564924E-18
4.584885E+03	9.684603E-18	4.610401E-18
4.594787E+03	9.784336E-18	4.656249E-18
4.604690E+03	9.884997E-18	4.702500E-18
4.614592E+03	9.986373E-18	4.749051E-18
4.624495E+03	1.008872E-17	4.796026E-18
4.634398E+03	1.019202E-17	4.843411E-18
4.644300E+03	1.029626E-17	4.891203E-18
4.654203E+03	1.040152E-17	4.939437E-18
4.664105E+03	1.050779E-17	4.988111E-18
4.674008E+03	1.061517E-17	5.037270E-18
4.683910E+03	1.072347E-17	5.086818E-18
4.693813E+03	1.083277E-17	5.136800E-18
4.703715E+03	1.094318E-17	5.187265E-18
4.713618E+03	1.105441E-17	5.238069E-18
4.723521E+03	1.116664E-17	5.289307E-18
4.733423E+03	1.127980E-17	5.340932E-18
4.743326E+03	1.139376E-17	5.392894E-18
4.753228E+03	1.150875E-17	5.445296E-18
4.763131E+03	1.162445E-17	5.497984E-18
4.773033E+03	1.174118E-17	5.551114E-18
4.782936E+03	1.185863E-17	5.604530E-18
4.792838E+03	1.197700E-17	5.658333E-18
4.802741E+03	1.209607E-17	5.712416E-18
4.812644E+03	1.221606E-17	5.766886E-18
4.822546E+03	1.233674E-17	5.821629E-18
4.832449E+03	1.245822E-17	5.876694E-18
4.842351E+03	1.258048E-17	5.932076E-18
4.852254E+03	1.270338E-17	5.987708E-18
4.862156E+03	1.282691E-17	6.043579E-18
4.872059E+03	1.295103E-17	6.099677E-18
4.881961E+03	1.307584E-17	6.156045E-18
4.891864E+03	1.320105E-17	6.212544E-18
4.901767E+03	1.332687E-17	6.269275E-18
4.911669E+03	1.345299E-17	6.326091E-18
4.921572E+03	1.357949E-17	6.383026E-18
4.931474E+03	1.370616E-17	6.439986E-18
4.941377E+03	1.383292E-17	6.496930E-18
4.951279E+03	1.395969E-17	6.553820E-18
4.961182E+03	1.408651E-17	6.610675E-18
4.971085E+03	1.421300E-17	6.667312E-18
4.980987E+03	1.433917E-17	6.723742E-18
4.990890E+03	1.446475E-17	6.779837E-18
5.000792E+03	1.458973E-17	6.835595E-18
5.010695E+03	1.471384E-17	6.890880E-18
5.020597E+03	1.483675E-17	6.945545E-18
5.030500E+03	1.495842E-17	6.999571E-18
5.040402E+03	1.507866E-17	7.052868E-18
5.050305E+03	1.519713E-17	7.105277E-18
5.060208E+03	1.531344E-17	7.156619E-18
5.070110E+03	1.542768E-17	7.206937E-18
5.080013E+03	1.553931E-17	7.255972E-18
5.089915E+03	1.564806E-17	7.303611E-18
5.099818E+03	1.575368E-17	7.349735E-18
5.109720E+03	1.585592E-17	7.394220E-18
5.119623E+03	1.595432E-17	7.436867E-18
5.129525E+03	1.604877E-17	7.477620E-18
5.139428E+03	1.613868E-17	7.516203E-18
5.149331E+03	1.622391E-17	7.552556E-18
5.159233E+03	1.630384E-17	7.586401E-18
5.169136E+03	1.637853E-17	7.617756E-18
5.179038E+03	1.644736E-17	7.646344E-18
5.188941E+03	1.651022E-17	7.672115E-18
5.198843E+03	1.656652E-17	7.694798E-18
5.208746E+03	1.661616E-17	7.714352E-18
5.218648E+03	1.665891E-17	7.730676E-18
5.228551E+03	1.669423E-17	7.743517E-18
5.238454E+03	1.672191E-17	7.752789E-18
5.248356E+03	1.674196E-17	7.758497E-18
5.258259E+03	1.675406E-17	7.760504E-18
5.268161E+03	1.675797E-17	7.758694E-18
5.278064E+03	1.675360E-17	7.753040E-18
5.287966E+03	1.674095E-17	7.743541E-18
5.297869E+03	1.672003E-17	7.730211E-18
5.307772E+03	1.669076E-17	7.713015E-18
5.317674E+03	1.665342E-17	7.692094E-18
5.327577E+03	1.660804E-17	7.667461E-18
5.337479E+03	1.655501E-17	7.639302E-18
5.347382E+03	1.649446E-17	7.607685E-18
5.357284E+03	1.642706E-17	7.572920E-18
5.367187E+03	1.635337E-17	7.535275E-18
5.377089E+03	1.627366E-17	7.494880E-18
5.386992E+03	1.618894E-17	7.452196E-18
5.396895E+03	1.609973E-17	7.407472E-18
5.406797E+03	1.600596E-17	7.360679E-18
5.416700E+03	1.590875E-17	7.312330E-18
5.426602E+03	1.580842E-17	7.262579E-18
5.436505E+03	1.570533E-17	7.211594E-18
5.446407E+03	1.560004E-17	7.159633E-18
5.456310E+03	1.549295E-17	7.106885E-18
5.466212E+03	1.538450E-17	7.053546E-18
5.476115E+03	1.527543E-17	6.999958E-18
5.486018E+03	1.516616E-17	6.946320E-18
5.495920E+03	1.505759E-17	6.893040E-18
5.505823E+03	1.495042E-17	6.840441E-18
5.515725E+03	1.484521E-17	6.788772E-18
5.525628E+03	1.474276E-17	6.738405E-18
5.535530E+03	1.464371E-17	6.689625E-18
5.545433E+03	1.454866E-17	6.642706E-18
5.555335E+03	1.445831E-17	6.597964E-18
5.565238E+03	1.437317E-17	6.555633E-18
5.575141E+03	1.429373E-17	6.515925E-18
5.585043E+03	1.422055E-17	6.479098E-18
5.594946E+03	1.415403E-17	6.445325E-18
5.604848E+03	1.409464E-17	6.414821E-18
5.614751E+03	1.404270E-17	6.387720E-18
5.624653E+03	1.399846E-17	6.364133E-18
5.634556E+03	1.396229E-17	6.344225E-18
5.644459E+03	1.393438E-17	6.328071E-18
5.654361E+03	1.391488E-17	6.315740E-18
5.664264E+03	1.390408E-17	6.307350E-18
5.674166E+03	1.390206E-17	6.302937E-18
5.684069E+03	1.390907E-17	6.302600E-18
5.693971E+03	1.392501E-17	6.306295E-18
5.703874E+03	1.395022E-17	6.314168E-18
5.713776E+03	1.398460E-17	6.326162E-18
5.723679E+03	1.402817E-17	6.342281E-18
5.733582E+03	1.408124E-17	6.362660E-18
5.743484E+03	1.414353E-17	6.387162E-18
5.753387E+03	1.421535E-17	6.415920E-18
5.763289E+03	1.429670E-17	6.448930E-18
5.773192E+03	1.438759E-17	6.486188E-18
5.783094E+03	1.448787E-17	6.527618E-18
5.792997E+03	1.459785E-17	6.573350E-18
5.802899E+03	1.471738E-17	6.623308E-18
5.812802E+03	1.484660E-17	6.677554E-18
5.822705E+03	1.498553E-17	6.736079E-18
5.832607E+03	1.513397E-17	6.798794E-18
5.842510E+03	1.529208E-17	6.865759E-18
5.852412E+03	1.545999E-17	6.937029E-18
5.862315E+03	1.563734E-17	7.012428E-18
5.872217E+03	1.582425E-17	7.092003E-18
5.882120E+03	1.602065E-17	7.175717E-18
5.892022E+03	1.622666E-17	7.263612E-18
5.901925E+03	1.644179E-17	7.355469E-18
5.911828E+03	1.666633E-17	7.451401E-18
5.921730E+03	1.689975E-17	7.551166E-18
5.931633E+03	1.714208E-17	7.654769E-18
5.941535E+03	1.739313E-17	7.762125E-18
5.951438E+03	1.765251E-17	7.873039E-18
5.961340E+03	1.792016E-17	7.987487E-18
5.971243E+03	1.819540E-17	8.105157E-18
5.981146E+03	1.847835E-17	8.226094E-18
5.991048E+03	1.876804E-17	8.349860E-18
6.000951E+03	1.906452E-17	8.476472E-18
6.010853E+03	1.936696E-17	8.605556E-18
6.020756E+03	1.967515E-17	8.737010E-18
6.030658E+03	1.998818E-17	8.870425E-18
6.040561E+03	2.030552E-17	9.005568E-18
6.050463E+03	2.062643E-17	9.142097E-18
6.060366E+03	2.095034E-17	9.279765E-18
6.070269E+03	2.127617E-17	9.418087E-18
6.080171E+03	2.160306E-17	9.556680E-18
6.090074E+03	2.193036E-17	9.695260E-18
6.099976E+03	2.225718E-17	9.833427E-18
6.109879E+03	2.258203E-17	9.970526E-18
6.119781E+03	2.290423E-17	1.010625E-17
6.129684E+03	2.322278E-17	1.024018E-17
6.139586E+03	2.353703E-17	1.037201E-17
6.149489E+03	2.384657E-17	1.050158E-17
6.159392E+03	2.415108E-17	1.062875E-17
6.169294E+03	2.445058E-17	1.075353E-17
6.179197E+03	2.474582E-17	1.087624E-17
6.189099E+03	2.503666E-17	1.099685E-17
6.199002E+03	2.532273E-17	1.111518E-17
6.208904E+03	2.560500E-17	1.123166E-17
6.218807E+03	2.588357E-17	1.134635E-17
6.228709E+03	2.615788E-17	1.145900E-17
6.238612E+03	2.642915E-17	1.157015E-17
6.248515E+03	2.669658E-17	1.167945E-17
6.258417E+03	2.696116E-17	1.178734E-17
6.268320E+03	2.722251E-17	1.189365E-17
6.278222E+03	2.748099E-17	1.199855E-17
6.288125E+03	2.773665E-17	1.210204E-17
6.298027E+03	2.798952E-17	1.220417E-17
6.307930E+03	2.823969E-17	1.230495E-17
6.317833E+03	2.848683E-17	1.240426E-17
6.327735E+03	2.873064E-17	1.250197E-17
6.337638E+03	2.897160E-17	1.259827E-17
6.347540E+03	2.920898E-17	1.269287E-17
6.357443E+03	2.944330E-17	1.278599E-17
6.367345E+03	2.967422E-17	1.287748E-17
6.377248E+03	2.990185E-17	1.296740E-17
6.387150E+03	3.012672E-17	1.305597E-17
6.397053E+03	3.034987E-17	1.314366E-17
6.406956E+03	3.057145E-17	1.323052E-17
6.416858E+03	3.079209E-17	1.331683E-17
6.426761E+03	3.101245E-17	1.340287E-17
6.436663E+03	3.123225E-17	1.348854E-17
6.446566E+03	3.145263E-17	1.357430E-17
6.456468E+03	3.167383E-17	1.366028E-17
6.466371E+03	3.189554E-17	1.374634E-17
6.476273E+03	3.211898E-17	1.383300E-17
6.486176E+03	3.234385E-17	1.392012E-17
6.496079E+03	3.256985E-17	1.400759E-17
6.505981E+03	3.279819E-17	1.409591E-17
6.515884E+03	3.302854E-17	1.418496E-17
6.525786E+03	3.326109E-17	1.427479E-17
6.535689E+03	3.349655E-17	1.436573E-17
6.545591E+03	3.373400E-17	1.445736E-17
6.555494E+03	3.397356E-17	1.454974E-17
6.565396E+03	3.421649E-17	1.464342E-17
6.575299E+03	3.446178E-17	1.473794E-17
6.585202E+03	3.470955E-17	1.483337E-17
6.595104E+03	3.496044E-17	1.492997E-17
6.605007E+03	3.521398E-17	1.502754E-17
6.614909E+03	3.547020E-17	1.512610E-17
6.624812E+03	3.572978E-17	1.522591E-17
6.634714E+03	3.599153E-17	1.532649E-17
6.644617E+03	3.625544E-17	1.542782E-17
6.654520E+03	3.652278E-17	1.553045E-17
6.664422E+03	3.679228E-17	1.563382E-17
6.674325E+03	3.706391E-17	1.573793E-17
6.684227E+03	3.733827E-17	1.584302E-17
6.694130E+03	3.761467E-17	1.594880E-17
6.704032E+03	3.789302E-17	1.605524E-17
6.713935E+03	3.817326E-17	1.616230E-17
6.723837E+03	3.845529E-17	1.626995E-17
6.733740E+03	3.873832E-17	1.637785E-17
6.743643E+03	3.902292E-17	1.648623E-17
6.753545E+03	3.930897E-17	1.659505E-17
6.763448E+03	3.959564E-17	1.670396E-17
6.773350E+03	3.988351E-17	1.681319E-17
6.783253E+03	4.017170E-17	1.692239E-17
6.793155E+03	4.046006E-17	1.703148E-17
6.803058E+03	4.074843E-17	1.714040E-17
6.812960E+03	4.103587E-17	1.724875E-17
6.822863E+03	4.132375E-17	1.735712E-17
6.832766E+03	4.161113E-17	1.746511E-17
6.842668E+03	4.189707E-17	1.757232E-17
6.852571E+03	4.218218E-17	1.767902E-17
6.862473E+03	4.246550E-17	1.778480E-17
6.872376E+03	4.274684E-17	1.788959E-17
6.882278E+03	4.302686E-17	1.799366E-17
6.892181E+03	4.330459E-17	1.809661E-17
6.902083E+03	4.357987E-17	1.819838E-17
6.911986E+03	4.385256E-17	1.829892E-17
6.921889E+03	4.412251E-17	1.839816E-17
6.931791E+03	4.438875E-17	1.849570E-17
6.941694E+03	4.465288E-17	1.859222E-17
6.951596E+03	4.491308E-17	1.868697E-17
6.961499E+03	4.516924E-17	1.877989E-17
6.971401E+03	4.542218E-17	1.887134E-17
6.981304E+03	4.567095E-17	1.896092E-17
6.991207E+03	4.591550E-17	1.904863E-17
7.001109E+03	4.615581E-17	1.913445E-17
7.011012E+03	4.639187E-17	1.921839E-17
7.020914E+03	4.662462E-17	1.930085E-17
7.030817E+03	4.685224E-17	1.938106E-17
7.040719E+03	4.707475E-17	1.945907E-17
7.050622E+03	4.729316E-17	1.953527E-17
7.060524E+03	4.750756E-17	1.960972E-17
7.070427E+03	4.771708E-17	1.968206E-17
7.080330E+03	4.792278E-17	1.975275E-17
7.090232E+03	4.812284E-17	1.982102E-17
7.100135E+03	4.831934E-17	1.988774E-17
7.110037E+03	4.851141E-17	1.995257E-17
7.119940E+03	4.869921E-17	2.001557E-17
7.129842E+03	4.888186E-17	2.007639E-17
7.139745E+03	4.906151E-17	2.013591E-17
7.149647E+03	4.923627E-17	2.019337E-17
7.159550E+03	4.940728E-17	2.024925E-17
7.169453E+03	4.957365E-17	2.030317E-17
7.179355E+03	4.973650E-17	2.035560E-17
7.189258E+03	4.989494E-17	2.040620E-17
7.199160E+03	5.004902E-17	2.045497E-17
7.209063E+03	5.019987E-17	2.050240E-17
7.218965E+03	5.034657E-17	2.054811E-17
7.228868E+03	5.049018E-17	2.059253E-17
7.238770E+03	5.062862E-17	2.063483E-17
7.248673E+03	5.076303E-17	2.067548E-17
7.258576E+03	5.089455E-17	2.071494E-17
7.268478E+03	5.102107E-17	2.075237E-17
7.278381E+03	5.114362E-17	2.078818E-17
7.288283E+03	5.126124E-17	2.082200E-17
7.298186E+03	5.137502E-17	2.085427E-17
7.308088E+03	5.148399E-17	2.088461E-17
7.317991E+03	5.158809E-17	2.091299E-17
7.327894E+03	5.168750E-17	2.093950E-17
7.337796E+03	5.178115E-17	2.096371E-17
7.347699E+03	5.186912E-17	2.098566E-17
7.357601E+03	5.195160E-17	2.100543E-17
7.367504E+03	5.202862E-17	2.102304E-17
7.377406E+03	5.210153E-17	2.103905E-17
7.387309E+03	5.216936E-17	2.105306E-17
7.397211E+03	5.223468E-17	2.106613E-17
7.407114E+03	5.229758E-17	2.107828E-17
7.417017E+03	5.235836E-17	2.108966E-17
7.426919E+03	5.241721E-17	2.110033E-17
7.436822E+03	5.247424E-17	2.111035E-17
7.446724E+03	5.253199E-17	2.112074E-17
7.456627E+03	5.258805E-17	2.113053E-17
7.466529E+03	5.264371E-17	2.114025E-17
7.476432E+03	5.269890E-17	2.114986E-17
7.486334E+03	5.275474E-17	2.115982E-17
7.496237E+03	5.280884E-17	2.116917E-17
7.506140E+03	5.286226E-17	2.117832E-17
7.516042E+03	5.291500E-17	2.118729E-17
7.525945E+03	5.296828E-17	2.119656E-17
7.535847E+03	5.301943E-17	2.120506E-17
7.545750E+03	5.307102E-17	2.121382E-17
7.555652E+03	5.312160E-17	2.122227E-17
7.565555E+03	5.316998E-17	2.122992E-17
7.575457E+03	5.321853E-17	2.123772E-17
7.585360E+03	5.326601E-17	2.124518E-17
7.595263E+03	5.331225E-17	2.125223E-17
7.605165E+03	5.335731E-17	2.125889E-17
7.615068E+03	5.340102E-17	2.126511E-17
7.624970E+03	5.344332E-17	2.127085E-17
7.634873E+03	5.348551E-17	2.127663E-17
7.644775E+03	5.352478E-17	2.128133E-17
7.654678E+03	5.356376E-17	2.128601E-17
7.664581E+03	5.360096E-17	2.129007E-17
7.674483E+03	5.363630E-17	2.129348E-17
7.684386E+03	5.366962E-17	2.129618E-17
