#wls	flux	fluxerr
1.584409E+03	1.102624E-16	3.965837E-18
1.624020E+03	1.129381E-16	4.058692E-18
1.663630E+03	1.153201E-16	4.140767E-18
1.703240E+03	1.173679E-16	4.210630E-18
1.742850E+03	1.190486E-16	4.267127E-18
1.782461E+03	1.202761E-16	4.307205E-18
1.822071E+03	1.209536E-16	4.327442E-18
1.861681E+03	1.209556E-16	4.323407E-18
1.901291E+03	1.201415E-16	4.290145E-18
1.940902E+03	1.183980E-16	4.223701E-18
1.980512E+03	1.157047E-16	4.123451E-18
2.020122E+03	1.122443E-16	3.996004E-18
2.059732E+03	1.084598E-16	3.857208E-18
2.099342E+03	1.051116E-16	3.734123E-18
2.138953E+03	1.030071E-16	3.655352E-18
2.178563E+03	1.026039E-16	3.636980E-18
2.218173E+03	1.038143E-16	3.675695E-18
2.257783E+03	1.060600E-16	3.750852E-18
2.297394E+03	1.086333E-16	3.837317E-18
2.337004E+03	1.109527E-16	3.914530E-18
2.376614E+03	1.126672E-16	3.970148E-18
2.416224E+03	1.136375E-16	3.999345E-18
2.455835E+03	1.138341E-16	4.001177E-18
2.495445E+03	1.133126E-16	3.977706E-18
2.535055E+03	1.121539E-16	3.931861E-18
2.574665E+03	1.104339E-16	3.866393E-18
2.614276E+03	1.082321E-16	3.784167E-18
2.653886E+03	1.056154E-16	3.687593E-18
2.693496E+03	1.026495E-16	3.579026E-18
2.733106E+03	9.938880E-17	3.460417E-18
2.772716E+03	9.588533E-17	3.333630E-18
2.812327E+03	9.218721E-17	3.200378E-18
2.851937E+03	8.835224E-17	3.062703E-18
2.891547E+03	8.443387E-17	2.922486E-18
2.931157E+03	8.048530E-17	2.781585E-18
2.970768E+03	7.656954E-17	2.642190E-18
2.980670E+03	7.560344E-17	2.607843E-18
2.990573E+03	7.464353E-17	2.573733E-18
3.000475E+03	7.369065E-17	2.539888E-18
3.010378E+03	7.274723E-17	2.506392E-18
3.020280E+03	7.181397E-17	2.473270E-18
3.030183E+03	7.089160E-17	2.440545E-18
3.040086E+03	6.998172E-17	2.408273E-18
3.049988E+03	6.908790E-17	2.376576E-18
3.059891E+03	6.821354E-17	2.345571E-18
3.069793E+03	6.735960E-17	2.315289E-18
3.079696E+03	6.652576E-17	2.285719E-18
3.089598E+03	6.571063E-17	2.256812E-18
3.099501E+03	6.491676E-17	2.228657E-18
3.109403E+03	6.414171E-17	2.201167E-18
3.119306E+03	6.338695E-17	2.174392E-18
3.129209E+03	6.265400E-17	2.148385E-18
3.139111E+03	6.194199E-17	2.123114E-18
3.149014E+03	6.125246E-17	2.098631E-18
3.158916E+03	6.058481E-17	2.074916E-18
3.168819E+03	5.994059E-17	2.052019E-18
3.178721E+03	5.932047E-17	2.029964E-18
3.188624E+03	5.872391E-17	2.008731E-18
3.198526E+03	5.815261E-17	1.988376E-18
3.208429E+03	5.760732E-17	1.968926E-18
3.218332E+03	5.708871E-17	1.950401E-18
3.228234E+03	5.659749E-17	1.932825E-18
3.238137E+03	5.613444E-17	1.916223E-18
3.248039E+03	5.570031E-17	1.900620E-18
3.257942E+03	5.529508E-17	1.886013E-18
3.267844E+03	5.492139E-17	1.872493E-18
3.277747E+03	5.457828E-17	1.860024E-18
3.287650E+03	5.426761E-17	1.848669E-18
3.297552E+03	5.398941E-17	1.838428E-18
3.307455E+03	5.374548E-17	1.829360E-18
3.317357E+03	5.353680E-17	1.821498E-18
3.327260E+03	5.336280E-17	1.814820E-18
3.337162E+03	5.322610E-17	1.809415E-18
3.347065E+03	5.312624E-17	1.805265E-18
3.356967E+03	5.306513E-17	1.802433E-18
3.366870E+03	5.304384E-17	1.800954E-18
3.376773E+03	5.306215E-17	1.800820E-18
3.386675E+03	5.312276E-17	1.802119E-18
3.396578E+03	5.322548E-17	1.804844E-18
3.406480E+03	5.337160E-17	1.809037E-18
3.416383E+03	5.356254E-17	1.814744E-18
3.426285E+03	5.379896E-17	1.821986E-18
3.436188E+03	5.408307E-17	1.830835E-18
3.446090E+03	5.441494E-17	1.841291E-18
3.455993E+03	5.479616E-17	1.853407E-18
3.465896E+03	5.522768E-17	1.867213E-18
3.475798E+03	5.571175E-17	1.882782E-18
3.485701E+03	5.624882E-17	1.900128E-18
3.495603E+03	5.683987E-17	1.919281E-18
3.505506E+03	5.748734E-17	1.940322E-18
3.515408E+03	5.819102E-17	1.963240E-18
3.525311E+03	5.895274E-17	1.988096E-18
3.535213E+03	5.977435E-17	2.014950E-18
3.545116E+03	6.065623E-17	2.043811E-18
3.555019E+03	6.160026E-17	2.074740E-18
3.564921E+03	6.260689E-17	2.107751E-18
3.574824E+03	6.367705E-17	2.142871E-18
3.584726E+03	6.481249E-17	2.180157E-18
3.594629E+03	6.601269E-17	2.219589E-18
3.604531E+03	6.727987E-17	2.261239E-18
3.614434E+03	6.861394E-17	2.305100E-18
3.624337E+03	7.001537E-17	2.351187E-18
3.634239E+03	7.148375E-17	2.399483E-18
3.644142E+03	7.301994E-17	2.450013E-18
3.654044E+03	7.462373E-17	2.502768E-18
3.663947E+03	7.629397E-17	2.557706E-18
3.673849E+03	7.803077E-17	2.614830E-18
3.683752E+03	7.983303E-17	2.674098E-18
3.693654E+03	8.169869E-17	2.735440E-18
3.703557E+03	8.362827E-17	2.798871E-18
3.713460E+03	8.561824E-17	2.864270E-18
3.723362E+03	8.766677E-17	2.931574E-18
3.733265E+03	8.977271E-17	3.000742E-18
3.743167E+03	9.193099E-17	3.071602E-18
3.753070E+03	9.414053E-17	3.144116E-18
3.762972E+03	9.639619E-17	3.218112E-18
3.772875E+03	9.869520E-17	3.293495E-18
3.782777E+03	1.010336E-16	3.370130E-18
3.792680E+03	1.034057E-16	3.447831E-18
3.802583E+03	1.058070E-16	3.526440E-18
3.812485E+03	1.082330E-16	3.605812E-18
3.822388E+03	1.106773E-16	3.685730E-18
3.832290E+03	1.131351E-16	3.766036E-18
3.842193E+03	1.155994E-16	3.846494E-18
3.852095E+03	1.180648E-16	3.926929E-18
3.861998E+03	1.205250E-16	4.007129E-18
3.871900E+03	1.229734E-16	4.086872E-18
3.881803E+03	1.254043E-16	4.165979E-18
3.891706E+03	1.278101E-16	4.244190E-18
3.901608E+03	1.301850E-16	4.321320E-18
3.911511E+03	1.325238E-16	4.397192E-18
3.921413E+03	1.348174E-16	4.471512E-18
3.931316E+03	1.370630E-16	4.544187E-18
3.941218E+03	1.392533E-16	4.614978E-18
3.951121E+03	1.413821E-16	4.683683E-18
3.961024E+03	1.434449E-16	4.750155E-18
3.970926E+03	1.454349E-16	4.814173E-18
3.980829E+03	1.473494E-16	4.875648E-18
3.990731E+03	1.491832E-16	4.934414E-18
4.000634E+03	1.509316E-16	4.990323E-18
4.010536E+03	1.525890E-16	5.043185E-18
4.020439E+03	1.541536E-16	5.092953E-18
4.030341E+03	1.556217E-16	5.139504E-18
4.040244E+03	1.569898E-16	5.182727E-18
4.050147E+03	1.582544E-16	5.222516E-18
4.060049E+03	1.594129E-16	5.258783E-18
4.069952E+03	1.604640E-16	5.291489E-18
4.079854E+03	1.614041E-16	5.320525E-18
4.089757E+03	1.622329E-16	5.345884E-18
4.099659E+03	1.629491E-16	5.367528E-18
4.109562E+03	1.635520E-16	5.385436E-18
4.119464E+03	1.640413E-16	5.399605E-18
4.129367E+03	1.644173E-16	5.410049E-18
4.139270E+03	1.646825E-16	5.416853E-18
4.149172E+03	1.648357E-16	5.419982E-18
4.159075E+03	1.648806E-16	5.419565E-18
4.168977E+03	1.648217E-16	5.415749E-18
4.178880E+03	1.646600E-16	5.408576E-18
4.188782E+03	1.644015E-16	5.398244E-18
4.198685E+03	1.640503E-16	5.384890E-18
4.208587E+03	1.636139E-16	5.368766E-18
4.218490E+03	1.630979E-16	5.350055E-18
4.228393E+03	1.625087E-16	5.328973E-18
4.238295E+03	1.618575E-16	5.305889E-18
4.248198E+03	1.611496E-16	5.280977E-18
4.258100E+03	1.603977E-16	5.254654E-18
4.268003E+03	1.596109E-16	5.227226E-18
4.277905E+03	1.588008E-16	5.199065E-18
4.287808E+03	1.579775E-16	5.170510E-18
4.297711E+03	1.571547E-16	5.142007E-18
4.307613E+03	1.563447E-16	5.113954E-18
4.317516E+03	1.555580E-16	5.086702E-18
4.327418E+03	1.548104E-16	5.060758E-18
4.337321E+03	1.541103E-16	5.036405E-18
4.347223E+03	1.534686E-16	5.013989E-18
4.357126E+03	1.528856E-16	4.993521E-18
4.367028E+03	1.523572E-16	4.974868E-18
4.376931E+03	1.518738E-16	4.957710E-18
4.386834E+03	1.514301E-16	4.941878E-18
4.396736E+03	1.510172E-16	4.927075E-18
4.406639E+03	1.506262E-16	4.913014E-18
4.416541E+03	1.502533E-16	4.899564E-18
4.426444E+03	1.498913E-16	4.886495E-18
4.436346E+03	1.495357E-16	4.873656E-18
4.446249E+03	1.491828E-16	4.860930E-18
4.456151E+03	1.488301E-16	4.848231E-18
4.466054E+03	1.484746E-16	4.835464E-18
4.475957E+03	1.481170E-16	4.822653E-18
4.485859E+03	1.477575E-16	4.809798E-18
4.495762E+03	1.473954E-16	4.796882E-18
4.505664E+03	1.470309E-16	4.783906E-18
4.515567E+03	1.466669E-16	4.770971E-18
4.525469E+03	1.463058E-16	4.758149E-18
4.535372E+03	1.459472E-16	4.745429E-18
4.545274E+03	1.455964E-16	4.732980E-18
4.555177E+03	1.452519E-16	4.720758E-18
4.565080E+03	1.449178E-16	4.708892E-18
4.574982E+03	1.445968E-16	4.697466E-18
4.584885E+03	1.442898E-16	4.686520E-18
4.594787E+03	1.439997E-16	4.676137E-18
4.604690E+03	1.437262E-16	4.666309E-18
4.614592E+03	1.434745E-16	4.657207E-18
4.624495E+03	1.432432E-16	4.648782E-18
4.634398E+03	1.430363E-16	4.641165E-18
4.644300E+03	1.428553E-16	4.634403E-18
4.654203E+03	1.427031E-16	4.628589E-18
4.664105E+03	1.425799E-16	4.623733E-18
4.674008E+03	1.424889E-16	4.619929E-18
4.683910E+03	1.424299E-16	4.617179E-18
4.693813E+03	1.424067E-16	4.615600E-18
4.703715E+03	1.424174E-16	4.615135E-18
4.713618E+03	1.424645E-16	4.615854E-18
4.723521E+03	1.425488E-16	4.617793E-18
4.733423E+03	1.426700E-16	4.620935E-18
4.743326E+03	1.428308E-16	4.625369E-18
4.753228E+03	1.430308E-16	4.631081E-18
4.763131E+03	1.432712E-16	4.638111E-18
4.773033E+03	1.435530E-16	4.646485E-18
4.782936E+03	1.438769E-16	4.656228E-18
4.792838E+03	1.442419E-16	4.667309E-18
4.802741E+03	1.446511E-16	4.679825E-18
4.812644E+03	1.450999E-16	4.693627E-18
4.822546E+03	1.455906E-16	4.708789E-18
4.832449E+03	1.461208E-16	4.725233E-18
4.842351E+03	1.466906E-16	4.742959E-18
4.852254E+03	1.472955E-16	4.761823E-18
4.862156E+03	1.479347E-16	4.781801E-18
4.872059E+03	1.486062E-16	4.802823E-18
4.881961E+03	1.493059E-16	4.824758E-18
4.891864E+03	1.500326E-16	4.847568E-18
4.901767E+03	1.507822E-16	4.871116E-18
4.911669E+03	1.515532E-16	4.895359E-18
4.921572E+03	1.523399E-16	4.920110E-18
4.931474E+03	1.531427E-16	4.945379E-18
4.941377E+03	1.539557E-16	4.970981E-18
4.951279E+03	1.547783E-16	4.996890E-18
4.961182E+03	1.556065E-16	5.022982E-18
4.971085E+03	1.564400E-16	5.049243E-18
4.980987E+03	1.572770E-16	5.075618E-18
4.990890E+03	1.581131E-16	5.101962E-18
5.000792E+03	1.589485E-16	5.128283E-18
5.010695E+03	1.597824E-16	5.154557E-18
5.020597E+03	1.606143E-16	5.180763E-18
5.030500E+03	1.614404E-16	5.206784E-18
5.040402E+03	1.622639E-16	5.232717E-18
5.050305E+03	1.630845E-16	5.258560E-18
5.060208E+03	1.638976E-16	5.284156E-18
5.070110E+03	1.647079E-16	5.309665E-18
5.080013E+03	1.655123E-16	5.334980E-18
5.089915E+03	1.663106E-16	5.360098E-18
5.099818E+03	1.671024E-16	5.385006E-18
5.109720E+03	1.678855E-16	5.409634E-18
5.119623E+03	1.686607E-16	5.434008E-18
5.129525E+03	1.694250E-16	5.458026E-18
5.139428E+03	1.701766E-16	5.481636E-18
5.149331E+03	1.709134E-16	5.504765E-18
5.159233E+03	1.716289E-16	5.527211E-18
5.169136E+03	1.723234E-16	5.548980E-18
5.179038E+03	1.729913E-16	5.569889E-18
5.188941E+03	1.736263E-16	5.589739E-18
5.198843E+03	1.742235E-16	5.608373E-18
5.208746E+03	1.747774E-16	5.625611E-18
5.218648E+03	1.752804E-16	5.641211E-18
5.228551E+03	1.757280E-16	5.655029E-18
5.238454E+03	1.761102E-16	5.666742E-18
5.248356E+03	1.764222E-16	5.676199E-18
5.258259E+03	1.766539E-16	5.683072E-18
5.268161E+03	1.768006E-16	5.687215E-18
5.278064E+03	1.768545E-16	5.688371E-18
5.287966E+03	1.768099E-16	5.686366E-18
5.297869E+03	1.766619E-16	5.681036E-18
5.307772E+03	1.764028E-16	5.672138E-18
5.317674E+03	1.760311E-16	5.659625E-18
5.327577E+03	1.755432E-16	5.643378E-18
5.337479E+03	1.749382E-16	5.623378E-18
5.347382E+03	1.742135E-16	5.599534E-18
5.357284E+03	1.733748E-16	5.572032E-18
5.367187E+03	1.724208E-16	5.540831E-18
5.377089E+03	1.713568E-16	5.506106E-18
5.386992E+03	1.701900E-16	5.468087E-18
5.396895E+03	1.689207E-16	5.426785E-18
5.406797E+03	1.675508E-16	5.382261E-18
5.416700E+03	1.660839E-16	5.334630E-18
5.426602E+03	1.645397E-16	5.284529E-18
5.436505E+03	1.629372E-16	5.232566E-18
5.446407E+03	1.612923E-16	5.179250E-18
5.456310E+03	1.596205E-16	5.125084E-18
5.466212E+03	1.579375E-16	5.070573E-18
5.476115E+03	1.562561E-16	5.016122E-18
5.486018E+03	1.545952E-16	4.962341E-18
5.495920E+03	1.529671E-16	4.909625E-18
5.505823E+03	1.513854E-16	4.858409E-18
5.515725E+03	1.498662E-16	4.809207E-18
5.525628E+03	1.484198E-16	4.762356E-18
5.535530E+03	1.470592E-16	4.718263E-18
5.545433E+03	1.457958E-16	4.677298E-18
5.555335E+03	1.446381E-16	4.639735E-18
5.565238E+03	1.435952E-16	4.605859E-18
5.575141E+03	1.426725E-16	4.575848E-18
5.585043E+03	1.418744E-16	4.549836E-18
5.594946E+03	1.412048E-16	4.527953E-18
5.604848E+03	1.406632E-16	4.510175E-18
5.614751E+03	1.402531E-16	4.496622E-18
5.624653E+03	1.399695E-16	4.487125E-18
5.634556E+03	1.398113E-16	4.481649E-18
5.644459E+03	1.397733E-16	4.480032E-18
5.654361E+03	1.398476E-16	4.482011E-18
5.664264E+03	1.400295E-16	4.487440E-18
5.674166E+03	1.403088E-16	4.495991E-18
5.684069E+03	1.406777E-16	4.507410E-18
5.693971E+03	1.411260E-16	4.521376E-18
5.703874E+03	1.416450E-16	4.537602E-18
5.713776E+03	1.422226E-16	4.555702E-18
5.723679E+03	1.428511E-16	4.575433E-18
5.733582E+03	1.435173E-16	4.596367E-18
5.743484E+03	1.442125E-16	4.618228E-18
5.753387E+03	1.449289E-16	4.640764E-18
5.763289E+03	1.456577E-16	4.663696E-18
5.773192E+03	1.463892E-16	4.686709E-18
5.783094E+03	1.471177E-16	4.709624E-18
5.792997E+03	1.478385E-16	4.732290E-18
5.802899E+03	1.485428E-16	4.754426E-18
5.812802E+03	1.492275E-16	4.775934E-18
5.822705E+03	1.498906E-16	4.796745E-18
5.832607E+03	1.505255E-16	4.816656E-18
5.842510E+03	1.511335E-16	4.835700E-18
5.852412E+03	1.517128E-16	4.853826E-18
5.862315E+03	1.522591E-16	4.870895E-18
5.872217E+03	1.527735E-16	4.886944E-18
5.882120E+03	1.532579E-16	4.902029E-18
5.892022E+03	1.537092E-16	4.916056E-18
5.901925E+03	1.541300E-16	4.929110E-18
5.911828E+03	1.545216E-16	4.941229E-18
5.921730E+03	1.548840E-16	4.952412E-18
5.931633E+03	1.552189E-16	4.962719E-18
5.941535E+03	1.555288E-16	4.972226E-18
5.951438E+03	1.558145E-16	4.980962E-18
5.961340E+03	1.560809E-16	4.989080E-18
5.971243E+03	1.563296E-16	4.996637E-18
5.981146E+03	1.565645E-16	5.003750E-18
5.991048E+03	1.567861E-16	5.010445E-18
6.000951E+03	1.570030E-16	5.016987E-18
6.010853E+03	1.572146E-16	5.023366E-18
6.020756E+03	1.574306E-16	5.029885E-18
6.030658E+03	1.576515E-16	5.036563E-18
6.040561E+03	1.578878E-16	5.043735E-18
6.050463E+03	1.581411E-16	5.051455E-18
6.060366E+03	1.584212E-16	5.060031E-18
6.070269E+03	1.587363E-16	5.069731E-18
6.080171E+03	1.590933E-16	5.080770E-18
6.090074E+03	1.594992E-16	5.093371E-18
6.099976E+03	1.599648E-16	5.107884E-18
6.109879E+03	1.604988E-16	5.124580E-18
6.119781E+03	1.611088E-16	5.143709E-18
6.129684E+03	1.618012E-16	5.165466E-18
6.139586E+03	1.625815E-16	5.190036E-18
6.149489E+03	1.634473E-16	5.217333E-18
6.159392E+03	1.643876E-16	5.247013E-18
6.169294E+03	1.653984E-16	5.278942E-18
6.179197E+03	1.664687E-16	5.312773E-18
6.189099E+03	1.675890E-16	5.348202E-18
6.199002E+03	1.687547E-16	5.385079E-18
6.208904E+03	1.699565E-16	5.423109E-18
6.218807E+03	1.711881E-16	5.462090E-18
6.228709E+03	1.724412E-16	5.501760E-18
6.238612E+03	1.737081E-16	5.541868E-18
6.248515E+03	1.749884E-16	5.582405E-18
6.258417E+03	1.762707E-16	5.623006E-18
6.268320E+03	1.775535E-16	5.663622E-18
6.278222E+03	1.788284E-16	5.703988E-18
6.288125E+03	1.800950E-16	5.744088E-18
6.298027E+03	1.813457E-16	5.783681E-18
6.307930E+03	1.825784E-16	5.822703E-18
6.317833E+03	1.837915E-16	5.861098E-18
6.327735E+03	1.849758E-16	5.898574E-18
6.337638E+03	1.861329E-16	5.935184E-18
6.347540E+03	1.872594E-16	5.970818E-18
6.357443E+03	1.883521E-16	6.005376E-18
6.367345E+03	1.894111E-16	6.038858E-18
6.377248E+03	1.904364E-16	6.071268E-18
6.387150E+03	1.914287E-16	6.102625E-18
6.397053E+03	1.923859E-16	6.132867E-18
6.406956E+03	1.933063E-16	6.161933E-18
6.416858E+03	1.941911E-16	6.189867E-18
6.426761E+03	1.950331E-16	6.216436E-18
6.436663E+03	1.958369E-16	6.241790E-18
6.446566E+03	1.966016E-16	6.265896E-18
6.456468E+03	1.973262E-16	6.288730E-18
6.466371E+03	1.980103E-16	6.310270E-18
6.476273E+03	1.986534E-16	6.330507E-18
6.486176E+03	1.992584E-16	6.349529E-18
6.496079E+03	1.998221E-16	6.367237E-18
6.505981E+03	2.003479E-16	6.383738E-18
6.515884E+03	2.008361E-16	6.399043E-18
6.525786E+03	2.012838E-16	6.413061E-18
6.535689E+03	2.016950E-16	6.425914E-18
6.545591E+03	2.020702E-16	6.437625E-18
6.555494E+03	2.024104E-16	6.448219E-18
6.565396E+03	2.027163E-16	6.457724E-18
6.575299E+03	2.029887E-16	6.466164E-18
6.585202E+03	2.032287E-16	6.473572E-18
6.595104E+03	2.034335E-16	6.479862E-18
6.605007E+03	2.036074E-16	6.485171E-18
6.614909E+03	2.037478E-16	6.489412E-18
6.624812E+03	2.038587E-16	6.492717E-18
6.634714E+03	2.039409E-16	6.495109E-18
6.644617E+03	2.039912E-16	6.496488E-18
6.654520E+03	2.040101E-16	6.496869E-18
6.664422E+03	2.040013E-16	6.496372E-18
6.674325E+03	2.039581E-16	6.494780E-18
6.684227E+03	2.038877E-16	6.492322E-18
6.694130E+03	2.037865E-16	6.488889E-18
6.704032E+03	2.036509E-16	6.484362E-18
6.713935E+03	2.034845E-16	6.478858E-18
6.723837E+03	2.032872E-16	6.472372E-18
6.733740E+03	2.030553E-16	6.464788E-18
6.743643E+03	2.027924E-16	6.456219E-18
6.753545E+03	2.024949E-16	6.446550E-18
6.763448E+03	2.021663E-16	6.435896E-18
6.773350E+03	2.017994E-16	6.424026E-18
6.783253E+03	2.014018E-16	6.411183E-18
6.793155E+03	2.009663E-16	6.397136E-18
6.803058E+03	2.005007E-16	6.382134E-18
6.812960E+03	1.999980E-16	6.365954E-18
6.822863E+03	1.994624E-16	6.348731E-18
6.832766E+03	1.988908E-16	6.330366E-18
6.842668E+03	1.982876E-16	6.311001E-18
6.852571E+03	1.976500E-16	6.290542E-18
6.862473E+03	1.969823E-16	6.269133E-18
6.872376E+03	1.962782E-16	6.246565E-18
6.882278E+03	1.955460E-16	6.223109E-18
6.892181E+03	1.947829E-16	6.198677E-18
6.902083E+03	1.939864E-16	6.173183E-18
6.911986E+03	1.931648E-16	6.146899E-18
6.921889E+03	1.923119E-16	6.119621E-18
6.931791E+03	1.914326E-16	6.091506E-18
6.941694E+03	1.905242E-16	6.062472E-18
6.951596E+03	1.895917E-16	6.032676E-18
6.961499E+03	1.886325E-16	6.002035E-18
6.971401E+03	1.876516E-16	5.970712E-18
6.981304E+03	1.866429E-16	5.938508E-18
6.991207E+03	1.856151E-16	5.905701E-18
7.001109E+03	1.845622E-16	5.872102E-18
7.011012E+03	1.834930E-16	5.837989E-18
7.020914E+03	1.824015E-16	5.803174E-18
7.030817E+03	1.812930E-16	5.767820E-18
7.040719E+03	1.801653E-16	5.731864E-18
7.050622E+03	1.790236E-16	5.695469E-18
7.060524E+03	1.778696E-16	5.658689E-18
7.070427E+03	1.766978E-16	5.621345E-18
7.080330E+03	1.755169E-16	5.583721E-18
7.090232E+03	1.743287E-16	5.545871E-18
7.100135E+03	1.731277E-16	5.507621E-18
7.110037E+03	1.719193E-16	5.469138E-18
7.119940E+03	1.707051E-16	5.430479E-18
7.129842E+03	1.694832E-16	5.391582E-18
7.139745E+03	1.682622E-16	5.352721E-18
7.149647E+03	1.670367E-16	5.313721E-18
7.159550E+03	1.658081E-16	5.274630E-18
7.169453E+03	1.645813E-16	5.235603E-18
7.179355E+03	1.633508E-16	5.196463E-18
7.189258E+03	1.621245E-16	5.157465E-18
7.199160E+03	1.609002E-16	5.118537E-18
7.209063E+03	1.596790E-16	5.079713E-18
7.218965E+03	1.584585E-16	5.040919E-18
7.228868E+03	1.572399E-16	5.002192E-18
7.238770E+03	1.560275E-16	4.963668E-18
7.248673E+03	1.548190E-16	4.925276E-18
7.258576E+03	1.536124E-16	4.886953E-18
7.268478E+03	1.524093E-16	4.848744E-18
7.278381E+03	1.512109E-16	4.810694E-18
7.288283E+03	1.500192E-16	4.772865E-18
7.298186E+03	1.488332E-16	4.735221E-18
7.308088E+03	1.476521E-16	4.697742E-18
7.317991E+03	1.464789E-16	4.660520E-18
7.327894E+03	1.453108E-16	4.623465E-18
7.337796E+03	1.441579E-16	4.586903E-18
7.347699E+03	1.430154E-16	4.550680E-18
7.357601E+03	1.418886E-16	4.514961E-18
7.367504E+03	1.407863E-16	4.480028E-18
7.377406E+03	1.397178E-16	4.446177E-18
7.387309E+03	1.386870E-16	4.413534E-18
7.397211E+03	1.377072E-16	4.382522E-18
7.407114E+03	1.367860E-16	4.353381E-18
7.417017E+03	1.359368E-16	4.326534E-18
7.426919E+03	1.351632E-16	4.302106E-18
7.436822E+03	1.344772E-16	4.280467E-18
7.446724E+03	1.338791E-16	4.261636E-18
7.456627E+03	1.333633E-16	4.245428E-18
7.466529E+03	1.329257E-16	4.231718E-18
7.476432E+03	1.325560E-16	4.220177E-18
7.486334E+03	1.322529E-16	4.210760E-18
7.496237E+03	1.320065E-16	4.203155E-18
7.506140E+03	1.318105E-16	4.197165E-18
7.516042E+03	1.316626E-16	4.192709E-18
7.525945E+03	1.315577E-16	4.189633E-18
7.535847E+03	1.314919E-16	4.187808E-18
7.545750E+03	1.314586E-16	4.187023E-18
7.555652E+03	1.314607E-16	4.187373E-18
7.565555E+03	1.314896E-16	4.188586E-18
7.575457E+03	1.315492E-16	4.190781E-18
7.585360E+03	1.316314E-16	4.193706E-18
7.595263E+03	1.317406E-16	4.197495E-18
7.605165E+03	1.318691E-16	4.201910E-18
7.615068E+03	1.320218E-16	4.207099E-18
7.624970E+03	1.321940E-16	4.212921E-18
7.634873E+03	1.323848E-16	4.219340E-18
7.644775E+03	1.325897E-16	4.226216E-18
7.654678E+03	1.328137E-16	4.233710E-18
7.664581E+03	1.330527E-16	4.241687E-18
7.674483E+03	1.333054E-16	4.250112E-18
7.684386E+03	1.335676E-16	4.258846E-18
