#wls	flux	fluxerr
1.584409E+03	1.090899E-16	1.928936E-17
1.624020E+03	1.132696E-16	2.002776E-17
1.663630E+03	1.170283E-16	2.069162E-17
1.703240E+03	1.203087E-16	2.127083E-17
1.742850E+03	1.230044E-16	2.174657E-17
1.782461E+03	1.250366E-16	2.210493E-17
1.822071E+03	1.262273E-16	2.231446E-17
1.861681E+03	1.264429E-16	2.235154E-17
1.901291E+03	1.255286E-16	2.218882E-17
1.940902E+03	1.233495E-16	2.180252E-17
1.980512E+03	1.199227E-16	2.119567E-17
2.020122E+03	1.154508E-16	2.040413E-17
2.059732E+03	1.104494E-16	1.951904E-17
2.099342E+03	1.057167E-16	1.868150E-17
2.138953E+03	1.020576E-16	1.803370E-17
2.178563E+03	9.987463E-17	1.764675E-17
2.218173E+03	9.895545E-17	1.748308E-17
2.257783E+03	9.865240E-17	1.742822E-17
2.297394E+03	9.825849E-17	1.735726E-17
2.337004E+03	9.729091E-17	1.718491E-17
2.376614E+03	9.549839E-17	1.686683E-17
2.416224E+03	9.283501E-17	1.639495E-17
2.455835E+03	8.936051E-17	1.577985E-17
2.495445E+03	8.520780E-17	1.504505E-17
2.535055E+03	8.052130E-17	1.421609E-17
2.574665E+03	7.545412E-17	1.332005E-17
2.614276E+03	7.014032E-17	1.238060E-17
2.653886E+03	6.470232E-17	1.141940E-17
2.693496E+03	5.924870E-17	1.045561E-17
2.733106E+03	5.386844E-17	9.504944E-18
2.772716E+03	4.863884E-17	8.581061E-18
2.812327E+03	4.362375E-17	7.695217E-18
2.851937E+03	3.887724E-17	6.856951E-18
2.891547E+03	3.444352E-17	6.074049E-18
2.931157E+03	3.035453E-17	5.352134E-18
2.970768E+03	2.663056E-17	4.694762E-18
2.980670E+03	2.575767E-17	4.540690E-18
2.990573E+03	2.490759E-17	4.390652E-18
3.000475E+03	2.408123E-17	4.244803E-18
3.010378E+03	2.327721E-17	4.102903E-18
3.020280E+03	2.249631E-17	3.965091E-18
3.030183E+03	2.173819E-17	3.831302E-18
3.040086E+03	2.100319E-17	3.701596E-18
3.049988E+03	2.029081E-17	3.575890E-18
3.059891E+03	1.960266E-17	3.454461E-18
3.069793E+03	1.893702E-17	3.337009E-18
3.079696E+03	1.829391E-17	3.223536E-18
3.089598E+03	1.767254E-17	3.113902E-18
3.099501E+03	1.707187E-17	3.007924E-18
3.109403E+03	1.649192E-17	2.905606E-18
3.119306E+03	1.593175E-17	2.806780E-18
3.129209E+03	1.539107E-17	2.711397E-18
3.139111E+03	1.486931E-17	2.619353E-18
3.149014E+03	1.436592E-17	2.530554E-18
3.158916E+03	1.388066E-17	2.444955E-18
3.168819E+03	1.341300E-17	2.362463E-18
3.178721E+03	1.296224E-17	2.282955E-18
3.188624E+03	1.252838E-17	2.206432E-18
3.198526E+03	1.211078E-17	2.132778E-18
3.208429E+03	1.170924E-17	2.061957E-18
3.218332E+03	1.132333E-17	1.993897E-18
3.228234E+03	1.095250E-17	1.928497E-18
3.238137E+03	1.059670E-17	1.865749E-18
3.248039E+03	1.025518E-17	1.805522E-18
3.257942E+03	9.927870E-18	1.747802E-18
3.267844E+03	9.614361E-18	1.692516E-18
3.277747E+03	9.313937E-18	1.639539E-18
3.287650E+03	9.026490E-18	1.588852E-18
3.297552E+03	8.751593E-18	1.540378E-18
3.307455E+03	8.488728E-18	1.494026E-18
3.317357E+03	8.237491E-18	1.449726E-18
3.327260E+03	7.997499E-18	1.407408E-18
3.337162E+03	7.768373E-18	1.367007E-18
3.347065E+03	7.549738E-18	1.328456E-18
3.356967E+03	7.341225E-18	1.291689E-18
3.366870E+03	7.142380E-18	1.256628E-18
3.376773E+03	6.952771E-18	1.223194E-18
3.386675E+03	6.772244E-18	1.191362E-18
3.396578E+03	6.600215E-18	1.161028E-18
3.406480E+03	6.436460E-18	1.132152E-18
3.416383E+03	6.280598E-18	1.104667E-18
3.426285E+03	6.132346E-18	1.078524E-18
3.436188E+03	5.991281E-18	1.053647E-18
3.446090E+03	5.857081E-18	1.029980E-18
3.455993E+03	5.729507E-18	1.007481E-18
3.465896E+03	5.608197E-18	9.860853E-19
3.475798E+03	5.492941E-18	9.657562E-19
3.485701E+03	5.383297E-18	9.464159E-19
3.495603E+03	5.279089E-18	9.280333E-19
3.505506E+03	5.179981E-18	9.105490E-19
3.515408E+03	5.085716E-18	8.939179E-19
3.525311E+03	4.996053E-18	8.780971E-19
3.535213E+03	4.910664E-18	8.630294E-19
3.545116E+03	4.829444E-18	8.486957E-19
3.555019E+03	4.752145E-18	8.350527E-19
3.564921E+03	4.678538E-18	8.220596E-19
3.574824E+03	4.608539E-18	8.097019E-19
3.584726E+03	4.541894E-18	7.979345E-19
3.594629E+03	4.478450E-18	7.867308E-19
3.604531E+03	4.418062E-18	7.760650E-19
3.614434E+03	4.360594E-18	7.659133E-19
3.624337E+03	4.305918E-18	7.562527E-19
3.634239E+03	4.253908E-18	7.470615E-19
3.644142E+03	4.204488E-18	7.383259E-19
3.654044E+03	4.157580E-18	7.300323E-19
3.663947E+03	4.113071E-18	7.221606E-19
3.673849E+03	4.070999E-18	7.147175E-19
3.683752E+03	4.031217E-18	7.076770E-19
3.693654E+03	3.993721E-18	7.010387E-19
3.703557E+03	3.958440E-18	6.947894E-19
3.713460E+03	3.925331E-18	6.889220E-19
3.723362E+03	3.894420E-18	6.834407E-19
3.733265E+03	3.865565E-18	6.783207E-19
3.743167E+03	3.838787E-18	6.735656E-19
3.753070E+03	3.814075E-18	6.691730E-19
3.762972E+03	3.791319E-18	6.651240E-19
3.772875E+03	3.770536E-18	6.614212E-19
3.782777E+03	3.751710E-18	6.580620E-19
3.792680E+03	3.734766E-18	6.550328E-19
3.802583E+03	3.719657E-18	6.523255E-19
3.812485E+03	3.706428E-18	6.499478E-19
3.822388E+03	3.694972E-18	6.478809E-19
3.832290E+03	3.685303E-18	6.461272E-19
3.842193E+03	3.677376E-18	6.446788E-19
3.852095E+03	3.671177E-18	6.435328E-19
3.861998E+03	3.666687E-18	6.426863E-19
3.871900E+03	3.663834E-18	6.421264E-19
3.881803E+03	3.662606E-18	6.418507E-19
3.891706E+03	3.663016E-18	6.418615E-19
3.901608E+03	3.665021E-18	6.421514E-19
3.911511E+03	3.668580E-18	6.427129E-19
3.921413E+03	3.673680E-18	6.435436E-19
3.931316E+03	3.680280E-18	6.446365E-19
3.941218E+03	3.688368E-18	6.459891E-19
3.951121E+03	3.697931E-18	6.475993E-19
3.961024E+03	3.708960E-18	6.494653E-19
3.970926E+03	3.721388E-18	6.515754E-19
3.980829E+03	3.735205E-18	6.539277E-19
3.990731E+03	3.750405E-18	6.565210E-19
4.000634E+03	3.766981E-18	6.593539E-19
4.010536E+03	3.784898E-18	6.624205E-19
4.020439E+03	3.804123E-18	6.657145E-19
4.030341E+03	3.824652E-18	6.692356E-19
4.040244E+03	3.846451E-18	6.729776E-19
4.050147E+03	3.869521E-18	6.769404E-19
4.060049E+03	3.893828E-18	6.811182E-19
4.069952E+03	3.919370E-18	6.855104E-19
4.079854E+03	3.946118E-18	6.901118E-19
4.089757E+03	3.974036E-18	6.949163E-19
4.099659E+03	4.003127E-18	6.999241E-19
4.109562E+03	4.033358E-18	7.051293E-19
4.119464E+03	4.064730E-18	7.105322E-19
4.129367E+03	4.097182E-18	7.161219E-19
4.139270E+03	4.130714E-18	7.218984E-19
4.149172E+03	4.165266E-18	7.278509E-19
4.159075E+03	4.200871E-18	7.339855E-19
4.168977E+03	4.237469E-18	7.402912E-19
4.178880E+03	4.275061E-18	7.467684E-19
4.188782E+03	4.313553E-18	7.534003E-19
4.198685E+03	4.352977E-18	7.601928E-19
4.208587E+03	4.393236E-18	7.671285E-19
4.218490E+03	4.434364E-18	7.742135E-19
4.228393E+03	4.476258E-18	7.814297E-19
4.238295E+03	4.518848E-18	7.887647E-19
4.248198E+03	4.562170E-18	7.962246E-19
4.258100E+03	4.606078E-18	8.037842E-19
4.268003E+03	4.650610E-18	8.114499E-19
4.277905E+03	4.695618E-18	8.191957E-19
4.287808E+03	4.741138E-18	8.270278E-19
4.297711E+03	4.787096E-18	8.349334E-19
4.307613E+03	4.833413E-18	8.428988E-19
4.317516E+03	4.880091E-18	8.509238E-19
4.327418E+03	4.927087E-18	8.590011E-19
4.337321E+03	4.974440E-18	8.671376E-19
4.347223E+03	5.022070E-18	8.753191E-19
4.357126E+03	5.070056E-18	8.835595E-19
4.367028E+03	5.118401E-18	8.918590E-19
4.376931E+03	5.167109E-18	9.002184E-19
4.386834E+03	5.216182E-18	9.086380E-19
4.396736E+03	5.265669E-18	9.171262E-19
4.406639E+03	5.315535E-18	9.256769E-19
4.416541E+03	5.365832E-18	9.342991E-19
4.426444E+03	5.416570E-18	9.429945E-19
4.436346E+03	5.467763E-18	9.517653E-19
4.446249E+03	5.519378E-18	9.606057E-19
4.456151E+03	5.571424E-18	9.695175E-19
4.466054E+03	5.623869E-18	9.784946E-19
4.475957E+03	5.676769E-18	9.875470E-19
4.485859E+03	5.730041E-18	9.966601E-19
4.495762E+03	5.783693E-18	1.005835E-18
4.505664E+03	5.837736E-18	1.015074E-18
4.515567E+03	5.892080E-18	1.024361E-18
4.525469E+03	5.946786E-18	1.033707E-18
4.535372E+03	6.001762E-18	1.043096E-18
4.545274E+03	6.057021E-18	1.052529E-18
4.555177E+03	6.112472E-18	1.061991E-18
4.565080E+03	6.168182E-18	1.071494E-18
4.574982E+03	6.224118E-18	1.081031E-18
4.584885E+03	6.280191E-18	1.090587E-18
4.594787E+03	6.336424E-18	1.100167E-18
4.604690E+03	6.392841E-18	1.109774E-18
4.614592E+03	6.449415E-18	1.119403E-18
4.624495E+03	6.506063E-18	1.129041E-18
4.634398E+03	6.562929E-18	1.138711E-18
4.644300E+03	6.620053E-18	1.148421E-18
4.654203E+03	6.677361E-18	1.158158E-18
4.664105E+03	6.734893E-18	1.167929E-18
4.674008E+03	6.792698E-18	1.177742E-18
4.683910E+03	6.850643E-18	1.187574E-18
4.693813E+03	6.908778E-18	1.197433E-18
4.703715E+03	6.967029E-18	1.207308E-18
4.713618E+03	7.025452E-18	1.217207E-18
4.723521E+03	7.084042E-18	1.227129E-18
4.733423E+03	7.142727E-18	1.237062E-18
4.743326E+03	7.201568E-18	1.247017E-18
4.753228E+03	7.260498E-18	1.256982E-18
4.763131E+03	7.319582E-18	1.266967E-18
4.773033E+03	7.378751E-18	1.276962E-18
4.782936E+03	7.438005E-18	1.286965E-18
4.792838E+03	7.497344E-18	1.296977E-18
4.802741E+03	7.556837E-18	1.307010E-18
4.812644E+03	7.616416E-18	1.317051E-18
4.822546E+03	7.676078E-18	1.327101E-18
4.832449E+03	7.735747E-18	1.337146E-18
4.842351E+03	7.795564E-18	1.347211E-18
4.852254E+03	7.855450E-18	1.357281E-18
4.862156E+03	7.915395E-18	1.367355E-18
4.872059E+03	7.975314E-18	1.377418E-18
4.881961E+03	8.035263E-18	1.387479E-18
4.891864E+03	8.095149E-18	1.397524E-18
4.901767E+03	8.154953E-18	1.407547E-18
4.911669E+03	8.214728E-18	1.417559E-18
4.921572E+03	8.274374E-18	1.427542E-18
4.931474E+03	8.333866E-18	1.437492E-18
4.941377E+03	8.393097E-18	1.447390E-18
4.951279E+03	8.452115E-18	1.457244E-18
4.961182E+03	8.510888E-18	1.467050E-18
4.971085E+03	8.569300E-18	1.476786E-18
4.980987E+03	8.627309E-18	1.486446E-18
4.990890E+03	8.684874E-18	1.496022E-18
5.000792E+03	8.741864E-18	1.505492E-18
5.010695E+03	8.798317E-18	1.514863E-18
5.020597E+03	8.854186E-18	1.524126E-18
5.030500E+03	8.909253E-18	1.533244E-18
5.040402E+03	8.963555E-18	1.542224E-18
5.050305E+03	9.017047E-18	1.551056E-18
5.060208E+03	9.069600E-18	1.559721E-18
5.070110E+03	9.121174E-18	1.568210E-18
5.080013E+03	9.171729E-18	1.576517E-18
5.089915E+03	9.221230E-18	1.584636E-18
5.099818E+03	9.269556E-18	1.592545E-18
5.109720E+03	9.316760E-18	1.600256E-18
5.119623E+03	9.362626E-18	1.607729E-18
5.129525E+03	9.407206E-18	1.614975E-18
5.139428E+03	9.450364E-18	1.621970E-18
5.149331E+03	9.492058E-18	1.628707E-18
5.159233E+03	9.532225E-18	1.635176E-18
5.169136E+03	9.570818E-18	1.641368E-18
5.179038E+03	9.607569E-18	1.647238E-18
5.188941E+03	9.642600E-18	1.652807E-18
5.198843E+03	9.675731E-18	1.658044E-18
5.208746E+03	9.706884E-18	1.662935E-18
5.218648E+03	9.735851E-18	1.667447E-18
5.228551E+03	9.762554E-18	1.671565E-18
5.238454E+03	9.786879E-18	1.675270E-18
5.248356E+03	9.808739E-18	1.678548E-18
5.258259E+03	9.828048E-18	1.681384E-18
5.268161E+03	9.844626E-18	1.683748E-18
5.278064E+03	9.858594E-18	1.685661E-18
5.287966E+03	9.869705E-18	1.687081E-18
5.297869E+03	9.877921E-18	1.688002E-18
5.307772E+03	9.883383E-18	1.688448E-18
5.317674E+03	9.885901E-18	1.688388E-18
5.327577E+03	9.885644E-18	1.687850E-18
5.337479E+03	9.882528E-18	1.686821E-18
5.347382E+03	9.876674E-18	1.685321E-18
5.357284E+03	9.867988E-18	1.683336E-18
5.367187E+03	9.856725E-18	1.680908E-18
5.377089E+03	9.842819E-18	1.678028E-18
5.386992E+03	9.826432E-18	1.674723E-18
5.396895E+03	9.807449E-18	1.670974E-18
5.406797E+03	9.786032E-18	1.666809E-18
5.416700E+03	9.762200E-18	1.662231E-18
5.426602E+03	9.735944E-18	1.657240E-18
5.436505E+03	9.707474E-18	1.651871E-18
5.446407E+03	9.676742E-18	1.646118E-18
5.456310E+03	9.643758E-18	1.639981E-18
5.466212E+03	9.608676E-18	1.633487E-18
5.476115E+03	9.571438E-18	1.626628E-18
5.486018E+03	9.532302E-18	1.619446E-18
5.495920E+03	9.491127E-18	1.611920E-18
5.505823E+03	9.448255E-18	1.604106E-18
5.515725E+03	9.403750E-18	1.596016E-18
5.525628E+03	9.357666E-18	1.587660E-18
5.535530E+03	9.310153E-18	1.579064E-18
5.545433E+03	9.261357E-18	1.570251E-18
5.555335E+03	9.211326E-18	1.561232E-18
5.565238E+03	9.160383E-18	1.552061E-18
5.575141E+03	9.108469E-18	1.542727E-18
5.585043E+03	9.055892E-18	1.533284E-18
5.594946E+03	9.002581E-18	1.523720E-18
5.604848E+03	8.948829E-18	1.514083E-18
5.614751E+03	8.894736E-18	1.504393E-18
5.624653E+03	8.840306E-18	1.494648E-18
5.634556E+03	8.785718E-18	1.484879E-18
5.644459E+03	8.731055E-18	1.475102E-18
5.654361E+03	8.676484E-18	1.465343E-18
5.664264E+03	8.622077E-18	1.455615E-18
5.674166E+03	8.567811E-18	1.445914E-18
5.684069E+03	8.513930E-18	1.436282E-18
5.693971E+03	8.460495E-18	1.426728E-18
5.703874E+03	8.407472E-18	1.417248E-18
5.713776E+03	8.355011E-18	1.407865E-18
5.723679E+03	8.303252E-18	1.398604E-18
5.733582E+03	8.252250E-18	1.389474E-18
5.743484E+03	8.201968E-18	1.380468E-18
5.753387E+03	8.152549E-18	1.371611E-18
5.763289E+03	8.104134E-18	1.362925E-18
5.773192E+03	8.056776E-18	1.354421E-18
5.783094E+03	8.010443E-18	1.346092E-18
5.792997E+03	7.965278E-18	1.337961E-18
5.802899E+03	7.921336E-18	1.330039E-18
5.812802E+03	7.878763E-18	1.322350E-18
5.822705E+03	7.837614E-18	1.314902E-18
5.832607E+03	7.797863E-18	1.307690E-18
5.842510E+03	7.759651E-18	1.300739E-18
5.852412E+03	7.722945E-18	1.294043E-18
5.862315E+03	7.688054E-18	1.287652E-18
5.872217E+03	7.654763E-18	1.281530E-18
5.882120E+03	7.623198E-18	1.275699E-18
5.892022E+03	7.593478E-18	1.270178E-18
5.901925E+03	7.565546E-18	1.264957E-18
5.911828E+03	7.539424E-18	1.260039E-18
5.921730E+03	7.515216E-18	1.255441E-18
5.931633E+03	7.492849E-18	1.251151E-18
5.941535E+03	7.472418E-18	1.247184E-18
5.951438E+03	7.453754E-18	1.243511E-18
5.961340E+03	7.437030E-18	1.240162E-18
5.971243E+03	7.422071E-18	1.237106E-18
5.981146E+03	7.409045E-18	1.234371E-18
5.991048E+03	7.397680E-18	1.231911E-18
6.000951E+03	7.388139E-18	1.229753E-18
6.010853E+03	7.380319E-18	1.227880E-18
6.020756E+03	7.374203E-18	1.226287E-18
6.030658E+03	7.369595E-18	1.224944E-18
6.040561E+03	7.366649E-18	1.223873E-18
6.050463E+03	7.365075E-18	1.223028E-18
6.060366E+03	7.365023E-18	1.222432E-18
6.070269E+03	7.366196E-18	1.222035E-18
6.080171E+03	7.368560E-18	1.221833E-18
6.090074E+03	7.371990E-18	1.221804E-18
6.099976E+03	7.376449E-18	1.221941E-18
6.109879E+03	7.381622E-18	1.222192E-18
6.119781E+03	7.387462E-18	1.222550E-18
6.129684E+03	7.393829E-18	1.222990E-18
6.139586E+03	7.400674E-18	1.223504E-18
6.149489E+03	7.407941E-18	1.224084E-18
6.159392E+03	7.415768E-18	1.224751E-18
6.169294E+03	7.424392E-18	1.225545E-18
6.179197E+03	7.433861E-18	1.226474E-18
6.189099E+03	7.444330E-18	1.227562E-18
6.199002E+03	7.455951E-18	1.228835E-18
6.208904E+03	7.468792E-18	1.230303E-18
6.218807E+03	7.483019E-18	1.231994E-18
6.228709E+03	7.498707E-18	1.233919E-18
6.238612E+03	7.515935E-18	1.236091E-18
6.248515E+03	7.534888E-18	1.238540E-18
6.258417E+03	7.555557E-18	1.241263E-18
6.268320E+03	7.578139E-18	1.244294E-18
6.278222E+03	7.602526E-18	1.247613E-18
6.288125E+03	7.628821E-18	1.251237E-18
6.298027E+03	7.657023E-18	1.255165E-18
6.307930E+03	7.687246E-18	1.259415E-18
6.317833E+03	7.719385E-18	1.263969E-18
6.327735E+03	7.753448E-18	1.268829E-18
6.337638E+03	7.789329E-18	1.273976E-18
6.347540E+03	7.826808E-18	1.279374E-18
6.357443E+03	7.865769E-18	1.285003E-18
6.367345E+03	7.906208E-18	1.290862E-18
6.377248E+03	7.948125E-18	1.296951E-18
6.387150E+03	7.991518E-18	1.303269E-18
6.397053E+03	8.036505E-18	1.309834E-18
6.406956E+03	8.083214E-18	1.316667E-18
6.416858E+03	8.131655E-18	1.323769E-18
6.426761E+03	8.181713E-18	1.331121E-18
6.436663E+03	8.233649E-18	1.338764E-18
6.446566E+03	8.287479E-18	1.346701E-18
6.456468E+03	8.343093E-18	1.354912E-18
6.466371E+03	8.400636E-18	1.363422E-18
6.476273E+03	8.460129E-18	1.372232E-18
6.486176E+03	8.521459E-18	1.381324E-18
6.496079E+03	8.584643E-18	1.390700E-18
6.505981E+03	8.649975E-18	1.400407E-18
6.515884E+03	8.717065E-18	1.410380E-18
6.525786E+03	8.786209E-18	1.420668E-18
6.535689E+03	8.857436E-18	1.431273E-18
6.545591E+03	8.930477E-18	1.442153E-18
6.555494E+03	9.005645E-18	1.453356E-18
6.565396E+03	9.082668E-18	1.464838E-18
6.575299E+03	9.161865E-18	1.476650E-18
6.585202E+03	9.242957E-18	1.488746E-18
6.595104E+03	9.326118E-18	1.501153E-18
6.605007E+03	9.411364E-18	1.513874E-18
6.614909E+03	9.498567E-18	1.526886E-18
6.624812E+03	9.587733E-18	1.540191E-18
6.634714E+03	9.679065E-18	1.553819E-18
6.644617E+03	9.772396E-18	1.567743E-18
6.654520E+03	9.867768E-18	1.581970E-18
6.664422E+03	9.965182E-18	1.596498E-18
6.674325E+03	1.006467E-17	1.611332E-18
6.684227E+03	1.016626E-17	1.626474E-18
6.694130E+03	1.026995E-17	1.641927E-18
6.704032E+03	1.037561E-17	1.657664E-18
6.713935E+03	1.048342E-17	1.673717E-18
6.723837E+03	1.059341E-17	1.690089E-18
6.733740E+03	1.070540E-17	1.706750E-18
6.743643E+03	1.081962E-17	1.723736E-18
6.753545E+03	1.093589E-17	1.741016E-18
6.763448E+03	1.105422E-17	1.758593E-18
6.773350E+03	1.117463E-17	1.776467E-18
6.783253E+03	1.129714E-17	1.794643E-18
6.793155E+03	1.142197E-17	1.813153E-18
6.803058E+03	1.154872E-17	1.831934E-18
6.812960E+03	1.167762E-17	1.851019E-18
6.822863E+03	1.180867E-17	1.870411E-18
6.832766E+03	1.194168E-17	1.890077E-18
6.842668E+03	1.207689E-17	1.910052E-18
6.852571E+03	1.221430E-17	1.930339E-18
6.862473E+03	1.235371E-17	1.950902E-18
6.872376E+03	1.249511E-17	1.971740E-18
6.882278E+03	1.263874E-17	1.992893E-18
6.892181E+03	1.278440E-17	2.014323E-18
6.902083E+03	1.293207E-17	2.036029E-18
6.911986E+03	1.308176E-17	2.058011E-18
6.921889E+03	1.323347E-17	2.080268E-18
6.931791E+03	1.338694E-17	2.102759E-18
6.941694E+03	1.354268E-17	2.125563E-18
6.951596E+03	1.370018E-17	2.148598E-18
6.961499E+03	1.385969E-17	2.171904E-18
6.971401E+03	1.402092E-17	2.195434E-18
6.981304E+03	1.418389E-17	2.219189E-18
6.991207E+03	1.434884E-17	2.243207E-18
7.001109E+03	1.451548E-17	2.267443E-18
7.011012E+03	1.468350E-17	2.291846E-18
7.020914E+03	1.485348E-17	2.316505E-18
7.030817E+03	1.502510E-17	2.341371E-18
7.040719E+03	1.519803E-17	2.366391E-18
7.050622E+03	1.537255E-17	2.391609E-18
7.060524E+03	1.554833E-17	2.416971E-18
7.070427E+03	1.572564E-17	2.442520E-18
7.080330E+03	1.590415E-17	2.468202E-18
7.090232E+03	1.608413E-17	2.494061E-18
7.100135E+03	1.626489E-17	2.519988E-18
7.110037E+03	1.644673E-17	2.546029E-18
7.119940E+03	1.662994E-17	2.572228E-18
7.129842E+03	1.681380E-17	2.598473E-18
7.139745E+03	1.699823E-17	2.624753E-18
7.149647E+03	1.718357E-17	2.651117E-18
7.159550E+03	1.736974E-17	2.677555E-18
7.169453E+03	1.755633E-17	2.704002E-18
7.179355E+03	1.774367E-17	2.730508E-18
7.189258E+03	1.793131E-17	2.757005E-18
7.199160E+03	1.811916E-17	2.783479E-18
7.209063E+03	1.830756E-17	2.809981E-18
7.218965E+03	1.849605E-17	2.836439E-18
7.228868E+03	1.868493E-17	2.862900E-18
7.238770E+03	1.887371E-17	2.889290E-18
7.248673E+03	1.906231E-17	2.915594E-18
7.258576E+03	1.925147E-17	2.941929E-18
7.268478E+03	1.944028E-17	2.968151E-18
7.278381E+03	1.962949E-17	2.994378E-18
7.288283E+03	1.981860E-17	3.020534E-18
7.298186E+03	2.000801E-17	3.046677E-18
7.308088E+03	2.019810E-17	3.072866E-18
7.317991E+03	2.038839E-17	3.099027E-18
7.327894E+03	2.057976E-17	3.125296E-18
7.337796E+03	2.077224E-17	3.151674E-18
7.347699E+03	2.096629E-17	3.178232E-18
7.357601E+03	2.116197E-17	3.204979E-18
7.367504E+03	2.135930E-17	3.231916E-18
7.377406E+03	2.155884E-17	3.259127E-18
7.387309E+03	2.175964E-17	3.286469E-18
7.397211E+03	2.196176E-17	3.313947E-18
7.407114E+03	2.216470E-17	3.341491E-18
7.417017E+03	2.236904E-17	3.369183E-18
7.426919E+03	2.257428E-17	3.396950E-18
7.436822E+03	2.277995E-17	3.424719E-18
7.446724E+03	2.298606E-17	3.452493E-18
7.456627E+03	2.319264E-17	3.480276E-18
7.466529E+03	2.339918E-17	3.507991E-18
7.476432E+03	2.360625E-17	3.535725E-18
7.486334E+03	2.381279E-17	3.563316E-18
7.496237E+03	2.401994E-17	3.590939E-18
7.506140E+03	2.422719E-17	3.618514E-18
7.516042E+03	2.443456E-17	3.646047E-18
7.525945E+03	2.464148E-17	3.673451E-18
7.535847E+03	2.484854E-17	3.700815E-18
7.545750E+03	2.505573E-17	3.728138E-18
7.555652E+03	2.526301E-17	3.755413E-18
7.565555E+03	2.546969E-17	3.782539E-18
7.575457E+03	2.567629E-17	3.809593E-18
7.585360E+03	2.588206E-17	3.836464E-18
7.595263E+03	2.608813E-17	3.863320E-18
7.605165E+03	2.629238E-17	3.889849E-18
7.615068E+03	2.649658E-17	3.916311E-18
7.624970E+03	2.669987E-17	3.942581E-18
7.634873E+03	2.690135E-17	3.968525E-18
7.644775E+03	2.710144E-17	3.994208E-18
7.654678E+03	2.729989E-17	4.019594E-18
7.664581E+03	2.749643E-17	4.044642E-18
7.674483E+03	2.769078E-17	4.069315E-18
7.684386E+03	2.788337E-17	4.093674E-18
