#wls	flux	fluxerr
1.584409E+03	1.397567E-16	2.550780E-17
1.624020E+03	1.457689E-16	2.658055E-17
1.663630E+03	1.514735E-16	2.759460E-17
1.703240E+03	1.568437E-16	2.854520E-17
1.742850E+03	1.617721E-16	2.941288E-17
1.782461E+03	1.661166E-16	3.017202E-17
1.822071E+03	1.696973E-16	3.079023E-17
1.861681E+03	1.722708E-16	3.122376E-17
1.901291E+03	1.735894E-16	3.142831E-17
1.940902E+03	1.734344E-16	3.136505E-17
1.980512E+03	1.716929E-16	3.101445E-17
2.020122E+03	1.685858E-16	3.041738E-17
2.059732E+03	1.647454E-16	2.968868E-17
2.099342E+03	1.612934E-16	2.903077E-17
2.138953E+03	1.595048E-16	2.867263E-17
2.178563E+03	1.601529E-16	2.875195E-17
2.218173E+03	1.630882E-16	2.924022E-17
2.257783E+03	1.674551E-16	2.998256E-17
2.297394E+03	1.720943E-16	3.077054E-17
2.337004E+03	1.760750E-16	3.143769E-17
2.376614E+03	1.788154E-16	3.188073E-17
2.416224E+03	1.800512E-16	3.205347E-17
2.455835E+03	1.797439E-16	3.195024E-17
2.495445E+03	1.779484E-16	3.158204E-17
2.535055E+03	1.748115E-16	3.097610E-17
2.574665E+03	1.704686E-16	3.015759E-17
2.614276E+03	1.650723E-16	2.915452E-17
2.653886E+03	1.587652E-16	2.799307E-17
2.693496E+03	1.516964E-16	2.670040E-17
2.733106E+03	1.440044E-16	2.530166E-17
2.772716E+03	1.358249E-16	2.382137E-17
2.812327E+03	1.273025E-16	2.228545E-17
2.851937E+03	1.185755E-16	2.071854E-17
2.891547E+03	1.097872E-16	1.914601E-17
2.931157E+03	1.010762E-16	1.759220E-17
2.970768E+03	9.257182E-17	1.607965E-17
2.980670E+03	9.049142E-17	1.571029E-17
2.990573E+03	8.843303E-17	1.534507E-17
3.000475E+03	8.639787E-17	1.498421E-17
3.010378E+03	8.438901E-17	1.462824E-17
3.020280E+03	8.240569E-17	1.427703E-17
3.030183E+03	8.044898E-17	1.393074E-17
3.040086E+03	7.852429E-17	1.359032E-17
3.049988E+03	7.663216E-17	1.325585E-17
3.059891E+03	7.477931E-17	1.292848E-17
3.069793E+03	7.296351E-17	1.260782E-17
3.079696E+03	7.118409E-17	1.229376E-17
3.089598E+03	6.944352E-17	1.198670E-17
3.099501E+03	6.773862E-17	1.168609E-17
3.109403E+03	6.607042E-17	1.139210E-17
3.119306E+03	6.443886E-17	1.110470E-17
3.129209E+03	6.284489E-17	1.082407E-17
3.139111E+03	6.128730E-17	1.054997E-17
3.149014E+03	5.976713E-17	1.028258E-17
3.158916E+03	5.828425E-17	1.002187E-17
3.168819E+03	5.683761E-17	9.767648E-18
3.178721E+03	5.542823E-17	9.520080E-18
3.188624E+03	5.405699E-17	9.279310E-18
3.198526E+03	5.272188E-17	9.044983E-18
3.208429E+03	5.142470E-17	8.817397E-18
3.218332E+03	5.016356E-17	8.596221E-18
3.228234E+03	4.894084E-17	8.381853E-18
3.238137E+03	4.775389E-17	8.173829E-18
3.248039E+03	4.660336E-17	7.972252E-18
3.257942E+03	4.548976E-17	7.777197E-18
3.267844E+03	4.441205E-17	7.588480E-18
3.277747E+03	4.337063E-17	7.406158E-18
3.287650E+03	4.236381E-17	7.229934E-18
3.297552E+03	4.139193E-17	7.059856E-18
3.307455E+03	4.045461E-17	6.895849E-18
3.317357E+03	3.955142E-17	6.737832E-18
3.327260E+03	3.868192E-17	6.585719E-18
3.337162E+03	3.784510E-17	6.439330E-18
3.347065E+03	3.704050E-17	6.298578E-18
3.356967E+03	3.626766E-17	6.163375E-18
3.366870E+03	3.552609E-17	6.033630E-18
3.376773E+03	3.481481E-17	5.909166E-18
3.386675E+03	3.413333E-17	5.789892E-18
3.396578E+03	3.348116E-17	5.675716E-18
3.406480E+03	3.285735E-17	5.566471E-18
3.416383E+03	3.226142E-17	5.462064E-18
3.426285E+03	3.169288E-17	5.362405E-18
3.436188E+03	3.115045E-17	5.267271E-18
3.446090E+03	3.063407E-17	5.176642E-18
3.455993E+03	3.014289E-17	5.090368E-18
3.465896E+03	2.967611E-17	5.008306E-18
3.475798E+03	2.923331E-17	4.930378E-18
3.485701E+03	2.881338E-17	4.856390E-18
3.495603E+03	2.841597E-17	4.786275E-18
3.505506E+03	2.804038E-17	4.719909E-18
3.515408E+03	2.768595E-17	4.657173E-18
3.525311E+03	2.735204E-17	4.597955E-18
3.535213E+03	2.703807E-17	4.542149E-18
3.545116E+03	2.674316E-17	4.489603E-18
3.555019E+03	2.646708E-17	4.440270E-18
3.564921E+03	2.620901E-17	4.394010E-18
3.574824E+03	2.596876E-17	4.350782E-18
3.584726E+03	2.574531E-17	4.310410E-18
3.594629E+03	2.553876E-17	4.272907E-18
3.604531E+03	2.534790E-17	4.238064E-18
3.614434E+03	2.517260E-17	4.205853E-18
3.624337E+03	2.501223E-17	4.176166E-18
3.634239E+03	2.486669E-17	4.148981E-18
3.644142E+03	2.473515E-17	4.124152E-18
3.654044E+03	2.461751E-17	4.101662E-18
3.663947E+03	2.451324E-17	4.081415E-18
3.673849E+03	2.442227E-17	4.063394E-18
3.683752E+03	2.434404E-17	4.047505E-18
3.693654E+03	2.427876E-17	4.033774E-18
3.703557E+03	2.422565E-17	4.022071E-18
3.713460E+03	2.418491E-17	4.012422E-18
3.723362E+03	2.415624E-17	4.004774E-18
3.733265E+03	2.413958E-17	3.999115E-18
3.743167E+03	2.413466E-17	3.995393E-18
3.753070E+03	2.414163E-17	3.993629E-18
3.762972E+03	2.416000E-17	3.993738E-18
3.772875E+03	2.418991E-17	3.995741E-18
3.782777E+03	2.423130E-17	3.999621E-18
3.792680E+03	2.428410E-17	4.005364E-18
3.802583E+03	2.434824E-17	4.012952E-18
3.812485E+03	2.442342E-17	4.022335E-18
3.822388E+03	2.450998E-17	4.033563E-18
3.832290E+03	2.460786E-17	4.046620E-18
3.842193E+03	2.471673E-17	4.061452E-18
3.852095E+03	2.483674E-17	4.078074E-18
3.861998E+03	2.496776E-17	4.096466E-18
3.871900E+03	2.510993E-17	4.116641E-18
3.881803E+03	2.526290E-17	4.138542E-18
3.891706E+03	2.542700E-17	4.162217E-18
3.901608E+03	2.560188E-17	4.187604E-18
3.911511E+03	2.578786E-17	4.214752E-18
3.921413E+03	2.598458E-17	4.243596E-18
3.931316E+03	2.619188E-17	4.274109E-18
3.941218E+03	2.641006E-17	4.306333E-18
3.951121E+03	2.663873E-17	4.340200E-18
3.961024E+03	2.687793E-17	4.375714E-18
3.970926E+03	2.712746E-17	4.412838E-18
3.980829E+03	2.738736E-17	4.451574E-18
3.990731E+03	2.765742E-17	4.491882E-18
4.000634E+03	2.793739E-17	4.533719E-18
4.010536E+03	2.822726E-17	4.577080E-18
4.020439E+03	2.852701E-17	4.621954E-18
4.030341E+03	2.883587E-17	4.668218E-18
4.040244E+03	2.915427E-17	4.715932E-18
4.050147E+03	2.948139E-17	4.764965E-18
4.060049E+03	2.981738E-17	4.815333E-18
4.069952E+03	3.016162E-17	4.866933E-18
4.079854E+03	3.051397E-17	4.919741E-18
4.089757E+03	3.087400E-17	4.973683E-18
4.099659E+03	3.124127E-17	5.028685E-18
4.109562E+03	3.161529E-17	5.084665E-18
4.119464E+03	3.199556E-17	5.141539E-18
4.129367E+03	3.238178E-17	5.199258E-18
4.139270E+03	3.277339E-17	5.257727E-18
4.149172E+03	3.316951E-17	5.316805E-18
4.159075E+03	3.356949E-17	5.376384E-18
4.168977E+03	3.397262E-17	5.436350E-18
4.178880E+03	3.437847E-17	5.496633E-18
4.188782E+03	3.478600E-17	5.557062E-18
4.198685E+03	3.519440E-17	5.617512E-18
4.208587E+03	3.560255E-17	5.677799E-18
4.218490E+03	3.600986E-17	5.737833E-18
4.228393E+03	3.641511E-17	5.797418E-18
4.238295E+03	3.681739E-17	5.856409E-18
4.248198E+03	3.721570E-17	5.914650E-18
4.258100E+03	3.760846E-17	5.971890E-18
4.268003E+03	3.799524E-17	6.028066E-18
4.277905E+03	3.837443E-17	6.082921E-18
4.287808E+03	3.874498E-17	6.136293E-18
4.297711E+03	3.910556E-17	6.187978E-18
4.307613E+03	3.945584E-17	6.237923E-18
4.317516E+03	3.979388E-17	6.285830E-18
4.327418E+03	4.011948E-17	6.331671E-18
4.337321E+03	4.043188E-17	6.375331E-18
4.347223E+03	4.073076E-17	6.416766E-18
4.357126E+03	4.101634E-17	6.456014E-18
4.367028E+03	4.128863E-17	6.493085E-18
4.376931E+03	4.154850E-17	6.528120E-18
4.386834E+03	4.179557E-17	6.561065E-18
4.396736E+03	4.203096E-17	6.592100E-18
4.406639E+03	4.225482E-17	6.621257E-18
4.416541E+03	4.246775E-17	6.648630E-18
4.426444E+03	4.267112E-17	6.674441E-18
4.436346E+03	4.286454E-17	6.698631E-18
4.446249E+03	4.304985E-17	6.721494E-18
4.456151E+03	4.322672E-17	6.742979E-18
4.466054E+03	4.339669E-17	6.763330E-18
4.475957E+03	4.356021E-17	6.782619E-18
4.485859E+03	4.371809E-17	6.800976E-18
4.495762E+03	4.387116E-17	6.818532E-18
4.505664E+03	4.401948E-17	6.835297E-18
4.515567E+03	4.416465E-17	6.851523E-18
4.525469E+03	4.430671E-17	6.867215E-18
4.535372E+03	4.444646E-17	6.882498E-18
4.545274E+03	4.458470E-17	6.897499E-18
4.555177E+03	4.472221E-17	6.912337E-18
4.565080E+03	4.485938E-17	6.927071E-18
4.574982E+03	4.499653E-17	6.941754E-18
4.584885E+03	4.513440E-17	6.956497E-18
4.594787E+03	4.527371E-17	6.971410E-18
4.604690E+03	4.541517E-17	6.986604E-18
4.614592E+03	4.555863E-17	7.002051E-18
4.624495E+03	4.570516E-17	7.017919E-18
4.634398E+03	4.585501E-17	7.034240E-18
4.644300E+03	4.600837E-17	7.051044E-18
4.654203E+03	4.616586E-17	7.068425E-18
4.664105E+03	4.632765E-17	7.086404E-18
4.674008E+03	4.649388E-17	7.105002E-18
4.683910E+03	4.666467E-17	7.124235E-18
4.693813E+03	4.684012E-17	7.144118E-18
4.703715E+03	4.702032E-17	7.164658E-18
4.713618E+03	4.720531E-17	7.185863E-18
4.723521E+03	4.739514E-17	7.207735E-18
4.733423E+03	4.758937E-17	7.230207E-18
4.743326E+03	4.778844E-17	7.253343E-18
4.753228E+03	4.799141E-17	7.276998E-18
4.763131E+03	4.819915E-17	7.301301E-18
4.773033E+03	4.841067E-17	7.326100E-18
4.782936E+03	4.862633E-17	7.351449E-18
4.792838E+03	4.884604E-17	7.377331E-18
4.802741E+03	4.906871E-17	7.403579E-18
4.812644E+03	4.929515E-17	7.430314E-18
4.822546E+03	4.952471E-17	7.457437E-18
4.832449E+03	4.975769E-17	7.484991E-18
4.842351E+03	4.999244E-17	7.512725E-18
4.852254E+03	5.023018E-17	7.540824E-18
4.862156E+03	5.046970E-17	7.569103E-18
4.872059E+03	5.071124E-17	7.597596E-18
4.881961E+03	5.095402E-17	7.626186E-18
4.891864E+03	5.119824E-17	7.654903E-18
4.901767E+03	5.144259E-17	7.683549E-18
4.911669E+03	5.168721E-17	7.712146E-18
4.921572E+03	5.193228E-17	7.740720E-18
4.931474E+03	5.217639E-17	7.769060E-18
4.941377E+03	5.241913E-17	7.797106E-18
4.951279E+03	5.266059E-17	7.824871E-18
4.961182E+03	5.290034E-17	7.852294E-18
4.971085E+03	5.313685E-17	7.879145E-18
4.980987E+03	5.337013E-17	7.905431E-18
4.990890E+03	5.359968E-17	7.931076E-18
5.000792E+03	5.382494E-17	7.956000E-18
5.010695E+03	5.404478E-17	7.980039E-18
5.020597E+03	5.425861E-17	8.003107E-18
5.030500E+03	5.446632E-17	8.025191E-18
5.040402E+03	5.466617E-17	8.046038E-18
5.050305E+03	5.485800E-17	8.065629E-18
5.060208E+03	5.504055E-17	8.083780E-18
5.070110E+03	5.521307E-17	8.100388E-18
5.080013E+03	5.537479E-17	8.115344E-18
5.089915E+03	5.552492E-17	8.128538E-18
5.099818E+03	5.566210E-17	8.139776E-18
5.109720E+03	5.578608E-17	8.149026E-18
5.119623E+03	5.589488E-17	8.156009E-18
5.129525E+03	5.598824E-17	8.160692E-18
5.139428E+03	5.606476E-17	8.162880E-18
5.149331E+03	5.612361E-17	8.162461E-18
5.159233E+03	5.616398E-17	8.159323E-18
5.169136E+03	5.618508E-17	8.153363E-18
5.179038E+03	5.618502E-17	8.144316E-18
5.188941E+03	5.616422E-17	8.132254E-18
5.198843E+03	5.612033E-17	8.116845E-18
5.208746E+03	5.605387E-17	8.098178E-18
5.218648E+03	5.596322E-17	8.076030E-18
5.228551E+03	5.584849E-17	8.050427E-18
5.238454E+03	5.570878E-17	8.021255E-18
5.248356E+03	5.554334E-17	7.988416E-18
5.258259E+03	5.535263E-17	7.951989E-18
5.268161E+03	5.513557E-17	7.911833E-18
5.278064E+03	5.489292E-17	7.868070E-18
5.287966E+03	5.462447E-17	7.820682E-18
5.297869E+03	5.433019E-17	7.769678E-18
5.307772E+03	5.401076E-17	7.715168E-18
5.317674E+03	5.366704E-17	7.657290E-18
5.327577E+03	5.330006E-17	7.596201E-18
5.337479E+03	5.290999E-17	7.531936E-18
5.347382E+03	5.249871E-17	7.464778E-18
5.357284E+03	5.206730E-17	7.394886E-18
5.367187E+03	5.161797E-17	7.322589E-18
5.377089E+03	5.115156E-17	7.248013E-18
5.386992E+03	5.067161E-17	7.171668E-18
5.396895E+03	5.018071E-17	7.093928E-18
5.406797E+03	4.968401E-17	7.015526E-18
5.416700E+03	4.918267E-17	6.936629E-18
5.426602E+03	4.867548E-17	6.857068E-18
5.436505E+03	4.816233E-17	6.776831E-18
5.446407E+03	4.764458E-17	6.696114E-18
5.456310E+03	4.712550E-17	6.615374E-18
5.466212E+03	4.660587E-17	6.534725E-18
5.476115E+03	4.608926E-17	6.454665E-18
5.486018E+03	4.557681E-17	6.375353E-18
5.495920E+03	4.507099E-17	6.297132E-18
5.505823E+03	4.457417E-17	6.220328E-18
5.515725E+03	4.408860E-17	6.145250E-18
5.525628E+03	4.361552E-17	6.072069E-18
5.535530E+03	4.315697E-17	6.001057E-18
5.545433E+03	4.271484E-17	5.932474E-18
5.555335E+03	4.229043E-17	5.866491E-18
5.565238E+03	4.188494E-17	5.803263E-18
5.575141E+03	4.150025E-17	5.743043E-18
5.585043E+03	4.113682E-17	5.685884E-18
5.594946E+03	4.079583E-17	5.631938E-18
5.604848E+03	4.047789E-17	5.581279E-18
5.614751E+03	4.018391E-17	5.534019E-18
5.624653E+03	3.991424E-17	5.490195E-18
5.634556E+03	3.966911E-17	5.449827E-18
5.644459E+03	3.944908E-17	5.412979E-18
5.654361E+03	3.925457E-17	5.379697E-18
5.664264E+03	3.908512E-17	5.349903E-18
5.674166E+03	3.894099E-17	5.323621E-18
5.684069E+03	3.882196E-17	5.300810E-18
5.693971E+03	3.872776E-17	5.281418E-18
5.703874E+03	3.865886E-17	5.265499E-18
5.713776E+03	3.861408E-17	5.252877E-18
5.723679E+03	3.859381E-17	5.243596E-18
5.733582E+03	3.859721E-17	5.237526E-18
5.743484E+03	3.862420E-17	5.234647E-18
5.753387E+03	3.867432E-17	5.234884E-18
5.763289E+03	3.874706E-17	5.238156E-18
5.773192E+03	3.884234E-17	5.244440E-18
5.783094E+03	3.895923E-17	5.253600E-18
5.792997E+03	3.909762E-17	5.265612E-18
5.802899E+03	3.925703E-17	5.280397E-18
5.812802E+03	3.943648E-17	5.297817E-18
5.822705E+03	3.963636E-17	5.317908E-18
5.832607E+03	3.985525E-17	5.340476E-18
5.842510E+03	4.009354E-17	5.365560E-18
5.852412E+03	4.035028E-17	5.393023E-18
5.862315E+03	4.062496E-17	5.422787E-18
5.872217E+03	4.091752E-17	5.454838E-18
5.882120E+03	4.122655E-17	5.488977E-18
5.892022E+03	4.155200E-17	5.525188E-18
5.901925E+03	4.189382E-17	5.563458E-18
5.911828E+03	4.225056E-17	5.603586E-18
5.921730E+03	4.262219E-17	5.645561E-18
5.931633E+03	4.300821E-17	5.689308E-18
5.941535E+03	4.340763E-17	5.734690E-18
5.951438E+03	4.381995E-17	5.781633E-18
5.961340E+03	4.424468E-17	5.830068E-18
5.971243E+03	4.468084E-17	5.879858E-18
5.981146E+03	4.512796E-17	5.930937E-18
5.991048E+03	4.558613E-17	5.983312E-18
6.000951E+03	4.605336E-17	6.036715E-18
6.010853E+03	4.653036E-17	6.091236E-18
6.020756E+03	4.701514E-17	6.146609E-18
6.030658E+03	4.750854E-17	6.202940E-18
6.040561E+03	4.800864E-17	6.259977E-18
6.050463E+03	4.851583E-17	6.317765E-18
6.060366E+03	4.902885E-17	6.376140E-18
6.070269E+03	4.954827E-17	6.435170E-18
6.080171E+03	5.007291E-17	6.494703E-18
6.090074E+03	5.060224E-17	6.554664E-18
6.099976E+03	5.113695E-17	6.615145E-18
6.109879E+03	5.167582E-17	6.675982E-18
6.119781E+03	5.221938E-17	6.737247E-18
6.129684E+03	5.276733E-17	6.798895E-18
6.139586E+03	5.331905E-17	6.860848E-18
6.149489E+03	5.387357E-17	6.922980E-18
6.159392E+03	5.443111E-17	6.985315E-18
6.169294E+03	5.499019E-17	7.047669E-18
6.179197E+03	5.555004E-17	7.109938E-18
6.189099E+03	5.610981E-17	7.172018E-18
6.199002E+03	5.667027E-17	7.234007E-18
6.208904E+03	5.722930E-17	7.295634E-18
6.218807E+03	5.778628E-17	7.356824E-18
6.228709E+03	5.834153E-17	7.417618E-18
6.238612E+03	5.889471E-17	7.477973E-18
6.248515E+03	5.944481E-17	7.537765E-18
6.258417E+03	5.999089E-17	7.596875E-18
6.268320E+03	6.053371E-17	7.655402E-18
6.278222E+03	6.107175E-17	7.713156E-18
6.288125E+03	6.160508E-17	7.770149E-18
6.298027E+03	6.213314E-17	7.826313E-18
6.307930E+03	6.265535E-17	7.881579E-18
6.317833E+03	6.317117E-17	7.935881E-18
6.327735E+03	6.368018E-17	7.989173E-18
6.337638E+03	6.418183E-17	8.041387E-18
6.347540E+03	6.467492E-17	8.092379E-18
6.357443E+03	6.515991E-17	8.142211E-18
6.367345E+03	6.563648E-17	8.190848E-18
6.377248E+03	6.610531E-17	8.238379E-18
6.387150E+03	6.656714E-17	8.284901E-18
6.397053E+03	6.702073E-17	8.330265E-18
6.406956E+03	6.746799E-17	8.374712E-18
6.416858E+03	6.790879E-17	8.418229E-18
6.426761E+03	6.834413E-17	8.460947E-18
6.436663E+03	6.877283E-17	8.502720E-18
6.446566E+03	6.919705E-17	8.543822E-18
6.456468E+03	6.961570E-17	8.584120E-18
6.466371E+03	7.002991E-17	8.623757E-18
6.476273E+03	7.043863E-17	8.662608E-18
6.486176E+03	7.084298E-17	8.700814E-18
6.496079E+03	7.124418E-17	8.738527E-18
6.505981E+03	7.164004E-17	8.775483E-18
6.515884E+03	7.203172E-17	8.811828E-18
6.525786E+03	7.242050E-17	8.847719E-18
6.535689E+03	7.280408E-17	8.882881E-18
6.545591E+03	7.318483E-17	8.917605E-18
6.555494E+03	7.356041E-17	8.951610E-18
6.565396E+03	7.393329E-17	8.985199E-18
6.575299E+03	7.430107E-17	9.018085E-18
6.585202E+03	7.466492E-17	9.050414E-18
6.595104E+03	7.502480E-17	9.082183E-18
6.605007E+03	7.537941E-17	9.113240E-18
6.614909E+03	7.573003E-17	9.143743E-18
6.624812E+03	7.607520E-17	9.173520E-18
6.634714E+03	7.641479E-17	9.202560E-18
6.644617E+03	7.675006E-17	9.231017E-18
6.654520E+03	7.707945E-17	9.258711E-18
6.664422E+03	7.740149E-17	9.285468E-18
6.674325E+03	7.771867E-17	9.311593E-18
6.684227E+03	7.802800E-17	9.336733E-18
6.694130E+03	7.833069E-17	9.361038E-18
6.704032E+03	7.862645E-17	9.384477E-18
6.713935E+03	7.891357E-17	9.406854E-18
6.723837E+03	7.919183E-17	9.428148E-18
6.733740E+03	7.946082E-17	9.448316E-18
6.743643E+03	7.972175E-17	9.467509E-18
6.753545E+03	7.997287E-17	9.485527E-18
6.763448E+03	8.021231E-17	9.502153E-18
6.773350E+03	8.044125E-17	9.517536E-18
6.783253E+03	8.065936E-17	9.531643E-18
6.793155E+03	8.086635E-17	9.544448E-18
6.803058E+03	8.106032E-17	9.555735E-18
6.812960E+03	8.124099E-17	9.565479E-18
6.822863E+03	8.140956E-17	9.573829E-18
6.832766E+03	8.156425E-17	9.580584E-18
6.842668E+03	8.170472E-17	9.585713E-18
6.852571E+03	8.183073E-17	9.589196E-18
6.862473E+03	8.194204E-17	9.591015E-18
6.872376E+03	8.203841E-17	9.591151E-18
6.882278E+03	8.211966E-17	9.589591E-18
6.892181E+03	8.218411E-17	9.586147E-18
6.902083E+03	8.223152E-17	9.580804E-18
6.911986E+03	8.226346E-17	9.573751E-18
6.921889E+03	8.227978E-17	9.564981E-18
6.931791E+03	8.227738E-17	9.554143E-18
6.941694E+03	8.225940E-17	9.541610E-18
6.951596E+03	8.222427E-17	9.527211E-18
6.961499E+03	8.217216E-17	9.510973E-18
6.971401E+03	8.210160E-17	9.492736E-18
6.981304E+03	8.201435E-17	9.472713E-18
6.991207E+03	8.191063E-17	9.450937E-18
7.001109E+03	8.179081E-17	9.427461E-18
7.011012E+03	8.165357E-17	9.402139E-18
7.020914E+03	8.149930E-17	9.375025E-18
7.030817E+03	8.132999E-17	9.346357E-18
7.040719E+03	8.114452E-17	9.316014E-18
7.050622E+03	8.094185E-17	9.283883E-18
7.060524E+03	8.072566E-17	9.250393E-18
7.070427E+03	8.049508E-17	9.215454E-18
7.080330E+03	8.025065E-17	9.179130E-18
7.090232E+03	7.999139E-17	9.141319E-18
7.100135E+03	7.971971E-17	9.102302E-18
7.110037E+03	7.943639E-17	9.062171E-18
7.119940E+03	7.914046E-17	9.020823E-18
7.129842E+03	7.883279E-17	8.978361E-18
7.139745E+03	7.851584E-17	8.935070E-18
7.149647E+03	7.818878E-17	8.890861E-18
7.159550E+03	7.785249E-17	8.845836E-18
7.169453E+03	7.750785E-17	8.800099E-18
7.179355E+03	7.715580E-17	8.753761E-18
7.189258E+03	7.679566E-17	8.706745E-18
7.199160E+03	7.643157E-17	8.659527E-18
7.209063E+03	7.606285E-17	8.612027E-18
7.218965E+03	7.568738E-17	8.564012E-18
7.228868E+03	7.531089E-17	8.516128E-18
7.238770E+03	7.492968E-17	8.467960E-18
7.248673E+03	7.454799E-17	8.419987E-18
7.258576E+03	7.416541E-17	8.372164E-18
7.268478E+03	7.378310E-17	8.324621E-18
7.278381E+03	7.340074E-17	8.277325E-18
7.288283E+03	7.301957E-17	8.230413E-18
7.298186E+03	7.264098E-17	8.184044E-18
7.308088E+03	7.226646E-17	8.138383E-18
7.317991E+03	7.189437E-17	8.093247E-18
7.327894E+03	7.152790E-17	8.048995E-18
7.337796E+03	7.116568E-17	8.005470E-18
7.347699E+03	7.080800E-17	7.962707E-18
7.357601E+03	7.045523E-17	7.920744E-18
7.367504E+03	7.011095E-17	7.879984E-18
7.377406E+03	6.977719E-17	7.840656E-18
7.387309E+03	6.945918E-17	7.803344E-18
7.397211E+03	6.916208E-17	7.768629E-18
7.407114E+03	6.888640E-17	7.736566E-18
7.417017E+03	6.863548E-17	7.707528E-18
7.426919E+03	6.841373E-17	7.682005E-18
7.436822E+03	6.821891E-17	7.659739E-18
7.446724E+03	6.805419E-17	7.641082E-18
7.456627E+03	6.791892E-17	7.625955E-18
7.466529E+03	6.781181E-17	7.614209E-18
7.476432E+03	6.773134E-17	7.605671E-18
7.486334E+03	6.767547E-17	7.600106E-18
7.496237E+03	6.764393E-17	7.597485E-18
7.506140E+03	6.763323E-17	7.597411E-18
7.516042E+03	6.764306E-17	7.599848E-18
7.525945E+03	6.767016E-17	7.604427E-18
7.535847E+03	6.771443E-17	7.611138E-18
7.545750E+03	6.777440E-17	7.619811E-18
7.555652E+03	6.784712E-17	7.630116E-18
7.565555E+03	6.793275E-17	7.642068E-18
7.575457E+03	6.803017E-17	7.655541E-18
7.585360E+03	6.813658E-17	7.670219E-18
7.595263E+03	6.825250E-17	7.686159E-18
7.605165E+03	6.837538E-17	7.703074E-18
7.615068E+03	6.850752E-17	7.721221E-18
7.624970E+03	6.864474E-17	7.740130E-18
7.634873E+03	6.878786E-17	7.759891E-18
7.644775E+03	6.893445E-17	7.780229E-18
7.654678E+03	6.908542E-17	7.801246E-18
7.664581E+03	6.924000E-17	7.822854E-18
7.674483E+03	6.939760E-17	7.844984E-18
7.684386E+03	6.955582E-17	7.867365E-18
