#wls	flux	fluxerr
1.584409E+03	1.119955E-16	2.667323E-17
1.624020E+03	1.166967E-16	2.779254E-17
1.663630E+03	1.210311E-16	2.882444E-17
1.703240E+03	1.249169E-16	2.974948E-17
1.742850E+03	1.282802E-16	3.055005E-17
1.782461E+03	1.309883E-16	3.119457E-17
1.822071E+03	1.328864E-16	3.164614E-17
1.861681E+03	1.338010E-16	3.186346E-17
1.901291E+03	1.335436E-16	3.180170E-17
1.940902E+03	1.319750E-16	3.142768E-17
1.980512E+03	1.290691E-16	3.073518E-17
2.020122E+03	1.250294E-16	2.977274E-17
2.059732E+03	1.203917E-16	2.866791E-17
2.099342E+03	1.160218E-16	2.762685E-17
2.138953E+03	1.128120E-16	2.686207E-17
2.178563E+03	1.112590E-16	2.649181E-17
2.218173E+03	1.111707E-16	2.647029E-17
2.257783E+03	1.118359E-16	2.662816E-17
2.297394E+03	1.124741E-16	2.677961E-17
2.337004E+03	1.124902E-16	2.678291E-17
2.376614E+03	1.115415E-16	2.655647E-17
2.416224E+03	1.095041E-16	2.607085E-17
2.455835E+03	1.064016E-16	2.533167E-17
2.495445E+03	1.023463E-16	2.436566E-17
2.535055E+03	9.747878E-17	2.320631E-17
2.574665E+03	9.196177E-17	2.189239E-17
2.614276E+03	8.594958E-17	2.046064E-17
2.653886E+03	7.958596E-17	1.894529E-17
2.693496E+03	7.301509E-17	1.738067E-17
2.733106E+03	6.636454E-17	1.579715E-17
2.772716E+03	5.975228E-17	1.422281E-17
2.812327E+03	5.328425E-17	1.268289E-17
2.851937E+03	4.705707E-17	1.120036E-17
2.891547E+03	4.116179E-17	9.796906E-18
2.931157E+03	3.568012E-17	8.491965E-18
2.970768E+03	3.067014E-17	7.299356E-18
2.980670E+03	2.949546E-17	7.019735E-18
2.990573E+03	2.835375E-17	6.747964E-18
3.000475E+03	2.724359E-17	6.483705E-18
3.010378E+03	2.616561E-17	6.227107E-18
3.020280E+03	2.512082E-17	5.978412E-18
3.030183E+03	2.410783E-17	5.737290E-18
3.040086E+03	2.312776E-17	5.504003E-18
3.049988E+03	2.218108E-17	5.278668E-18
3.059891E+03	2.126813E-17	5.061364E-18
3.069793E+03	2.038796E-17	4.851862E-18
3.079696E+03	1.954050E-17	4.650149E-18
3.089598E+03	1.872442E-17	4.455905E-18
3.099501E+03	1.793926E-17	4.269022E-18
3.109403E+03	1.718416E-17	4.089296E-18
3.119306E+03	1.645830E-17	3.916533E-18
3.129209E+03	1.576121E-17	3.750618E-18
3.139111E+03	1.509237E-17	3.591426E-18
3.149014E+03	1.445039E-17	3.438628E-18
3.158916E+03	1.383529E-17	3.292231E-18
3.168819E+03	1.324600E-17	3.151978E-18
3.178721E+03	1.268195E-17	3.017732E-18
3.188624E+03	1.214233E-17	2.889302E-18
3.198526E+03	1.162614E-17	2.766448E-18
3.208429E+03	1.113318E-17	2.649124E-18
3.218332E+03	1.066209E-17	2.537006E-18
3.228234E+03	1.021262E-17	2.430035E-18
3.238137E+03	9.783979E-18	2.328021E-18
3.248039E+03	9.375058E-18	2.230701E-18
3.257942E+03	8.985568E-18	2.138006E-18
3.267844E+03	8.614452E-18	2.049685E-18
3.277747E+03	8.261117E-18	1.965596E-18
3.287650E+03	7.924840E-18	1.885567E-18
3.297552E+03	7.605025E-18	1.809456E-18
3.307455E+03	7.300862E-18	1.737070E-18
3.317357E+03	7.011685E-18	1.668252E-18
3.327260E+03	6.736845E-18	1.602845E-18
3.337162E+03	6.475805E-18	1.540723E-18
3.347065E+03	6.227857E-18	1.481717E-18
3.356967E+03	5.992417E-18	1.425688E-18
3.366870E+03	5.768917E-18	1.372501E-18
3.376773E+03	5.556742E-18	1.322008E-18
3.386675E+03	5.355375E-18	1.274088E-18
3.396578E+03	5.164321E-18	1.228623E-18
3.406480E+03	4.983044E-18	1.185484E-18
3.416383E+03	4.811092E-18	1.144564E-18
3.426285E+03	4.647981E-18	1.105749E-18
3.436188E+03	4.493252E-18	1.068928E-18
3.446090E+03	4.346471E-18	1.033999E-18
3.455993E+03	4.207185E-18	1.000853E-18
3.465896E+03	4.075061E-18	9.694120E-19
3.475798E+03	3.949691E-18	9.395781E-19
3.485701E+03	3.830656E-18	9.112518E-19
3.495603E+03	3.717530E-18	8.843315E-19
3.505506E+03	3.610036E-18	8.587514E-19
3.515408E+03	3.507800E-18	8.344227E-19
3.525311E+03	3.410416E-18	8.112486E-19
3.535213E+03	3.317607E-18	7.891632E-19
3.545116E+03	3.229090E-18	7.680993E-19
3.555019E+03	3.144568E-18	7.479860E-19
3.564921E+03	3.063741E-18	7.287519E-19
3.574824E+03	2.986446E-18	7.103583E-19
3.584726E+03	2.912470E-18	6.927546E-19
3.594629E+03	2.841616E-18	6.758936E-19
3.604531E+03	2.773823E-18	6.597613E-19
3.614434E+03	2.708952E-18	6.443243E-19
3.624337E+03	2.646891E-18	6.295559E-19
3.634239E+03	2.587553E-18	6.154353E-19
3.644142E+03	2.530851E-18	6.019420E-19
3.654044E+03	2.476673E-18	5.890494E-19
3.663947E+03	2.424975E-18	5.767468E-19
3.673849E+03	2.375628E-18	5.650035E-19
3.683752E+03	2.328565E-18	5.538038E-19
3.693654E+03	2.283740E-18	5.431365E-19
3.703557E+03	2.241010E-18	5.329677E-19
3.713460E+03	2.200366E-18	5.232953E-19
3.723362E+03	2.161673E-18	5.140871E-19
3.733265E+03	2.124904E-18	5.053364E-19
3.743167E+03	2.089981E-18	4.970251E-19
3.753070E+03	2.056827E-18	4.891346E-19
3.762972E+03	2.025386E-18	4.816514E-19
3.772875E+03	1.995585E-18	4.745586E-19
3.782777E+03	1.967371E-18	4.678433E-19
3.792680E+03	1.940692E-18	4.614932E-19
3.802583E+03	1.915483E-18	4.554927E-19
3.812485E+03	1.891696E-18	4.498305E-19
3.822388E+03	1.869284E-18	4.444953E-19
3.832290E+03	1.848190E-18	4.394736E-19
3.842193E+03	1.828369E-18	4.347548E-19
3.852095E+03	1.809782E-18	4.303294E-19
3.861998E+03	1.792377E-18	4.261851E-19
3.871900E+03	1.776115E-18	4.223127E-19
3.881803E+03	1.760948E-18	4.187009E-19
3.891706E+03	1.746857E-18	4.153450E-19
3.901608E+03	1.733795E-18	4.122335E-19
3.911511E+03	1.721731E-18	4.093596E-19
3.921413E+03	1.710611E-18	4.067101E-19
3.931316E+03	1.700433E-18	4.042845E-19
3.941218E+03	1.691144E-18	4.020704E-19
3.951121E+03	1.682718E-18	4.000615E-19
3.961024E+03	1.675119E-18	3.982494E-19
3.970926E+03	1.668338E-18	3.966315E-19
3.980829E+03	1.662328E-18	3.951970E-19
3.990731E+03	1.657079E-18	3.939435E-19
4.000634E+03	1.652548E-18	3.928608E-19
4.010536E+03	1.648730E-18	3.919474E-19
4.020439E+03	1.645580E-18	3.911928E-19
4.030341E+03	1.643082E-18	3.905933E-19
4.040244E+03	1.641223E-18	3.901455E-19
4.050147E+03	1.639984E-18	3.898453E-19
4.060049E+03	1.639328E-18	3.896835E-19
4.069952E+03	1.639242E-18	3.896573E-19
4.079854E+03	1.639701E-18	3.897604E-19
4.089757E+03	1.640693E-18	3.899902E-19
4.099659E+03	1.642206E-18	3.903439E-19
4.109562E+03	1.644206E-18	3.908132E-19
4.119464E+03	1.646693E-18	3.913983E-19
4.129367E+03	1.649637E-18	3.920918E-19
4.139270E+03	1.653024E-18	3.928909E-19
4.149172E+03	1.656851E-18	3.937941E-19
4.159075E+03	1.661082E-18	3.947936E-19
4.168977E+03	1.665711E-18	3.958875E-19
4.178880E+03	1.670719E-18	3.970713E-19
4.188782E+03	1.676112E-18	3.983466E-19
4.198685E+03	1.681847E-18	3.997029E-19
4.208587E+03	1.687930E-18	4.011422E-19
4.218490E+03	1.694333E-18	4.026571E-19
4.228393E+03	1.701062E-18	4.042496E-19
4.238295E+03	1.708074E-18	4.059093E-19
4.248198E+03	1.715367E-18	4.076356E-19
4.258100E+03	1.722936E-18	4.094272E-19
4.268003E+03	1.730738E-18	4.112743E-19
4.277905E+03	1.738784E-18	4.131792E-19
4.287808E+03	1.747015E-18	4.151281E-19
4.297711E+03	1.755445E-18	4.171240E-19
4.307613E+03	1.763999E-18	4.191494E-19
4.317516E+03	1.772677E-18	4.212039E-19
4.327418E+03	1.781516E-18	4.232967E-19
4.337321E+03	1.790514E-18	4.254274E-19
4.347223E+03	1.799688E-18	4.275993E-19
4.357126E+03	1.809033E-18	4.298121E-19
4.367028E+03	1.818526E-18	4.320597E-19
4.376931E+03	1.828193E-18	4.343487E-19
4.386834E+03	1.838009E-18	4.366728E-19
4.396736E+03	1.847977E-18	4.390330E-19
4.406639E+03	1.858083E-18	4.414259E-19
4.416541E+03	1.868332E-18	4.438525E-19
4.426444E+03	1.878698E-18	4.463068E-19
4.436346E+03	1.889202E-18	4.487937E-19
4.446249E+03	1.899818E-18	4.513072E-19
4.456151E+03	1.910536E-18	4.538447E-19
4.466054E+03	1.921382E-18	4.564123E-19
4.475957E+03	1.932312E-18	4.590000E-19
4.485859E+03	1.943339E-18	4.616103E-19
4.495762E+03	1.954469E-18	4.642452E-19
4.505664E+03	1.965681E-18	4.668994E-19
4.515567E+03	1.976987E-18	4.695756E-19
4.525469E+03	1.988365E-18	4.722688E-19
4.535372E+03	1.999827E-18	4.749818E-19
4.545274E+03	2.011371E-18	4.777140E-19
4.555177E+03	2.022994E-18	4.804648E-19
4.565080E+03	2.034675E-18	4.832294E-19
4.574982E+03	2.046449E-18	4.860157E-19
4.584885E+03	2.058279E-18	4.888154E-19
4.594787E+03	2.070182E-18	4.916321E-19
4.604690E+03	2.082159E-18	4.944661E-19
4.614592E+03	2.094190E-18	4.973130E-19
4.624495E+03	2.106316E-18	5.001821E-19
4.634398E+03	2.118499E-18	5.030645E-19
4.644300E+03	2.130760E-18	5.059653E-19
4.654203E+03	2.143140E-18	5.088943E-19
4.664105E+03	2.155621E-18	5.118471E-19
4.674008E+03	2.168230E-18	5.148297E-19
4.683910E+03	2.180988E-18	5.178479E-19
4.693813E+03	2.193900E-18	5.209022E-19
4.703715E+03	2.206973E-18	5.239949E-19
4.713618E+03	2.220254E-18	5.271365E-19
4.723521E+03	2.233710E-18	5.303195E-19
4.733423E+03	2.247388E-18	5.335548E-19
4.743326E+03	2.261297E-18	5.368449E-19
4.753228E+03	2.275424E-18	5.401867E-19
4.763131E+03	2.289821E-18	5.435920E-19
4.773033E+03	2.304476E-18	5.470586E-19
4.782936E+03	2.319399E-18	5.505885E-19
4.792838E+03	2.334601E-18	5.541844E-19
4.802741E+03	2.350092E-18	5.578487E-19
4.812644E+03	2.365926E-18	5.615940E-19
4.822546E+03	2.382049E-18	5.654079E-19
4.832449E+03	2.398518E-18	5.693035E-19
4.842351E+03	2.415321E-18	5.732781E-19
4.852254E+03	2.432493E-18	5.773401E-19
4.862156E+03	2.450023E-18	5.814868E-19
4.872059E+03	2.467924E-18	5.857211E-19
4.881961E+03	2.486231E-18	5.900516E-19
4.891864E+03	2.504909E-18	5.944697E-19
4.901767E+03	2.523993E-18	5.989841E-19
4.911669E+03	2.543498E-18	6.035978E-19
4.921572E+03	2.563432E-18	6.083133E-19
4.931474E+03	2.583786E-18	6.131280E-19
4.941377E+03	2.604571E-18	6.180445E-19
4.951279E+03	2.625820E-18	6.230709E-19
4.961182E+03	2.647499E-18	6.281991E-19
4.971085E+03	2.669666E-18	6.334425E-19
4.980987E+03	2.692282E-18	6.387921E-19
4.990890E+03	2.715356E-18	6.442501E-19
5.000792E+03	2.738923E-18	6.498248E-19
5.010695E+03	2.762970E-18	6.555127E-19
5.020597E+03	2.787503E-18	6.613156E-19
5.030500E+03	2.812503E-18	6.672290E-19
5.040402E+03	2.838007E-18	6.732614E-19
5.050305E+03	2.864022E-18	6.794147E-19
5.060208E+03	2.890501E-18	6.856774E-19
5.070110E+03	2.917477E-18	6.920577E-19
5.080013E+03	2.944955E-18	6.985567E-19
5.089915E+03	2.972941E-18	7.051757E-19
5.099818E+03	3.001414E-18	7.119096E-19
5.109720E+03	3.030375E-18	7.187589E-19
5.119623E+03	3.059799E-18	7.257175E-19
5.129525E+03	3.089748E-18	7.327999E-19
5.139428E+03	3.120164E-18	7.399927E-19
5.149331E+03	3.151048E-18	7.472960E-19
5.159233E+03	3.182400E-18	7.547098E-19
5.169136E+03	3.214252E-18	7.622415E-19
5.179038E+03	3.246539E-18	7.698757E-19
5.188941E+03	3.279258E-18	7.776119E-19
5.198843E+03	3.312469E-18	7.854641E-19
5.208746E+03	3.346071E-18	7.934084E-19
5.218648E+03	3.380121E-18	8.014584E-19
5.228551E+03	3.414580E-18	8.096048E-19
5.238454E+03	3.449440E-18	8.178454E-19
5.248356E+03	3.484723E-18	8.261858E-19
5.258259E+03	3.520349E-18	8.346070E-19
5.268161E+03	3.556339E-18	8.431137E-19
5.278064E+03	3.592676E-18	8.517020E-19
5.287966E+03	3.629344E-18	8.603682E-19
5.297869E+03	3.666359E-18	8.691159E-19
5.307772E+03	3.703629E-18	8.779234E-19
5.317674E+03	3.741167E-18	8.867936E-19
5.327577E+03	3.778947E-18	8.957205E-19
5.337479E+03	3.816904E-18	9.046886E-19
5.347382E+03	3.855082E-18	9.137083E-19
5.357284E+03	3.893413E-18	9.227635E-19
5.367187E+03	3.931823E-18	9.318367E-19
5.377089E+03	3.970273E-18	9.409187E-19
5.386992E+03	4.008762E-18	9.500090E-19
5.396895E+03	4.047168E-18	9.590790E-19
5.406797E+03	4.085484E-18	9.681270E-19
5.416700E+03	4.123663E-18	9.771416E-19
5.426602E+03	4.161568E-18	9.860906E-19
5.436505E+03	4.199146E-18	9.949613E-19
5.446407E+03	4.236381E-18	1.003750E-18
5.456310E+03	4.273170E-18	1.012432E-18
5.466212E+03	4.309409E-18	1.020983E-18
5.476115E+03	4.344986E-18	1.029376E-18
5.486018E+03	4.379924E-18	1.037618E-18
5.495920E+03	4.414020E-18	1.045659E-18
5.505823E+03	4.447247E-18	1.053493E-18
5.515725E+03	4.479489E-18	1.061093E-18
5.525628E+03	4.510671E-18	1.068442E-18
5.535530E+03	4.540723E-18	1.075522E-18
5.545433E+03	4.569521E-18	1.082304E-18
5.555335E+03	4.597040E-18	1.088783E-18
5.565238E+03	4.623162E-18	1.094931E-18
5.575141E+03	4.647769E-18	1.100718E-18
5.585043E+03	4.670887E-18	1.106153E-18
5.594946E+03	4.692403E-18	1.111207E-18
5.604848E+03	4.712205E-18	1.115855E-18
5.614751E+03	4.730283E-18	1.120095E-18
5.624653E+03	4.746629E-18	1.123923E-18
5.634556E+03	4.761095E-18	1.127306E-18
5.644459E+03	4.773685E-18	1.130245E-18
5.654361E+03	4.784407E-18	1.132740E-18
5.664264E+03	4.793176E-18	1.134773E-18
5.674166E+03	4.800011E-18	1.136347E-18
5.684069E+03	4.804841E-18	1.137447E-18
5.693971E+03	4.807697E-18	1.138079E-18
5.703874E+03	4.808570E-18	1.138241E-18
5.713776E+03	4.807505E-18	1.137945E-18
5.723679E+03	4.804402E-18	1.137165E-18
5.733582E+03	4.799425E-18	1.135942E-18
5.743484E+03	4.792483E-18	1.134254E-18
5.753387E+03	4.783653E-18	1.132119E-18
5.763289E+03	4.772959E-18	1.129543E-18
5.773192E+03	4.760436E-18	1.126533E-18
5.783094E+03	4.746174E-18	1.123113E-18
5.792997E+03	4.730221E-18	1.119292E-18
5.802899E+03	4.712623E-18	1.115082E-18
5.812802E+03	4.693384E-18	1.110484E-18
5.822705E+03	4.672668E-18	1.105536E-18
5.832607E+03	4.650485E-18	1.100242E-18
5.842510E+03	4.626954E-18	1.094629E-18
5.852412E+03	4.602092E-18	1.088701E-18
5.862315E+03	4.576022E-18	1.082488E-18
5.872217E+03	4.548821E-18	1.076008E-18
5.882120E+03	4.520561E-18	1.069277E-18
5.892022E+03	4.491323E-18	1.062316E-18
5.901925E+03	4.461182E-18	1.055141E-18
5.911828E+03	4.430267E-18	1.047784E-18
5.921730E+03	4.398556E-18	1.040238E-18
5.931633E+03	4.366224E-18	1.032547E-18
5.941535E+03	4.333301E-18	1.024715E-18
5.951438E+03	4.299858E-18	1.016762E-18
5.961340E+03	4.266022E-18	1.008716E-18
5.971243E+03	4.231762E-18	1.000570E-18
5.981146E+03	4.197250E-18	9.923657E-19
5.991048E+03	4.162452E-18	9.840938E-19
6.000951E+03	4.127484E-18	9.757823E-19
6.010853E+03	4.092408E-18	9.674459E-19
6.020756E+03	4.057238E-18	9.590875E-19
6.030658E+03	4.022027E-18	9.507202E-19
6.040561E+03	3.986833E-18	9.423577E-19
6.050463E+03	3.951709E-18	9.340119E-19
6.060366E+03	3.916702E-18	9.256946E-19
6.070269E+03	3.881860E-18	9.174168E-19
6.080171E+03	3.847227E-18	9.091889E-19
6.090074E+03	3.812844E-18	9.010206E-19
6.099976E+03	3.778798E-18	8.929325E-19
6.109879E+03	3.745168E-18	8.849435E-19
6.119781E+03	3.712039E-18	8.770732E-19
6.129684E+03	3.679437E-18	8.693282E-19
6.139586E+03	3.647389E-18	8.617144E-19
6.149489E+03	3.615872E-18	8.542267E-19
6.159392E+03	3.584908E-18	8.468702E-19
6.169294E+03	3.554519E-18	8.396498E-19
6.179197E+03	3.524672E-18	8.325583E-19
6.189099E+03	3.495432E-18	8.256106E-19
6.199002E+03	3.466908E-18	8.188325E-19
6.208904E+03	3.439066E-18	8.122157E-19
6.218807E+03	3.411959E-18	8.057733E-19
6.228709E+03	3.385693E-18	7.995298E-19
6.238612E+03	3.360226E-18	7.934754E-19
6.248515E+03	3.335705E-18	7.876450E-19
6.258417E+03	3.312180E-18	7.820500E-19
6.268320E+03	3.289608E-18	7.766804E-19
6.278222E+03	3.268132E-18	7.715700E-19
6.288125E+03	3.247799E-18	7.667298E-19
6.298027E+03	3.228610E-18	7.621601E-19
6.307930E+03	3.210615E-18	7.578724E-19
6.317833E+03	3.193954E-18	7.538999E-19
6.327735E+03	3.178582E-18	7.502318E-19
6.337638E+03	3.164546E-18	7.468792E-19
6.347540E+03	3.151942E-18	7.438648E-19
6.357443E+03	3.140632E-18	7.411559E-19
6.367345E+03	3.130524E-18	7.387308E-19
6.377248E+03	3.121573E-18	7.365790E-19
6.387150E+03	3.113736E-18	7.346898E-19
6.397053E+03	3.106918E-18	7.330411E-19
6.406956E+03	3.101122E-18	7.316337E-19
6.416858E+03	3.096302E-18	7.304564E-19
6.426761E+03	3.092457E-18	7.295092E-19
6.436663E+03	3.089544E-18	7.287817E-19
6.446566E+03	3.087562E-18	7.282737E-19
6.456468E+03	3.086513E-18	7.279856E-19
6.466371E+03	3.086348E-18	7.279060E-19
6.476273E+03	3.087119E-18	7.280469E-19
6.486176E+03	3.088827E-18	7.284085E-19
6.496079E+03	3.091423E-18	7.289793E-19
6.505981E+03	3.094959E-18	7.297715E-19
6.515884E+03	3.099385E-18	7.307736E-19
6.525786E+03	3.104707E-18	7.319864E-19
6.535689E+03	3.110975E-18	7.334218E-19
6.545591E+03	3.118089E-18	7.350565E-19
6.555494E+03	3.126204E-18	7.369269E-19
6.565396E+03	3.135170E-18	7.389974E-19
6.575299E+03	3.145094E-18	7.412931E-19
6.585202E+03	3.155924E-18	7.438023E-19
6.595104E+03	3.167666E-18	7.465255E-19
6.605007E+03	3.180375E-18	7.494765E-19
6.614909E+03	3.194002E-18	7.526430E-19
6.624812E+03	3.208551E-18	7.560263E-19
6.634714E+03	3.224025E-18	7.596272E-19
6.644617E+03	3.240483E-18	7.634592E-19
6.654520E+03	3.257820E-18	7.674975E-19
6.664422E+03	3.276151E-18	7.717695E-19
6.674325E+03	3.295426E-18	7.762630E-19
6.684227E+03	3.315649E-18	7.809791E-19
6.694130E+03	3.336823E-18	7.859186E-19
6.704032E+03	3.358957E-18	7.910833E-19
6.713935E+03	3.382115E-18	7.964884E-19
6.723837E+03	3.406181E-18	8.021065E-19
6.733740E+03	3.431221E-18	8.079530E-19
6.743643E+03	3.457242E-18	8.140298E-19
6.753545E+03	3.484249E-18	8.203376E-19
6.763448E+03	3.512247E-18	8.268779E-19
6.773350E+03	3.541244E-18	8.336523E-19
6.783253E+03	3.571245E-18	8.406619E-19
6.793155E+03	3.602189E-18	8.478927E-19
6.803058E+03	3.634149E-18	8.553613E-19
6.812960E+03	3.667130E-18	8.630691E-19
6.822863E+03	3.701071E-18	8.710019E-19
6.832766E+03	3.736043E-18	8.791759E-19
6.842668E+03	3.772055E-18	8.875935E-19
6.852571E+03	3.809041E-18	8.962389E-19
6.862473E+03	3.847004E-18	9.051130E-19
6.872376E+03	3.886020E-18	9.142335E-19
6.882278E+03	3.926024E-18	9.235850E-19
6.892181E+03	3.967018E-18	9.331681E-19
6.902083E+03	4.009081E-18	9.430011E-19
6.911986E+03	4.052142E-18	9.530674E-19
6.921889E+03	4.096204E-18	9.633676E-19
6.931791E+03	4.141191E-18	9.738837E-19
6.941694E+03	4.187263E-18	9.846537E-19
6.951596E+03	4.234344E-18	9.956591E-19
6.961499E+03	4.282438E-18	1.006901E-18
6.971401E+03	4.331460E-18	1.018360E-18
6.981304E+03	4.381496E-18	1.030055E-18
6.991207E+03	4.432460E-18	1.041966E-18
7.001109E+03	4.484528E-18	1.054136E-18
7.011012E+03	4.537433E-18	1.066500E-18
7.020914E+03	4.591353E-18	1.079101E-18
7.030817E+03	4.646196E-18	1.091917E-18
7.040719E+03	4.702051E-18	1.104969E-18
7.050622E+03	4.758729E-18	1.118212E-18
7.060524E+03	4.816414E-18	1.131690E-18
7.070427E+03	4.874908E-18	1.145356E-18
7.080330E+03	4.934301E-18	1.159231E-18
7.090232E+03	4.994590E-18	1.173315E-18
7.100135E+03	5.055766E-18	1.187605E-18
7.110037E+03	5.117718E-18	1.202075E-18
7.119940E+03	5.180431E-18	1.216722E-18
7.129842E+03	5.244005E-18	1.231568E-18
7.139745E+03	5.308316E-18	1.246586E-18
7.149647E+03	5.373469E-18	1.261798E-18
7.159550E+03	5.439216E-18	1.277149E-18
7.169453E+03	5.505776E-18	1.292687E-18
7.179355E+03	5.573017E-18	1.308383E-18
7.189258E+03	5.640919E-18	1.324232E-18
7.199160E+03	5.709465E-18	1.340230E-18
7.209063E+03	5.778636E-18	1.356372E-18
7.218965E+03	5.848409E-18	1.372653E-18
7.228868E+03	5.918897E-18	1.389100E-18
7.238770E+03	5.989816E-18	1.405645E-18
7.248673E+03	6.061541E-18	1.422376E-18
7.258576E+03	6.133925E-18	1.439260E-18
7.268478E+03	6.206809E-18	1.456258E-18
7.278381E+03	6.280592E-18	1.473465E-18
7.288283E+03	6.354981E-18	1.490812E-18
7.298186E+03	6.430395E-18	1.508396E-18
7.308088E+03	6.506684E-18	1.526183E-18
7.317991E+03	6.583992E-18	1.544206E-18
7.327894E+03	6.662473E-18	1.562502E-18
7.337796E+03	6.742136E-18	1.581072E-18
7.347699E+03	6.823305E-18	1.599992E-18
7.357601E+03	6.906165E-18	1.619307E-18
7.367504E+03	6.990583E-18	1.638983E-18
7.377406E+03	7.076582E-18	1.659027E-18
7.387309E+03	7.164186E-18	1.679445E-18
7.397211E+03	7.253245E-18	1.700200E-18
7.407114E+03	7.343597E-18	1.721256E-18
7.417017E+03	7.435072E-18	1.742572E-18
7.426919E+03	7.527668E-18	1.764147E-18
7.436822E+03	7.621195E-18	1.785937E-18
7.446724E+03	7.715456E-18	1.807896E-18
7.456627E+03	7.810620E-18	1.830063E-18
7.466529E+03	7.906281E-18	1.852344E-18
7.476432E+03	8.002411E-18	1.874731E-18
7.486334E+03	8.098972E-18	1.897216E-18
7.496237E+03	8.195927E-18	1.919789E-18
7.506140E+03	8.293241E-18	1.942444E-18
7.516042E+03	8.390662E-18	1.965120E-18
7.525945E+03	8.488142E-18	1.987807E-18
7.535847E+03	8.585842E-18	2.010543E-18
7.545750E+03	8.683499E-18	2.033265E-18
7.555652E+03	8.781279E-18	2.056012E-18
7.565555E+03	8.878681E-18	2.078668E-18
7.575457E+03	8.976093E-18	2.101322E-18
7.585360E+03	9.073231E-18	2.123910E-18
7.595263E+03	9.170028E-18	2.146414E-18
7.605165E+03	9.266418E-18	2.168820E-18
7.615068E+03	9.362576E-18	2.191169E-18
7.624970E+03	9.458194E-18	2.213388E-18
7.634873E+03	9.553199E-18	2.235461E-18
7.644775E+03	9.647772E-18	2.257429E-18
7.654678E+03	9.741845E-18	2.279278E-18
7.664581E+03	9.835091E-18	2.300929E-18
7.674483E+03	9.927694E-18	2.322428E-18
7.684386E+03	1.001959E-17	2.343758E-18
