#wls	flux	fluxerr
1.584409E+03	5.770045E-17	4.245659E-18
1.624020E+03	6.013357E-17	4.424622E-18
1.663630E+03	6.238928E-17	4.590524E-18
1.703240E+03	6.441895E-17	4.739787E-18
1.742850E+03	6.619609E-17	4.870464E-18
1.782461E+03	6.764546E-17	4.977019E-18
1.822071E+03	6.868597E-17	5.053487E-18
1.861681E+03	6.923826E-17	5.094030E-18
1.901291E+03	6.919726E-17	5.090921E-18
1.940902E+03	6.849354E-17	5.039054E-18
1.980512E+03	6.710466E-17	4.936781E-18
2.020122E+03	6.513826E-17	4.792024E-18
2.059732E+03	6.286182E-17	4.624462E-18
2.099342E+03	6.072037E-17	4.466835E-18
2.138953E+03	5.918409E-17	4.353730E-18
2.178563E+03	5.850345E-17	4.303570E-18
2.218173E+03	5.858420E-17	4.309418E-18
2.257783E+03	5.907129E-17	4.345153E-18
2.297394E+03	5.954422E-17	4.379843E-18
2.337004E+03	5.970035E-17	4.391227E-18
2.376614E+03	5.936896E-17	4.366750E-18
2.416224E+03	5.849661E-17	4.302485E-18
2.455835E+03	5.711248E-17	4.200580E-18
2.495445E+03	5.527008E-17	4.064973E-18
2.535055E+03	5.304557E-17	3.901269E-18
2.574665E+03	5.051469E-17	3.715039E-18
2.614276E+03	4.775288E-17	3.511835E-18
2.653886E+03	4.482546E-17	3.296459E-18
2.693496E+03	4.179304E-17	3.073373E-18
2.733106E+03	3.870981E-17	2.846561E-18
2.772716E+03	3.562391E-17	2.619564E-18
2.812327E+03	3.257867E-17	2.395568E-18
2.851937E+03	2.961382E-17	2.177495E-18
2.891547E+03	2.676395E-17	1.967888E-18
2.931157E+03	2.405880E-17	1.768933E-18
2.970768E+03	2.152156E-17	1.582333E-18
2.980670E+03	2.091609E-17	1.537806E-18
2.990573E+03	2.032186E-17	1.494105E-18
3.000475E+03	1.973986E-17	1.451304E-18
3.010378E+03	1.916966E-17	1.409371E-18
3.020280E+03	1.861171E-17	1.368340E-18
3.030183E+03	1.806640E-17	1.328238E-18
3.040086E+03	1.753312E-17	1.289022E-18
3.049988E+03	1.701365E-17	1.250821E-18
3.059891E+03	1.650777E-17	1.213620E-18
3.069793E+03	1.601578E-17	1.177440E-18
3.079696E+03	1.553694E-17	1.142228E-18
3.089598E+03	1.507096E-17	1.107962E-18
3.099501E+03	1.461814E-17	1.074664E-18
3.109403E+03	1.417763E-17	1.042271E-18
3.119306E+03	1.375001E-17	1.010827E-18
3.129209E+03	1.333429E-17	9.802576E-19
3.139111E+03	1.293103E-17	9.506041E-19
3.149014E+03	1.253954E-17	9.218171E-19
3.158916E+03	1.216011E-17	8.939172E-19
3.168819E+03	1.179236E-17	8.668759E-19
3.178721E+03	1.143632E-17	8.406957E-19
3.188624E+03	1.109181E-17	8.153640E-19
3.198526E+03	1.075865E-17	7.908672E-19
3.208429E+03	1.043652E-17	7.671805E-19
3.218332E+03	1.012556E-17	7.443166E-19
3.228234E+03	9.825447E-18	7.222494E-19
3.238137E+03	9.536124E-18	7.009761E-19
3.248039E+03	9.257253E-18	6.804713E-19
3.257942E+03	8.988639E-18	6.607209E-19
3.267844E+03	8.730204E-18	6.417189E-19
3.277747E+03	8.481599E-18	6.234399E-19
3.287650E+03	8.242737E-18	6.058773E-19
3.297552E+03	8.013378E-18	5.890134E-19
3.307455E+03	7.793070E-18	5.728150E-19
3.317357E+03	7.581800E-18	5.572814E-19
3.327260E+03	7.379236E-18	5.423878E-19
3.337162E+03	7.185134E-18	5.281164E-19
3.347065E+03	6.999273E-18	5.144510E-19
3.356967E+03	6.821228E-18	5.013603E-19
3.366870E+03	6.650967E-18	4.888419E-19
3.376773E+03	6.488168E-18	4.768722E-19
3.386675E+03	6.332539E-18	4.654296E-19
3.396578E+03	6.183869E-18	4.544987E-19
3.406480E+03	6.041939E-18	4.440634E-19
3.416383E+03	5.906415E-18	4.340990E-19
3.426285E+03	5.777180E-18	4.245970E-19
3.436188E+03	5.653900E-18	4.155328E-19
3.446090E+03	5.536410E-18	4.068944E-19
3.455993E+03	5.424479E-18	3.986646E-19
3.465896E+03	5.317886E-18	3.908272E-19
3.475798E+03	5.216424E-18	3.833671E-19
3.485701E+03	5.119895E-18	3.762696E-19
3.495603E+03	5.028057E-18	3.695170E-19
3.505506E+03	4.940683E-18	3.630926E-19
3.515408E+03	4.857614E-18	3.569847E-19
3.525311E+03	4.778649E-18	3.511784E-19
3.535213E+03	4.703645E-18	3.456633E-19
3.545116E+03	4.632373E-18	3.404226E-19
3.555019E+03	4.564713E-18	3.354474E-19
3.564921E+03	4.500501E-18	3.307257E-19
3.574824E+03	4.439676E-18	3.262529E-19
3.584726E+03	4.382044E-18	3.220148E-19
3.594629E+03	4.327508E-18	3.180044E-19
3.604531E+03	4.275851E-18	3.142056E-19
3.614434E+03	4.226992E-18	3.106124E-19
3.624337E+03	4.180812E-18	3.072161E-19
3.634239E+03	4.137198E-18	3.040085E-19
3.644142E+03	4.096079E-18	3.009842E-19
3.654044E+03	4.057385E-18	2.981382E-19
3.663947E+03	4.021013E-18	2.954629E-19
3.673849E+03	3.986935E-18	2.929561E-19
3.683752E+03	3.955049E-18	2.906105E-19
3.693654E+03	3.925364E-18	2.884266E-19
3.703557E+03	3.897814E-18	2.863997E-19
3.713460E+03	3.872337E-18	2.845250E-19
3.723362E+03	3.848903E-18	2.828006E-19
3.733265E+03	3.827517E-18	2.812266E-19
3.743167E+03	3.808115E-18	2.797985E-19
3.753070E+03	3.790701E-18	2.785164E-19
3.762972E+03	3.775211E-18	2.773757E-19
3.772875E+03	3.761615E-18	2.763742E-19
3.782777E+03	3.749918E-18	2.755122E-19
3.792680E+03	3.740120E-18	2.747897E-19
3.802583E+03	3.732159E-18	2.742023E-19
3.812485E+03	3.726070E-18	2.737524E-19
3.822388E+03	3.721761E-18	2.734332E-19
3.832290E+03	3.719295E-18	2.732494E-19
3.842193E+03	3.718582E-18	2.731945E-19
3.852095E+03	3.719685E-18	2.732730E-19
3.861998E+03	3.722544E-18	2.734804E-19
3.871900E+03	3.727161E-18	2.738170E-19
3.881803E+03	3.733506E-18	2.742806E-19
3.891706E+03	3.741581E-18	2.748712E-19
3.901608E+03	3.751358E-18	2.755868E-19
3.911511E+03	3.762867E-18	2.764296E-19
3.921413E+03	3.776049E-18	2.773954E-19
3.931316E+03	3.790906E-18	2.784842E-19
3.941218E+03	3.807409E-18	2.796939E-19
3.951121E+03	3.825590E-18	2.810268E-19
3.961024E+03	3.845422E-18	2.824809E-19
3.970926E+03	3.866875E-18	2.840542E-19
3.980829E+03	3.889922E-18	2.857444E-19
3.990731E+03	3.914596E-18	2.875542E-19
4.000634E+03	3.940839E-18	2.894792E-19
4.010536E+03	3.968687E-18	2.915220E-19
4.020439E+03	3.998082E-18	2.936784E-19
4.030341E+03	4.029028E-18	2.959487E-19
4.040244E+03	4.061533E-18	2.983335E-19
4.050147E+03	4.095570E-18	3.008307E-19
4.060049E+03	4.131115E-18	3.034387E-19
4.069952E+03	4.168143E-18	3.061556E-19
4.079854E+03	4.206695E-18	3.089843E-19
4.089757E+03	4.246714E-18	3.119208E-19
4.099659E+03	4.288210E-18	3.149656E-19
4.109562E+03	4.331125E-18	3.181147E-19
4.119464E+03	4.375469E-18	3.213687E-19
4.129367E+03	4.421252E-18	3.247282E-19
4.139270E+03	4.468417E-18	3.281892E-19
4.149172E+03	4.516974E-18	3.317524E-19
4.159075E+03	4.566863E-18	3.354133E-19
4.168977E+03	4.618095E-18	3.391728E-19
4.178880E+03	4.670608E-18	3.430263E-19
4.188782E+03	4.724412E-18	3.469746E-19
4.198685E+03	4.779444E-18	3.510130E-19
4.208587E+03	4.835675E-18	3.551393E-19
4.218490E+03	4.893035E-18	3.593485E-19
4.228393E+03	4.951533E-18	3.636412E-19
4.238295E+03	5.011093E-18	3.680119E-19
4.248198E+03	5.071682E-18	3.724580E-19
4.258100E+03	5.133220E-18	3.769737E-19
4.268003E+03	5.195623E-18	3.815528E-19
4.277905E+03	5.258846E-18	3.861921E-19
4.287808E+03	5.322839E-18	3.908878E-19
4.297711E+03	5.387507E-18	3.956331E-19
4.307613E+03	5.452794E-18	4.004237E-19
4.317516E+03	5.518597E-18	4.052521E-19
4.327418E+03	5.584895E-18	4.101168E-19
4.337321E+03	5.651623E-18	4.150130E-19
4.347223E+03	5.718851E-18	4.199458E-19
4.357126E+03	5.786514E-18	4.249105E-19
4.367028E+03	5.854642E-18	4.299092E-19
4.376931E+03	5.923217E-18	4.349406E-19
4.386834E+03	5.992320E-18	4.400108E-19
4.396736E+03	6.061892E-18	4.451153E-19
4.406639E+03	6.131920E-18	4.502532E-19
4.416541E+03	6.202445E-18	4.554275E-19
4.426444E+03	6.273460E-18	4.606377E-19
4.436346E+03	6.344952E-18	4.658828E-19
4.446249E+03	6.416878E-18	4.711597E-19
4.456151E+03	6.489269E-18	4.764707E-19
4.466054E+03	6.562087E-18	4.818129E-19
4.475957E+03	6.635314E-18	4.871851E-19
4.485859E+03	6.708967E-18	4.925885E-19
4.495762E+03	6.782923E-18	4.980140E-19
4.505664E+03	6.857242E-18	5.034662E-19
4.515567E+03	6.931881E-18	5.089416E-19
4.525469E+03	7.006844E-18	5.144409E-19
4.535372E+03	7.082019E-18	5.199555E-19
4.545274E+03	7.157474E-18	5.254906E-19
4.555177E+03	7.233112E-18	5.310392E-19
4.565080E+03	7.309009E-18	5.366066E-19
4.574982E+03	7.385064E-18	5.421855E-19
4.584885E+03	7.461298E-18	5.477775E-19
4.594787E+03	7.537675E-18	5.533798E-19
4.604690E+03	7.614306E-18	5.590007E-19
4.614592E+03	7.691082E-18	5.646322E-19
4.624495E+03	7.768129E-18	5.702835E-19
4.634398E+03	7.845420E-18	5.759526E-19
4.644300E+03	7.922942E-18	5.816386E-19
4.654203E+03	8.000833E-18	5.873516E-19
4.664105E+03	8.078997E-18	5.930845E-19
4.674008E+03	8.157522E-18	5.988438E-19
4.683910E+03	8.236319E-18	6.046230E-19
4.693813E+03	8.315469E-18	6.104279E-19
4.703715E+03	8.394818E-18	6.162475E-19
4.713618E+03	8.474448E-18	6.220875E-19
4.723521E+03	8.554275E-18	6.279419E-19
4.733423E+03	8.634394E-18	6.338176E-19
4.743326E+03	8.714721E-18	6.397085E-19
4.753228E+03	8.795260E-18	6.456149E-19
4.763131E+03	8.876018E-18	6.515372E-19
4.773033E+03	8.956999E-18	6.574757E-19
4.782936E+03	9.038208E-18	6.634310E-19
4.792838E+03	9.119561E-18	6.693967E-19
4.802741E+03	9.201147E-18	6.753794E-19
4.812644E+03	9.282971E-18	6.813794E-19
4.822546E+03	9.364948E-18	6.873906E-19
4.832449E+03	9.447077E-18	6.934128E-19
4.842351E+03	9.529448E-18	6.994526E-19
4.852254E+03	9.611870E-18	7.054962E-19
4.862156E+03	9.694531E-18	7.115571E-19
4.872059E+03	9.777326E-18	7.176278E-19
4.881961E+03	9.860144E-18	7.237000E-19
4.891864E+03	9.943073E-18	7.297803E-19
4.901767E+03	1.002608E-17	7.358662E-19
4.911669E+03	1.010905E-17	7.419495E-19
4.921572E+03	1.019205E-17	7.480344E-19
4.931474E+03	1.027484E-17	7.541039E-19
4.941377E+03	1.035757E-17	7.601691E-19
4.951279E+03	1.044010E-17	7.662191E-19
4.961182E+03	1.052225E-17	7.722420E-19
4.971085E+03	1.060408E-17	7.782403E-19
4.980987E+03	1.068539E-17	7.842009E-19
4.990890E+03	1.076611E-17	7.901179E-19
5.000792E+03	1.084616E-17	7.959853E-19
5.010695E+03	1.092542E-17	8.017951E-19
5.020597E+03	1.100370E-17	8.075327E-19
5.030500E+03	1.108099E-17	8.131977E-19
5.040402E+03	1.115707E-17	8.187735E-19
5.050305E+03	1.123183E-17	8.242520E-19
5.060208E+03	1.130502E-17	8.296156E-19
5.070110E+03	1.137662E-17	8.348628E-19
5.080013E+03	1.144629E-17	8.399676E-19
5.089915E+03	1.151411E-17	8.449370E-19
5.099818E+03	1.157973E-17	8.497443E-19
5.109720E+03	1.164311E-17	8.543875E-19
5.119623E+03	1.170400E-17	8.588479E-19
5.129525E+03	1.176214E-17	8.631068E-19
5.139428E+03	1.181751E-17	8.671619E-19
5.149331E+03	1.186985E-17	8.709941E-19
5.159233E+03	1.191899E-17	8.745922E-19
5.169136E+03	1.196480E-17	8.779457E-19
5.179038E+03	1.200701E-17	8.810346E-19
5.188941E+03	1.204546E-17	8.838476E-19
5.198843E+03	1.207987E-17	8.863644E-19
5.208746E+03	1.211022E-17	8.885829E-19
5.218648E+03	1.213622E-17	8.904828E-19
5.228551E+03	1.215774E-17	8.920532E-19
5.238454E+03	1.217462E-17	8.932831E-19
5.248356E+03	1.218659E-17	8.941535E-19
5.258259E+03	1.219354E-17	8.946544E-19
5.268161E+03	1.219532E-17	8.947771E-19
5.278064E+03	1.219185E-17	8.945136E-19
5.287966E+03	1.218289E-17	8.938478E-19
5.297869E+03	1.216850E-17	8.927838E-19
5.307772E+03	1.214863E-17	8.913173E-19
5.317674E+03	1.212326E-17	8.894473E-19
5.327577E+03	1.209226E-17	8.871644E-19
5.337479E+03	1.205592E-17	8.844901E-19
5.347382E+03	1.201419E-17	8.814199E-19
5.357284E+03	1.196742E-17	8.779801E-19
5.367187E+03	1.191563E-17	8.741722E-19
5.377089E+03	1.185913E-17	8.700187E-19
5.386992E+03	1.179814E-17	8.655359E-19
5.396895E+03	1.173317E-17	8.607610E-19
5.406797E+03	1.166438E-17	8.557060E-19
5.416700E+03	1.159200E-17	8.503882E-19
5.426602E+03	1.151617E-17	8.448168E-19
5.436505E+03	1.143729E-17	8.390221E-19
5.446407E+03	1.135557E-17	8.330189E-19
5.456310E+03	1.127136E-17	8.268332E-19
5.466212E+03	1.118501E-17	8.204907E-19
5.476115E+03	1.109692E-17	8.140206E-19
5.486018E+03	1.100748E-17	8.074514E-19
5.495920E+03	1.091720E-17	8.008208E-19
5.505823E+03	1.082648E-17	7.941583E-19
5.515725E+03	1.073593E-17	7.875084E-19
5.525628E+03	1.064582E-17	7.808909E-19
5.535530E+03	1.055685E-17	7.743568E-19
5.545433E+03	1.046926E-17	7.679236E-19
5.555335E+03	1.038355E-17	7.616290E-19
5.565238E+03	1.030024E-17	7.555105E-19
5.575141E+03	1.021947E-17	7.495786E-19
5.585043E+03	1.014187E-17	7.438793E-19
5.594946E+03	1.006763E-17	7.384267E-19
5.604848E+03	9.996904E-18	7.332313E-19
5.614751E+03	9.930209E-18	7.283320E-19
5.624653E+03	9.867509E-18	7.237257E-19
5.634556E+03	9.809059E-18	7.194313E-19
5.644459E+03	9.755073E-18	7.154643E-19
5.654361E+03	9.705656E-18	7.118325E-19
5.664264E+03	9.660858E-18	7.085395E-19
5.674166E+03	9.620744E-18	7.055901E-19
5.684069E+03	9.585438E-18	7.029933E-19
5.693971E+03	9.555074E-18	7.007590E-19
5.703874E+03	9.529453E-18	6.988727E-19
5.713776E+03	9.508909E-18	6.973586E-19
5.723679E+03	9.493237E-18	6.962019E-19
5.733582E+03	9.482666E-18	6.954193E-19
5.743484E+03	9.477095E-18	6.950033E-19
5.753387E+03	9.476656E-18	6.949637E-19
5.763289E+03	9.481366E-18	6.953016E-19
5.773192E+03	9.491344E-18	6.960259E-19
5.783094E+03	9.506529E-18	6.971319E-19
5.792997E+03	9.526937E-18	6.986210E-19
5.802899E+03	9.552701E-18	7.005027E-19
5.812802E+03	9.583963E-18	7.027875E-19
5.822705E+03	9.620528E-18	7.054612E-19
5.832607E+03	9.662636E-18	7.085413E-19
5.842510E+03	9.710205E-18	7.120216E-19
5.852412E+03	9.763346E-18	7.159106E-19
5.862315E+03	9.822077E-18	7.202092E-19
5.872217E+03	9.886281E-18	7.249091E-19
5.882120E+03	9.956063E-18	7.300179E-19
5.892022E+03	1.003140E-17	7.355336E-19
5.901925E+03	1.011214E-17	7.414458E-19
5.911828E+03	1.019848E-17	7.477681E-19
5.921730E+03	1.029012E-17	7.544789E-19
5.931633E+03	1.038709E-17	7.615806E-19
5.941535E+03	1.048931E-17	7.690672E-19
5.951438E+03	1.059655E-17	7.769208E-19
5.961340E+03	1.070878E-17	7.851405E-19
5.971243E+03	1.082561E-17	7.936980E-19
5.981146E+03	1.094712E-17	8.025975E-19
5.991048E+03	1.107285E-17	8.118065E-19
6.000951E+03	1.120271E-17	8.213180E-19
6.010853E+03	1.133633E-17	8.311050E-19
6.020756E+03	1.147344E-17	8.411475E-19
6.030658E+03	1.161361E-17	8.514144E-19
6.040561E+03	1.175640E-17	8.618727E-19
6.050463E+03	1.190159E-17	8.725072E-19
6.060366E+03	1.204842E-17	8.832616E-19
6.070269E+03	1.219666E-17	8.941185E-19
6.080171E+03	1.234561E-17	9.050277E-19
6.090074E+03	1.249489E-17	9.159608E-19
6.099976E+03	1.264348E-17	9.268437E-19
6.109879E+03	1.279114E-17	9.376572E-19
6.119781E+03	1.293699E-17	9.483383E-19
6.129684E+03	1.308048E-17	9.588461E-19
6.139586E+03	1.322091E-17	9.691292E-19
6.149489E+03	1.335827E-17	9.791868E-19
6.159392E+03	1.349275E-17	9.890335E-19
6.169294E+03	1.362463E-17	9.986893E-19
6.179197E+03	1.375424E-17	1.008179E-18
6.189099E+03	1.388144E-17	1.017491E-18
6.199002E+03	1.400703E-17	1.026685E-18
6.208904E+03	1.413076E-17	1.035742E-18
6.218807E+03	1.425315E-17	1.044701E-18
6.228709E+03	1.437458E-17	1.053590E-18
6.238612E+03	1.449487E-17	1.062394E-18
6.248515E+03	1.461444E-17	1.071146E-18
6.258417E+03	1.473355E-17	1.079864E-18
6.268320E+03	1.485245E-17	1.088566E-18
6.278222E+03	1.497101E-17	1.097244E-18
6.288125E+03	1.508954E-17	1.105919E-18
6.298027E+03	1.520809E-17	1.114595E-18
6.307930E+03	1.532677E-17	1.123281E-18
6.317833E+03	1.544545E-17	1.131966E-18
6.327735E+03	1.556400E-17	1.140641E-18
6.337638E+03	1.568227E-17	1.149296E-18
6.347540E+03	1.580033E-17	1.157935E-18
6.357443E+03	1.591803E-17	1.166548E-18
6.367345E+03	1.603471E-17	1.175086E-18
6.377248E+03	1.615113E-17	1.183605E-18
6.387150E+03	1.626735E-17	1.192108E-18
6.397053E+03	1.638368E-17	1.200620E-18
6.406956E+03	1.650067E-17	1.209179E-18
6.416858E+03	1.661816E-17	1.217775E-18
6.426761E+03	1.673673E-17	1.226451E-18
6.436663E+03	1.685648E-17	1.235212E-18
6.446566E+03	1.697776E-17	1.244086E-18
6.456468E+03	1.710014E-17	1.253040E-18
6.466371E+03	1.722450E-17	1.262138E-18
6.476273E+03	1.735040E-17	1.271349E-18
6.486176E+03	1.747820E-17	1.280700E-18
6.496079E+03	1.760800E-17	1.290196E-18
6.505981E+03	1.773959E-17	1.299824E-18
6.515884E+03	1.787335E-17	1.309611E-18
6.525786E+03	1.800936E-17	1.319561E-18
6.535689E+03	1.814740E-17	1.329661E-18
6.545591E+03	1.828756E-17	1.339916E-18
6.555494E+03	1.842989E-17	1.350329E-18
6.565396E+03	1.857478E-17	1.360930E-18
6.575299E+03	1.872168E-17	1.371679E-18
6.585202E+03	1.887095E-17	1.382600E-18
6.595104E+03	1.902266E-17	1.393700E-18
6.605007E+03	1.917653E-17	1.404958E-18
6.614909E+03	1.933294E-17	1.416402E-18
6.624812E+03	1.949161E-17	1.428011E-18
6.634714E+03	1.965291E-17	1.439812E-18
6.644617E+03	1.981621E-17	1.451760E-18
6.654520E+03	1.998188E-17	1.463881E-18
6.664422E+03	2.015030E-17	1.476204E-18
6.674325E+03	2.032083E-17	1.488681E-18
6.684227E+03	2.049382E-17	1.501338E-18
6.694130E+03	2.066898E-17	1.514153E-18
6.704032E+03	2.084667E-17	1.527154E-18
6.713935E+03	2.102657E-17	1.540316E-18
6.723837E+03	2.120872E-17	1.553643E-18
6.733740E+03	2.139350E-17	1.567162E-18
6.743643E+03	2.158020E-17	1.580821E-18
6.753545E+03	2.176959E-17	1.594678E-18
6.763448E+03	2.196091E-17	1.608676E-18
6.773350E+03	2.215498E-17	1.622874E-18
6.783253E+03	2.235099E-17	1.637215E-18
6.793155E+03	2.254894E-17	1.651697E-18
6.803058E+03	2.274921E-17	1.666349E-18
6.812960E+03	2.295182E-17	1.681172E-18
6.822863E+03	2.315586E-17	1.696100E-18
6.832766E+03	2.336216E-17	1.711193E-18
6.842668E+03	2.357023E-17	1.726416E-18
6.852571E+03	2.378047E-17	1.741797E-18
6.862473E+03	2.399192E-17	1.757266E-18
6.872376E+03	2.420495E-17	1.772851E-18
6.882278E+03	2.441948E-17	1.788546E-18
6.892181E+03	2.463496E-17	1.804309E-18
6.902083E+03	2.485176E-17	1.820169E-18
6.911986E+03	2.506978E-17	1.836119E-18
6.921889E+03	2.528847E-17	1.852117E-18
6.931791E+03	2.550771E-17	1.868155E-18
6.941694E+03	2.572741E-17	1.884226E-18
6.951596E+03	2.594796E-17	1.900360E-18
6.961499E+03	2.616828E-17	1.916476E-18
6.971401E+03	2.638928E-17	1.932642E-18
6.981304E+03	2.660986E-17	1.948778E-18
6.991207E+03	2.683046E-17	1.964914E-18
7.001109E+03	2.705046E-17	1.981006E-18
7.011012E+03	2.727036E-17	1.997090E-18
7.020914E+03	2.749008E-17	2.013162E-18
7.030817E+03	2.770904E-17	2.029177E-18
7.040719E+03	2.792663E-17	2.045092E-18
7.050622E+03	2.814392E-17	2.060985E-18
7.060524E+03	2.836034E-17	2.076813E-18
7.070427E+03	2.857584E-17	2.092574E-18
7.080330E+03	2.879043E-17	2.108269E-18
7.090232E+03	2.900350E-17	2.123851E-18
7.100135E+03	2.921563E-17	2.139366E-18
7.110037E+03	2.942622E-17	2.154766E-18
7.119940E+03	2.963525E-17	2.170053E-18
7.129842E+03	2.984334E-17	2.185271E-18
7.139745E+03	3.004988E-17	2.200375E-18
7.149647E+03	3.025548E-17	2.215410E-18
7.159550E+03	3.045889E-17	2.230284E-18
7.169453E+03	3.066070E-17	2.245041E-18
7.179355E+03	3.086088E-17	2.259679E-18
7.189258E+03	3.105940E-17	2.274196E-18
7.199160E+03	3.125623E-17	2.288588E-18
7.209063E+03	3.145131E-17	2.302853E-18
7.218965E+03	3.164389E-17	2.316934E-18
7.228868E+03	3.183457E-17	2.330875E-18
7.238770E+03	3.202326E-17	2.344672E-18
7.248673E+03	3.220988E-17	2.358316E-18
7.258576E+03	3.239362E-17	2.371750E-18
7.268478E+03	3.257510E-17	2.385018E-18
7.278381E+03	3.275494E-17	2.398166E-18
7.288283E+03	3.293161E-17	2.411083E-18
7.298186E+03	3.310576E-17	2.423815E-18
7.308088E+03	3.327732E-17	2.436356E-18
7.317991E+03	3.344696E-17	2.448758E-18
7.327894E+03	3.361391E-17	2.460962E-18
7.337796E+03	3.377890E-17	2.473024E-18
7.347699E+03	3.394271E-17	2.484998E-18
7.357601E+03	3.410460E-17	2.496833E-18
7.367504E+03	3.426617E-17	2.508644E-18
7.377406E+03	3.442597E-17	2.520326E-18
7.387309E+03	3.458486E-17	2.531941E-18
7.397211E+03	3.474215E-17	2.543439E-18
7.407114E+03	3.489874E-17	2.554886E-18
7.417017E+03	3.505316E-17	2.566174E-18
7.426919E+03	3.520629E-17	2.577368E-18
7.436822E+03	3.535825E-17	2.588476E-18
7.446724E+03	3.550832E-17	2.599446E-18
7.456627E+03	3.565820E-17	2.610403E-18
7.466529E+03	3.580633E-17	2.621232E-18
7.476432E+03	3.595359E-17	2.631997E-18
7.486334E+03	3.609918E-17	2.642640E-18
7.496237E+03	3.624398E-17	2.653226E-18
7.506140E+03	3.638718E-17	2.663694E-18
7.516042E+03	3.652966E-17	2.674110E-18
7.525945E+03	3.667057E-17	2.684411E-18
7.535847E+03	3.680989E-17	2.694597E-18
7.545750E+03	3.694852E-17	2.704732E-18
7.555652E+03	3.708553E-17	2.714749E-18
7.565555E+03	3.722089E-17	2.724644E-18
7.575457E+03	3.735543E-17	2.734481E-18
7.585360E+03	3.748820E-17	2.744188E-18
7.595263E+03	3.762001E-17	2.753825E-18
7.605165E+03	3.774893E-17	2.763251E-18
7.615068E+03	3.787668E-17	2.772591E-18
7.624970E+03	3.800315E-17	2.781838E-18
7.634873E+03	3.812725E-17	2.790912E-18
7.644775E+03	3.824979E-17	2.799871E-18
7.654678E+03	3.836963E-17	2.808634E-18
7.664581E+03	3.848659E-17	2.817186E-18
7.674483E+03	3.860146E-17	2.825584E-18
7.684386E+03	3.871402E-17	2.833815E-18
