#wls	flux	fluxerr
1.584409E+03	2.348600E-17	2.918834E-18
1.624020E+03	2.376740E-17	2.941877E-18
1.663630E+03	2.397133E-17	2.954776E-18
1.703240E+03	2.409001E-17	2.956679E-18
1.742850E+03	2.412467E-17	2.947862E-18
1.782461E+03	2.405915E-17	2.926487E-18
1.822071E+03	2.387661E-17	2.890679E-18
1.861681E+03	2.356172E-17	2.838792E-18
1.901291E+03	2.309104E-17	2.768255E-18
1.940902E+03	2.245328E-17	2.678015E-18
1.980512E+03	2.165135E-17	2.568750E-18
2.020122E+03	2.072722E-17	2.445751E-18
2.059732E+03	1.976875E-17	2.319602E-18
2.099342E+03	1.891355E-17	2.206464E-18
2.138953E+03	1.830172E-17	2.122411E-18
2.178563E+03	1.800365E-17	2.075076E-18
2.218173E+03	1.798610E-17	2.059994E-18
2.257783E+03	1.813993E-17	2.064130E-18
2.297394E+03	1.833853E-17	2.072781E-18
2.337004E+03	1.849127E-17	2.075653E-18
2.376614E+03	1.854588E-17	2.067017E-18
2.416224E+03	1.848340E-17	2.045001E-18
2.455835E+03	1.830789E-17	2.010337E-18
2.495445E+03	1.802905E-17	1.964367E-18
2.535055E+03	1.766237E-17	1.909044E-18
2.574665E+03	1.722243E-17	1.846175E-18
2.614276E+03	1.672358E-17	1.777502E-18
2.653886E+03	1.617683E-17	1.704373E-18
2.693496E+03	1.559213E-17	1.627988E-18
2.733106E+03	1.497791E-17	1.549359E-18
2.772716E+03	1.434149E-17	1.469358E-18
2.812327E+03	1.368977E-17	1.388783E-18
2.851937E+03	1.302991E-17	1.308441E-18
2.891547E+03	1.236907E-17	1.229107E-18
2.931157E+03	1.171464E-17	1.151547E-18
2.970768E+03	1.107349E-17	1.076451E-18
2.980670E+03	1.091628E-17	1.058159E-18
2.990573E+03	1.076011E-17	1.040040E-18
3.000475E+03	1.060549E-17	1.022143E-18
3.010378E+03	1.045218E-17	1.004445E-18
3.020280E+03	1.030043E-17	9.869688E-19
3.030183E+03	1.015048E-17	9.697361E-19
3.040086E+03	1.000200E-17	9.527157E-19
3.049988E+03	9.856034E-18	9.360052E-19
3.059891E+03	9.712518E-18	9.195974E-19
3.069793E+03	9.571673E-18	9.035117E-19
3.079696E+03	9.433146E-18	8.877129E-19
3.089598E+03	9.296796E-18	8.721862E-19
3.099501E+03	9.162873E-18	8.569540E-19
3.109403E+03	9.030929E-18	8.419726E-19
3.119306E+03	8.901408E-18	8.272821E-19
3.129209E+03	8.773749E-18	8.128292E-19
3.139111E+03	8.648397E-18	7.986534E-19
3.149014E+03	8.524990E-18	7.847202E-19
3.158916E+03	8.403797E-18	7.710528E-19
3.168819E+03	8.284635E-18	7.576332E-19
3.178721E+03	8.167630E-18	7.444713E-19
3.188624E+03	8.052752E-18	7.315629E-19
3.198526E+03	7.940001E-18	7.189067E-19
3.208429E+03	7.829253E-18	7.064898E-19
3.218332E+03	7.720779E-18	6.943355E-19
3.228234E+03	7.614450E-18	6.824303E-19
3.238137E+03	7.510402E-18	6.707848E-19
3.248039E+03	7.408523E-18	6.593875E-19
3.257942E+03	7.308817E-18	6.482370E-19
3.267844E+03	7.211416E-18	6.373435E-19
3.277747E+03	7.116208E-18	6.266952E-19
3.287650E+03	7.023314E-18	6.163012E-19
3.297552E+03	6.932732E-18	6.061594E-19
3.307455E+03	6.844273E-18	5.962516E-19
3.317357E+03	6.758148E-18	5.865942E-19
3.327260E+03	6.674262E-18	5.771774E-19
3.337162E+03	6.592628E-18	5.680005E-19
3.347065E+03	6.513254E-18	5.590621E-19
3.356967E+03	6.435976E-18	5.503466E-19
3.366870E+03	6.360982E-18	5.418682E-19
3.376773E+03	6.288199E-18	5.336187E-19
3.386675E+03	6.217551E-18	5.255898E-19
3.396578E+03	6.149055E-18	5.177813E-19
3.406480E+03	6.082722E-18	5.101922E-19
3.416383E+03	6.018418E-18	5.028095E-19
3.426285E+03	5.956232E-18	4.956388E-19
3.436188E+03	5.896041E-18	4.886680E-19
3.446090E+03	5.837859E-18	4.818967E-19
3.455993E+03	5.781646E-18	4.753198E-19
3.465896E+03	5.727360E-18	4.689319E-19
3.475798E+03	5.674963E-18	4.627285E-19
3.485701E+03	5.624418E-18	4.567049E-19
3.495603E+03	5.575635E-18	4.508519E-19
3.505506E+03	5.528534E-18	4.451617E-19
3.515408E+03	5.483092E-18	4.396309E-19
3.525311E+03	5.439238E-18	4.342523E-19
3.535213E+03	5.396966E-18	4.290241E-19
3.545116E+03	5.356146E-18	4.239344E-19
3.555019E+03	5.316774E-18	4.189818E-19
3.564921E+03	5.278803E-18	4.141612E-19
3.574824E+03	5.242280E-18	4.094751E-19
3.584726E+03	5.207096E-18	4.049134E-19
3.594629E+03	5.173256E-18	4.004756E-19
3.604531E+03	5.140615E-18	3.961492E-19
3.614434E+03	5.109176E-18	3.919333E-19
3.624337E+03	5.078903E-18	3.878240E-19
3.634239E+03	5.049754E-18	3.838171E-19
3.644142E+03	5.021739E-18	3.799124E-19
3.654044E+03	4.994867E-18	3.761095E-19
3.663947E+03	4.969096E-18	3.724042E-19
3.673849E+03	4.944477E-18	3.687992E-19
3.683752E+03	4.920968E-18	3.652905E-19
3.693654E+03	4.898658E-18	3.618835E-19
3.703557E+03	4.877542E-18	3.585767E-19
3.713460E+03	4.857614E-18	3.553686E-19
3.723362E+03	4.838910E-18	3.522607E-19
3.733265E+03	4.821502E-18	3.492570E-19
3.743167E+03	4.805377E-18	3.463554E-19
3.753070E+03	4.790602E-18	3.435593E-19
3.762972E+03	4.777158E-18	3.408662E-19
3.772875E+03	4.765069E-18	3.382764E-19
3.782777E+03	4.754394E-18	3.357928E-19
3.792680E+03	4.745190E-18	3.334180E-19
3.802583E+03	4.737435E-18	3.311490E-19
3.812485E+03	4.731221E-18	3.289909E-19
3.822388E+03	4.726483E-18	3.269374E-19
3.832290E+03	4.723351E-18	3.249962E-19
3.842193E+03	4.721756E-18	3.231610E-19
3.852095E+03	4.721825E-18	3.214388E-19
3.861998E+03	4.723525E-18	3.198258E-19
3.871900E+03	4.726903E-18	3.183234E-19
3.881803E+03	4.731964E-18	3.169303E-19
3.891706E+03	4.738751E-18	3.156479E-19
3.901608E+03	4.747270E-18	3.144746E-19
3.911511E+03	4.757602E-18	3.134142E-19
3.921413E+03	4.769713E-18	3.124626E-19
3.931316E+03	4.783646E-18	3.116208E-19
3.941218E+03	4.799406E-18	3.108874E-19
3.951121E+03	4.817072E-18	3.102658E-19
3.961024E+03	4.836652E-18	3.097543E-19
3.970926E+03	4.858149E-18	3.093516E-19
3.980829E+03	4.881569E-18	3.090560E-19
3.990731E+03	4.906995E-18	3.088710E-19
4.000634E+03	4.934396E-18	3.087925E-19
4.010536E+03	4.963857E-18	3.088242E-19
4.020439E+03	4.995347E-18	3.089620E-19
4.030341E+03	5.028915E-18	3.092072E-19
4.040244E+03	5.064614E-18	3.095609E-19
4.050147E+03	5.102453E-18	3.100218E-19
4.060049E+03	5.142447E-18	3.105889E-19
4.069952E+03	5.184610E-18	3.112610E-19
4.079854E+03	5.229038E-18	3.120419E-19
4.089757E+03	5.275706E-18	3.129282E-19
4.099659E+03	5.324673E-18	3.139212E-19
4.109562E+03	5.375913E-18	3.150177E-19
4.119464E+03	5.429486E-18	3.162191E-19
4.129367E+03	5.485453E-18	3.175269E-19
4.139270E+03	5.543792E-18	3.189381E-19
4.149172E+03	5.604563E-18	3.204541E-19
4.159075E+03	5.667744E-18	3.220717E-19
4.168977E+03	5.733399E-18	3.237928E-19
4.178880E+03	5.801501E-18	3.256138E-19
4.188782E+03	5.872121E-18	3.275371E-19
4.198685E+03	5.945229E-18	3.295592E-19
4.208587E+03	6.020838E-18	3.316790E-19
4.218490E+03	6.098923E-18	3.338936E-19
4.228393E+03	6.179549E-18	3.362049E-19
4.238295E+03	6.262681E-18	3.386095E-19
4.248198E+03	6.348331E-18	3.411065E-19
4.258100E+03	6.436453E-18	3.436922E-19
4.268003E+03	6.527012E-18	3.463634E-19
4.277905E+03	6.619996E-18	3.491183E-19
4.287808E+03	6.715411E-18	3.519562E-19
4.297711E+03	6.813199E-18	3.548731E-19
4.307613E+03	6.913334E-18	3.578668E-19
4.317516E+03	7.015757E-18	3.609337E-19
4.327418E+03	7.120498E-18	3.640746E-19
4.337321E+03	7.227531E-18	3.672879E-19
4.347223E+03	7.337008E-18	3.705807E-19
4.357126E+03	7.448874E-18	3.739500E-19
4.367028E+03	7.563184E-18	3.773984E-19
4.376931E+03	7.679928E-18	3.809250E-19
4.386834E+03	7.799211E-18	3.845352E-19
4.396736E+03	7.920973E-18	3.882259E-19
4.406639E+03	8.045192E-18	3.919963E-19
4.416541E+03	8.171918E-18	3.958491E-19
4.426444E+03	8.301142E-18	3.997843E-19
4.436346E+03	8.432841E-18	4.038015E-19
4.446249E+03	8.566929E-18	4.078971E-19
4.456151E+03	8.703446E-18	4.120742E-19
4.466054E+03	8.842296E-18	4.163291E-19
4.475957E+03	8.983435E-18	4.206612E-19
4.485859E+03	9.126806E-18	4.250691E-19
4.495762E+03	9.272208E-18	4.295451E-19
4.505664E+03	9.419633E-18	4.340904E-19
4.515567E+03	9.568946E-18	4.387007E-19
4.525469E+03	9.720058E-18	4.433740E-19
4.535372E+03	9.872713E-18	4.481008E-19
4.545274E+03	1.002691E-17	4.528840E-19
4.555177E+03	1.018238E-17	4.577134E-19
4.565080E+03	1.033910E-17	4.625914E-19
4.574982E+03	1.049677E-17	4.675081E-19
4.584885E+03	1.065528E-17	4.724614E-19
4.594787E+03	1.081441E-17	4.774450E-19
4.604690E+03	1.097411E-17	4.824611E-19
4.614592E+03	1.113406E-17	4.874988E-19
4.624495E+03	1.129421E-17	4.925604E-19
4.634398E+03	1.145431E-17	4.976393E-19
4.644300E+03	1.161410E-17	5.027281E-19
4.654203E+03	1.177352E-17	5.078292E-19
4.664105E+03	1.193218E-17	5.129301E-19
4.674008E+03	1.208991E-17	5.180286E-19
4.683910E+03	1.224636E-17	5.231145E-19
4.693813E+03	1.240156E-17	5.281939E-19
4.703715E+03	1.255520E-17	5.332586E-19
4.713618E+03	1.270733E-17	5.383156E-19
4.723521E+03	1.285775E-17	5.433611E-19
4.733423E+03	1.300649E-17	5.484019E-19
4.743326E+03	1.315335E-17	5.534344E-19
4.753228E+03	1.329825E-17	5.584597E-19
4.763131E+03	1.344112E-17	5.634794E-19
4.773033E+03	1.358186E-17	5.684944E-19
4.782936E+03	1.372039E-17	5.735058E-19
4.792838E+03	1.385651E-17	5.785097E-19
4.802741E+03	1.399029E-17	5.835126E-19
4.812644E+03	1.412167E-17	5.885137E-19
4.822546E+03	1.425048E-17	5.935067E-19
4.832449E+03	1.437665E-17	5.984901E-19
4.842351E+03	1.450029E-17	6.034685E-19
4.852254E+03	1.462107E-17	6.084288E-19
4.862156E+03	1.473921E-17	6.133805E-19
4.872059E+03	1.485456E-17	6.183166E-19
4.881961E+03	1.496690E-17	6.232285E-19
4.891864E+03	1.507633E-17	6.281192E-19
4.901767E+03	1.518279E-17	6.329857E-19
4.911669E+03	1.528608E-17	6.378182E-19
4.921572E+03	1.538626E-17	6.426190E-19
4.931474E+03	1.548299E-17	6.473716E-19
4.941377E+03	1.557649E-17	6.520840E-19
4.951279E+03	1.566655E-17	6.567451E-19
4.961182E+03	1.575291E-17	6.613432E-19
4.971085E+03	1.583568E-17	6.658796E-19
4.980987E+03	1.591462E-17	6.703423E-19
4.990890E+03	1.598965E-17	6.747254E-19
5.000792E+03	1.606069E-17	6.790232E-19
5.010695E+03	1.612768E-17	6.832295E-19
5.020597E+03	1.619037E-17	6.873312E-19
5.030500E+03	1.624886E-17	6.913292E-19
5.040402E+03	1.630289E-17	6.952095E-19
5.050305E+03	1.635239E-17	6.989655E-19
5.060208E+03	1.639714E-17	7.025838E-19
5.070110E+03	1.643722E-17	7.060643E-19
5.080013E+03	1.647225E-17	7.093873E-19
5.089915E+03	1.650250E-17	7.125598E-19
5.099818E+03	1.652760E-17	7.155626E-19
5.109720E+03	1.654770E-17	7.183973E-19
5.119623E+03	1.656260E-17	7.210511E-19
5.129525E+03	1.657211E-17	7.235120E-19
5.139428E+03	1.657639E-17	7.257820E-19
5.149331E+03	1.657528E-17	7.278500E-19
5.159233E+03	1.656876E-17	7.297110E-19
5.169136E+03	1.655686E-17	7.313614E-19
5.179038E+03	1.653944E-17	7.327905E-19
5.188941E+03	1.651653E-17	7.339952E-19
5.198843E+03	1.648800E-17	7.349656E-19
5.208746E+03	1.645405E-17	7.357062E-19
5.218648E+03	1.641461E-17	7.362087E-19
5.228551E+03	1.636973E-17	7.364717E-19
5.238454E+03	1.631949E-17	7.364938E-19
5.248356E+03	1.626384E-17	7.362685E-19
5.258259E+03	1.620286E-17	7.357960E-19
5.268161E+03	1.613669E-17	7.350775E-19
5.278064E+03	1.606545E-17	7.341152E-19
5.287966E+03	1.598913E-17	7.329042E-19
5.297869E+03	1.590803E-17	7.314549E-19
5.307772E+03	1.582236E-17	7.297725E-19
5.317674E+03	1.573229E-17	7.278618E-19
5.327577E+03	1.563786E-17	7.257216E-19
5.337479E+03	1.553961E-17	7.233733E-19
5.347382E+03	1.543765E-17	7.208189E-19
5.357284E+03	1.533252E-17	7.180812E-19
5.367187E+03	1.522435E-17	7.151639E-19
5.377089E+03	1.511359E-17	7.120853E-19
5.386992E+03	1.500053E-17	7.088578E-19
5.396895E+03	1.488581E-17	7.055087E-19
5.406797E+03	1.476958E-17	7.020445E-19
5.416700E+03	1.465203E-17	6.984721E-19
5.426602E+03	1.453324E-17	6.947943E-19
5.436505E+03	1.441355E-17	6.910266E-19
5.446407E+03	1.429306E-17	6.871718E-19
5.456310E+03	1.417201E-17	6.832417E-19
5.466212E+03	1.405067E-17	6.792481E-19
5.476115E+03	1.392927E-17	6.752020E-19
5.486018E+03	1.380809E-17	6.711158E-19
5.495920E+03	1.368750E-17	6.670078E-19
5.505823E+03	1.356772E-17	6.628893E-19
5.515725E+03	1.344931E-17	6.587866E-19
5.525628E+03	1.333233E-17	6.547036E-19
5.535530E+03	1.321741E-17	6.506717E-19
5.545433E+03	1.310460E-17	6.466943E-19
5.555335E+03	1.299438E-17	6.427950E-19
5.565238E+03	1.288715E-17	6.389953E-19
5.575141E+03	1.278291E-17	6.352957E-19
5.585043E+03	1.268228E-17	6.317288E-19
5.594946E+03	1.258535E-17	6.282996E-19
5.604848E+03	1.249217E-17	6.250121E-19
5.614751E+03	1.240328E-17	6.218946E-19
5.624653E+03	1.231853E-17	6.189416E-19
5.634556E+03	1.223819E-17	6.161671E-19
5.644459E+03	1.216244E-17	6.135822E-19
5.654361E+03	1.209137E-17	6.111927E-19
5.664264E+03	1.202501E-17	6.090013E-19
5.674166E+03	1.196339E-17	6.070113E-19
5.684069E+03	1.190666E-17	6.052317E-19
5.693971E+03	1.185495E-17	6.036706E-19
5.703874E+03	1.180803E-17	6.023172E-19
5.713776E+03	1.176627E-17	6.011918E-19
5.723679E+03	1.172944E-17	6.002840E-19
5.733582E+03	1.169781E-17	5.996089E-19
5.743484E+03	1.167128E-17	5.991626E-19
5.753387E+03	1.165001E-17	5.989539E-19
5.763289E+03	1.163403E-17	5.989859E-19
5.773192E+03	1.162348E-17	5.992668E-19
5.783094E+03	1.161826E-17	5.997926E-19
5.792997E+03	1.161840E-17	6.005653E-19
5.802899E+03	1.162405E-17	6.015937E-19
5.812802E+03	1.163534E-17	6.028852E-19
5.822705E+03	1.165203E-17	6.044282E-19
5.832607E+03	1.167439E-17	6.062376E-19
5.842510E+03	1.170230E-17	6.083072E-19
5.852412E+03	1.173590E-17	6.106454E-19
5.862315E+03	1.177522E-17	6.132535E-19
5.872217E+03	1.182011E-17	6.161243E-19
5.882120E+03	1.187072E-17	6.192661E-19
5.892022E+03	1.192702E-17	6.226775E-19
5.901925E+03	1.198889E-17	6.263515E-19
5.911828E+03	1.205657E-17	6.303017E-19
5.921730E+03	1.212976E-17	6.345119E-19
5.931633E+03	1.220857E-17	6.389876E-19
5.941535E+03	1.229297E-17	6.437269E-19
5.951438E+03	1.238276E-17	6.487195E-19
5.961340E+03	1.247805E-17	6.539700E-19
5.971243E+03	1.257847E-17	6.594590E-19
5.981146E+03	1.268427E-17	6.651984E-19
5.991048E+03	1.279505E-17	6.711671E-19
6.000951E+03	1.291088E-17	6.773676E-19
6.010853E+03	1.303150E-17	6.837857E-19
6.020756E+03	1.315681E-17	6.904146E-19
6.030658E+03	1.328651E-17	6.972383E-19
6.040561E+03	1.342031E-17	7.042397E-19
6.050463E+03	1.355819E-17	7.114174E-19
6.060366E+03	1.369950E-17	7.187360E-19
6.070269E+03	1.384421E-17	7.261918E-19
6.080171E+03	1.399177E-17	7.337551E-19
6.090074E+03	1.414194E-17	7.414123E-19
6.099976E+03	1.429377E-17	7.491117E-19
6.109879E+03	1.444712E-17	7.568456E-19
6.119781E+03	1.460118E-17	7.645690E-19
6.129684E+03	1.475539E-17	7.722520E-19
6.139586E+03	1.490906E-17	7.798571E-19
6.149489E+03	1.506234E-17	7.873904E-19
6.159392E+03	1.521552E-17	7.948673E-19
6.169294E+03	1.536902E-17	8.023070E-19
6.179197E+03	1.552321E-17	8.097284E-19
6.189099E+03	1.567791E-17	8.171206E-19
6.199002E+03	1.583398E-17	8.245274E-19
6.208904E+03	1.599107E-17	8.319287E-19
6.218807E+03	1.614967E-17	8.393489E-19
6.228709E+03	1.631009E-17	8.468027E-19
6.238612E+03	1.647202E-17	8.542713E-19
6.248515E+03	1.663577E-17	8.617703E-19
6.258417E+03	1.680148E-17	8.693045E-19
6.268320E+03	1.696929E-17	8.768797E-19
6.278222E+03	1.713890E-17	8.844778E-19
6.288125E+03	1.731044E-17	8.921047E-19
6.298027E+03	1.748386E-17	8.997548E-19
6.307930E+03	1.765906E-17	9.074223E-19
6.317833E+03	1.783576E-17	9.150899E-19
6.327735E+03	1.801360E-17	9.227380E-19
6.337638E+03	1.819224E-17	9.303472E-19
6.347540E+03	1.837160E-17	9.379116E-19
6.357443E+03	1.855132E-17	9.454114E-19
6.367345E+03	1.873046E-17	9.527970E-19
6.377248E+03	1.890972E-17	9.601034E-19
6.387150E+03	1.908901E-17	9.673233E-19
6.397053E+03	1.926850E-17	9.744651E-19
6.406956E+03	1.944872E-17	9.815529E-19
6.416858E+03	1.962929E-17	9.885672E-19
6.426761E+03	1.981078E-17	9.955343E-19
6.436663E+03	1.999313E-17	1.002450E-18
6.446566E+03	2.017665E-17	1.009328E-18
6.456468E+03	2.036069E-17	1.016133E-18
6.466371E+03	2.054616E-17	1.022911E-18
6.476273E+03	2.073244E-17	1.029628E-18
6.486176E+03	2.091983E-17	1.036298E-18
6.496079E+03	2.110833E-17	1.042919E-18
6.505981E+03	2.129761E-17	1.049473E-18
6.515884E+03	2.148801E-17	1.055974E-18
6.525786E+03	2.167955E-17	1.062423E-18
6.535689E+03	2.187188E-17	1.068801E-18
6.545591E+03	2.206503E-17	1.075108E-18
6.555494E+03	2.225901E-17	1.081343E-18
6.565396E+03	2.245421E-17	1.087522E-18
6.575299E+03	2.264991E-17	1.093611E-18
6.585202E+03	2.284650E-17	1.099626E-18
6.595104E+03	2.304400E-17	1.105567E-18
6.605007E+03	2.324206E-17	1.111416E-18
6.614909E+03	2.344107E-17	1.117190E-18
6.624812E+03	2.364066E-17	1.122871E-18
6.634714E+03	2.384124E-17	1.128476E-18
6.644617E+03	2.404203E-17	1.133968E-18
6.654520E+03	2.424345E-17	1.139366E-18
6.664422E+03	2.444594E-17	1.144689E-18
6.674325E+03	2.464869E-17	1.149898E-18
6.684227E+03	2.485214E-17	1.155014E-18
6.694130E+03	2.505590E-17	1.160017E-18
6.704032E+03	2.526043E-17	1.164928E-18
6.713935E+03	2.546534E-17	1.169727E-18
6.723837E+03	2.567063E-17	1.174416E-18
6.733740E+03	2.587683E-17	1.179018E-18
6.743643E+03	2.608304E-17	1.183490E-18
6.753545E+03	2.629025E-17	1.187878E-18
6.763448E+03	2.649754E-17	1.192139E-18
6.773350E+03	2.670591E-17	1.196320E-18
6.783253E+03	2.691444E-17	1.200378E-18
6.793155E+03	2.712315E-17	1.204314E-18
6.803058E+03	2.733255E-17	1.208152E-18
6.812960E+03	2.754267E-17	1.211892E-18
6.822863E+03	2.775251E-17	1.215492E-18
6.832766E+03	2.796311E-17	1.218997E-18
6.842668E+03	2.817395E-17	1.222385E-18
6.852571E+03	2.838557E-17	1.225680E-18
6.862473E+03	2.859692E-17	1.228839E-18
6.872376E+03	2.880851E-17	1.231883E-18
6.882278E+03	2.902033E-17	1.234816E-18
6.892181E+03	2.923183E-17	1.237612E-18
6.902083E+03	2.944354E-17	1.240299E-18
6.911986E+03	2.965547E-17	1.242876E-18
6.921889E+03	2.986701E-17	1.245322E-18
6.931791E+03	3.007816E-17	1.247638E-18
6.941694E+03	3.028888E-17	1.249826E-18
6.951596E+03	3.049978E-17	1.251912E-18
6.961499E+03	3.070963E-17	1.253850E-18
6.971401E+03	3.091965E-17	1.255693E-18
6.981304E+03	3.112861E-17	1.257393E-18
6.991207E+03	3.133712E-17	1.258980E-18
7.001109E+03	3.154453E-17	1.260431E-18
7.011012E+03	3.175150E-17	1.261777E-18
7.020914E+03	3.195802E-17	1.263022E-18
7.030817E+03	3.216347E-17	1.264146E-18
7.040719E+03	3.236720E-17	1.265128E-18
7.050622E+03	3.257051E-17	1.266025E-18
7.060524E+03	3.277277E-17	1.266817E-18
7.070427E+03	3.297401E-17	1.267512E-18
7.080330E+03	3.317423E-17	1.268115E-18
7.090232E+03	3.337276E-17	1.268608E-18
7.100135E+03	3.357032E-17	1.269023E-18
7.110037E+03	3.376621E-17	1.269343E-18
7.119940E+03	3.396046E-17	1.269575E-18
7.129842E+03	3.415380E-17	1.269755E-18
7.139745E+03	3.434554E-17	1.269864E-18
7.149647E+03	3.453645E-17	1.269939E-18
7.159550E+03	3.472511E-17	1.269935E-18
7.169453E+03	3.491224E-17	1.269889E-18
7.179355E+03	3.509786E-17	1.269810E-18
7.189258E+03	3.528198E-17	1.269707E-18
7.199160E+03	3.546459E-17	1.269590E-18
7.209063E+03	3.564565E-17	1.269467E-18
7.218965E+03	3.582435E-17	1.269320E-18
7.228868E+03	3.600139E-17	1.269183E-18
7.238770E+03	3.617672E-17	1.269065E-18
7.248673E+03	3.635023E-17	1.268975E-18
7.258576E+03	3.652109E-17	1.268893E-18
7.268478E+03	3.668999E-17	1.268856E-18
7.278381E+03	3.685769E-17	1.268902E-18
7.288283E+03	3.702252E-17	1.268983E-18
7.298186E+03	3.718522E-17	1.269140E-18
7.308088E+03	3.734574E-17	1.269381E-18
7.317991E+03	3.750488E-17	1.269746E-18
7.327894E+03	3.766179E-17	1.270219E-18
7.337796E+03	3.781731E-17	1.270840E-18
7.347699E+03	3.797232E-17	1.271652E-18
7.357601E+03	3.812604E-17	1.272640E-18
7.367504E+03	3.828029E-17	1.273878E-18
7.377406E+03	3.843347E-17	1.275324E-18
7.387309E+03	3.858662E-17	1.277026E-18
7.397211E+03	3.873905E-17	1.278972E-18
7.407114E+03	3.889186E-17	1.281212E-18
7.417017E+03	3.904353E-17	1.283708E-18
7.426919E+03	3.919520E-17	1.286509E-18
7.436822E+03	3.934717E-17	1.289637E-18
7.446724E+03	3.949863E-17	1.293078E-18
7.456627E+03	3.965127E-17	1.296899E-18
7.466529E+03	3.980308E-17	1.301045E-18
7.476432E+03	3.995488E-17	1.305554E-18
7.486334E+03	4.010565E-17	1.310406E-18
7.496237E+03	4.025628E-17	1.315633E-18
7.506140E+03	4.040580E-17	1.321202E-18
7.516042E+03	4.055514E-17	1.327143E-18
7.525945E+03	4.070333E-17	1.333422E-18
7.535847E+03	4.085033E-17	1.340034E-18
7.545750E+03	4.099706E-17	1.347008E-18
7.555652E+03	4.114249E-17	1.354305E-18
7.565555E+03	4.128654E-17	1.361920E-18
7.575457E+03	4.143012E-17	1.369877E-18
7.585360E+03	4.157213E-17	1.378137E-18
7.595263E+03	4.171347E-17	1.386724E-18
7.605165E+03	4.185195E-17	1.395559E-18
7.615068E+03	4.198948E-17	1.404701E-18
7.624970E+03	4.212593E-17	1.414140E-18
7.634873E+03	4.226010E-17	1.423829E-18
7.644775E+03	4.239291E-17	1.433792E-18
7.654678E+03	4.252316E-17	1.443982E-18
7.664581E+03	4.265073E-17	1.454388E-18
7.674483E+03	4.277653E-17	1.465033E-18
7.684386E+03	4.290044E-17	1.475907E-18
