#wls	flux	fluxerr
1.584409E+03	1.137971E-16	2.781142E-17
1.624020E+03	1.201177E-16	2.924338E-17
1.663630E+03	1.262696E-16	3.061899E-17
1.703240E+03	1.321446E-16	3.191199E-17
1.742850E+03	1.376725E-16	3.310575E-17
1.782461E+03	1.426749E-16	3.415804E-17
1.822071E+03	1.469489E-16	3.502157E-17
1.861681E+03	1.502813E-16	3.564774E-17
1.901291E+03	1.523891E-16	3.597239E-17
1.940902E+03	1.530513E-16	3.594758E-17
1.980512E+03	1.521409E-16	3.554858E-17
2.020122E+03	1.498240E-16	3.481975E-17
2.059732E+03	1.466528E-16	3.389410E-17
2.099342E+03	1.436340E-16	3.300652E-17
2.138953E+03	1.418926E-16	3.241359E-17
2.178563E+03	1.420780E-16	3.225769E-17
2.218173E+03	1.440182E-16	3.249180E-17
2.257783E+03	1.468736E-16	3.291987E-17
2.297394E+03	1.495924E-16	3.330327E-17
2.337004E+03	1.513736E-16	3.346510E-17
2.376614E+03	1.517267E-16	3.330180E-17
2.416224E+03	1.504564E-16	3.277747E-17
2.455835E+03	1.475893E-16	3.190586E-17
2.495445E+03	1.432326E-16	3.071827E-17
2.535055E+03	1.375717E-16	2.926228E-17
2.574665E+03	1.308107E-16	2.758844E-17
2.614276E+03	1.231711E-16	2.574982E-17
2.653886E+03	1.148629E-16	2.379578E-17
2.693496E+03	1.060964E-16	2.177432E-17
2.733106E+03	9.707328E-17	1.973019E-17
2.772716E+03	8.798371E-17	1.770441E-17
2.812327E+03	7.900519E-17	1.573395E-17
2.851937E+03	7.030123E-17	1.385155E-17
2.891547E+03	6.201353E-17	1.208429E-17
2.931157E+03	5.425909E-17	1.045314E-17
2.970768E+03	4.712416E-17	8.972076E-18
2.980670E+03	4.544545E-17	8.626451E-18
2.990573E+03	4.380842E-17	8.290508E-18
3.000475E+03	4.221532E-17	7.964610E-18
3.010378E+03	4.066521E-17	7.648525E-18
3.020280E+03	3.915905E-17	7.342364E-18
3.030183E+03	3.769749E-17	7.046189E-18
3.040086E+03	3.627913E-17	6.759674E-18
3.049988E+03	3.490740E-17	6.483389E-18
3.059891E+03	3.358152E-17	6.217122E-18
3.069793E+03	3.230163E-17	5.960828E-18
3.079696E+03	3.106586E-17	5.714091E-18
3.089598E+03	2.987312E-17	5.476642E-18
3.099501E+03	2.872351E-17	5.248434E-18
3.109403E+03	2.761497E-17	5.029021E-18
3.119306E+03	2.654822E-17	4.818468E-18
3.129209E+03	2.552082E-17	4.616270E-18
3.139111E+03	2.453334E-17	4.422463E-18
3.149014E+03	2.358395E-17	4.236653E-18
3.158916E+03	2.267261E-17	4.058768E-18
3.168819E+03	2.179792E-17	3.888501E-18
3.178721E+03	2.095934E-17	3.725691E-18
3.188624E+03	2.015589E-17	3.570102E-18
3.198526E+03	1.938668E-17	3.421519E-18
3.208429E+03	1.865047E-17	3.279667E-18
3.218332E+03	1.794701E-17	3.144442E-18
3.228234E+03	1.727503E-17	3.015566E-18
3.238137E+03	1.663385E-17	2.892869E-18
3.248039E+03	1.602225E-17	2.776081E-18
3.257942E+03	1.543923E-17	2.664981E-18
3.267844E+03	1.488407E-17	2.559391E-18
3.277747E+03	1.435553E-17	2.459050E-18
3.287650E+03	1.385286E-17	2.363783E-18
3.297552E+03	1.337506E-17	2.273371E-18
3.307455E+03	1.292080E-17	2.187544E-18
3.317357E+03	1.248952E-17	2.106165E-18
3.327260E+03	1.208013E-17	2.029008E-18
3.337162E+03	1.169174E-17	1.955884E-18
3.347065E+03	1.132348E-17	1.886607E-18
3.356967E+03	1.097421E-17	1.820952E-18
3.366870E+03	1.064344E-17	1.758801E-18
3.376773E+03	1.033022E-17	1.699965E-18
3.386675E+03	1.003368E-17	1.644266E-18
3.396578E+03	9.753099E-18	1.591554E-18
3.406480E+03	9.487785E-18	1.541686E-18
3.416383E+03	9.236832E-18	1.494487E-18
3.426285E+03	8.999753E-18	1.449851E-18
3.436188E+03	8.775714E-18	1.407615E-18
3.446090E+03	8.564179E-18	1.367670E-18
3.455993E+03	8.364512E-18	1.329889E-18
3.465896E+03	8.176136E-18	1.294158E-18
3.475798E+03	7.998489E-18	1.260365E-18
3.485701E+03	7.831066E-18	1.228411E-18
3.495603E+03	7.673283E-18	1.198183E-18
3.505506E+03	7.524621E-18	1.169582E-18
3.515408E+03	7.384660E-18	1.142524E-18
3.525311E+03	7.252922E-18	1.116919E-18
3.535213E+03	7.129057E-18	1.092695E-18
3.545116E+03	7.012561E-18	1.069759E-18
3.555019E+03	6.903119E-18	1.048050E-18
3.564921E+03	6.800373E-18	1.027499E-18
3.574824E+03	6.704091E-18	1.008056E-18
3.584726E+03	6.613889E-18	9.896517E-19
3.594629E+03	6.529515E-18	9.722353E-19
3.604531E+03	6.450545E-18	9.557321E-19
3.614434E+03	6.376767E-18	9.400996E-19
3.624337E+03	6.307926E-18	9.252898E-19
3.634239E+03	6.243776E-18	9.112565E-19
3.644142E+03	6.184142E-18	8.979642E-19
3.654044E+03	6.128854E-18	8.853793E-19
3.663947E+03	6.077695E-18	8.734615E-19
3.673849E+03	6.030565E-18	8.621876E-19
3.683752E+03	5.987255E-18	8.515196E-19
3.693654E+03	5.947728E-18	8.414442E-19
3.703557E+03	5.911832E-18	8.319321E-19
3.713460E+03	5.879420E-18	8.229552E-19
3.723362E+03	5.850406E-18	8.144939E-19
3.733265E+03	5.824749E-18	8.065355E-19
3.743167E+03	5.802308E-18	7.990536E-19
3.753070E+03	5.783049E-18	7.920368E-19
3.762972E+03	5.766840E-18	7.854602E-19
3.772875E+03	5.753601E-18	7.793067E-19
3.782777E+03	5.743303E-18	7.735663E-19
3.792680E+03	5.735921E-18	7.682292E-19
3.802583E+03	5.731333E-18	7.632733E-19
3.812485E+03	5.729566E-18	7.586961E-19
3.822388E+03	5.730455E-18	7.544703E-19
3.832290E+03	5.734074E-18	7.506000E-19
3.842193E+03	5.740264E-18	7.470587E-19
3.852095E+03	5.749094E-18	7.438503E-19
3.861998E+03	5.760450E-18	7.409546E-19
3.871900E+03	5.774311E-18	7.383639E-19
3.881803E+03	5.790608E-18	7.360641E-19
3.891706E+03	5.809316E-18	7.340477E-19
3.901608E+03	5.830371E-18	7.323014E-19
3.911511E+03	5.853797E-18	7.308240E-19
3.921413E+03	5.879480E-18	7.295966E-19
3.931316E+03	5.907404E-18	7.286129E-19
3.941218E+03	5.937500E-18	7.278603E-19
3.951121E+03	5.969798E-18	7.273384E-19
3.961024E+03	6.004235E-18	7.270356E-19
3.970926E+03	6.040744E-18	7.269401E-19
3.980829E+03	6.079260E-18	7.270404E-19
3.990731E+03	6.119820E-18	7.273375E-19
4.000634E+03	6.162313E-18	7.278149E-19
4.010536E+03	6.206778E-18	7.284743E-19
4.020439E+03	6.253113E-18	7.293005E-19
4.030341E+03	6.301317E-18	7.302906E-19
4.040244E+03	6.351394E-18	7.314424E-19
4.050147E+03	6.403304E-18	7.327487E-19
4.060049E+03	6.457008E-18	7.342026E-19
4.069952E+03	6.512473E-18	7.357981E-19
4.079854E+03	6.569774E-18	7.375416E-19
4.089757E+03	6.628831E-18	7.394220E-19
4.099659E+03	6.689674E-18	7.414406E-19
4.109562E+03	6.752234E-18	7.435883E-19
4.119464E+03	6.816549E-18	7.458675E-19
4.129367E+03	6.882657E-18	7.482808E-19
4.139270E+03	6.950504E-18	7.508210E-19
4.149172E+03	7.020141E-18	7.534924E-19
4.159075E+03	7.091521E-18	7.562886E-19
4.168977E+03	7.164703E-18	7.592151E-19
4.178880E+03	7.239652E-18	7.622674E-19
4.188782E+03	7.316443E-18	7.654524E-19
4.198685E+03	7.395049E-18	7.687668E-19
4.208587E+03	7.475509E-18	7.722142E-19
4.218490E+03	7.557799E-18	7.757917E-19
4.228393E+03	7.642034E-18	7.795109E-19
4.238295E+03	7.728207E-18	7.833710E-19
4.248198E+03	7.816376E-18	7.873779E-19
4.258100E+03	7.906557E-18	7.915332E-19
4.268003E+03	7.998745E-18	7.958369E-19
4.277905E+03	8.093018E-18	8.002973E-19
4.287808E+03	8.189468E-18	8.049239E-19
4.297711E+03	8.288093E-18	8.097173E-19
4.307613E+03	8.388988E-18	8.146874E-19
4.317516E+03	8.492184E-18	8.198386E-19
4.327418E+03	8.597824E-18	8.251857E-19
4.337321E+03	8.706019E-18	8.307405E-19
4.347223E+03	8.817079E-18	8.365337E-19
4.357126E+03	8.930974E-18	8.425636E-19
4.367028E+03	9.047659E-18	8.488276E-19
4.376931E+03	9.167042E-18	8.553188E-19
4.386834E+03	9.289142E-18	8.620414E-19
4.396736E+03	9.413783E-18	8.689817E-19
4.406639E+03	9.540851E-18	8.761326E-19
4.416541E+03	9.670302E-18	8.834934E-19
4.426444E+03	9.802015E-18	8.910572E-19
4.436346E+03	9.935823E-18	8.988119E-19
4.446249E+03	1.007147E-17	9.067374E-19
4.456151E+03	1.020884E-17	9.148262E-19
4.466054E+03	1.034762E-17	9.230554E-19
4.475957E+03	1.048761E-17	9.314092E-19
4.485859E+03	1.062854E-17	9.398693E-19
4.495762E+03	1.076997E-17	9.484014E-19
4.505664E+03	1.091169E-17	9.569939E-19
4.515567E+03	1.105333E-17	9.656176E-19
4.525469E+03	1.119457E-17	9.742523E-19
4.535372E+03	1.133488E-17	9.828583E-19
4.545274E+03	1.147401E-17	9.914203E-19
4.555177E+03	1.161140E-17	9.998976E-19
4.565080E+03	1.174677E-17	1.008272E-18
4.574982E+03	1.187950E-17	1.016500E-18
4.584885E+03	1.200918E-17	1.024553E-18
4.594787E+03	1.213526E-17	1.032392E-18
4.604690E+03	1.225736E-17	1.039993E-18
4.614592E+03	1.237480E-17	1.047306E-18
4.624495E+03	1.248719E-17	1.054306E-18
4.634398E+03	1.259387E-17	1.060946E-18
4.644300E+03	1.269422E-17	1.067181E-18
4.654203E+03	1.278778E-17	1.072980E-18
4.664105E+03	1.287374E-17	1.078282E-18
4.674008E+03	1.295152E-17	1.083047E-18
4.683910E+03	1.302057E-17	1.087234E-18
4.693813E+03	1.308117E-17	1.090873E-18
4.703715E+03	1.313332E-17	1.093971E-18
4.713618E+03	1.317739E-17	1.096561E-18
4.723521E+03	1.321351E-17	1.098658E-18
4.733423E+03	1.324211E-17	1.100298E-18
4.743326E+03	1.326338E-17	1.101494E-18
4.753228E+03	1.327759E-17	1.102270E-18
4.763131E+03	1.328508E-17	1.102650E-18
4.773033E+03	1.328612E-17	1.102655E-18
4.782936E+03	1.328099E-17	1.102304E-18
4.792838E+03	1.326986E-17	1.101609E-18
4.802741E+03	1.325313E-17	1.100599E-18
4.812644E+03	1.323110E-17	1.099295E-18
4.822546E+03	1.320392E-17	1.097704E-18
4.832449E+03	1.317187E-17	1.095846E-18
4.842351E+03	1.313535E-17	1.093749E-18
4.852254E+03	1.309440E-17	1.091412E-18
4.862156E+03	1.304952E-17	1.088869E-18
4.872059E+03	1.300082E-17	1.086127E-18
4.881961E+03	1.294842E-17	1.083189E-18
4.891864E+03	1.289263E-17	1.080077E-18
4.901767E+03	1.283364E-17	1.076799E-18
4.911669E+03	1.277149E-17	1.073356E-18
4.921572E+03	1.270646E-17	1.069764E-18
4.931474E+03	1.263844E-17	1.066009E-18
4.941377E+03	1.256780E-17	1.062118E-18
4.951279E+03	1.249455E-17	1.058083E-18
4.961182E+03	1.241864E-17	1.053899E-18
4.971085E+03	1.234033E-17	1.049579E-18
4.980987E+03	1.225955E-17	1.045114E-18
4.990890E+03	1.217641E-17	1.040508E-18
5.000792E+03	1.209099E-17	1.035761E-18
5.010695E+03	1.200336E-17	1.030876E-18
5.020597E+03	1.191347E-17	1.025842E-18
5.030500E+03	1.182150E-17	1.020671E-18
5.040402E+03	1.172739E-17	1.015350E-18
5.050305E+03	1.163119E-17	1.009882E-18
5.060208E+03	1.153283E-17	1.004254E-18
5.070110E+03	1.143251E-17	9.984787E-19
5.080013E+03	1.133006E-17	9.925372E-19
5.089915E+03	1.122581E-17	9.864524E-19
5.099818E+03	1.111962E-17	9.802090E-19
5.109720E+03	1.101173E-17	9.738219E-19
5.119623E+03	1.090213E-17	9.672870E-19
5.129525E+03	1.079082E-17	9.606000E-19
5.139428E+03	1.067803E-17	9.537756E-19
5.149331E+03	1.056375E-17	9.468111E-19
5.159233E+03	1.044810E-17	9.397110E-19
5.169136E+03	1.033120E-17	9.324836E-19
5.179038E+03	1.021306E-17	9.251250E-19
5.188941E+03	1.009379E-17	9.176427E-19
5.198843E+03	9.973426E-18	9.100350E-19
5.208746E+03	9.852175E-18	9.023183E-19
5.218648E+03	9.730067E-18	8.944918E-19
5.228551E+03	9.607230E-18	8.865639E-19
5.238454E+03	9.483783E-18	8.785426E-19
5.248356E+03	9.359778E-18	8.704300E-19
5.258259E+03	9.235340E-18	8.622348E-19
5.268161E+03	9.110602E-18	8.539666E-19
5.278064E+03	8.985714E-18	8.456374E-19
5.287966E+03	8.860726E-18	8.372495E-19
5.297869E+03	8.735868E-18	8.288224E-19
5.307772E+03	8.611311E-18	8.203708E-19
5.317674E+03	8.487205E-18	8.119070E-19
5.327577E+03	8.363636E-18	8.034381E-19
5.337479E+03	8.240980E-18	7.949989E-19
5.347382E+03	8.119351E-18	7.865998E-19
5.357284E+03	7.999115E-18	7.782756E-19
5.367187E+03	7.880436E-18	7.700425E-19
5.377089E+03	7.763619E-18	7.619303E-19
5.386992E+03	7.648900E-18	7.539631E-19
5.396895E+03	7.536685E-18	7.461820E-19
5.406797E+03	7.427143E-18	7.386055E-19
5.416700E+03	7.320431E-18	7.312507E-19
5.426602E+03	7.216644E-18	7.241285E-19
5.436505E+03	7.116010E-18	7.172629E-19
5.446407E+03	7.018611E-18	7.106638E-19
5.456310E+03	6.924659E-18	7.043546E-19
5.466212E+03	6.834354E-18	6.983581E-19
5.476115E+03	6.747885E-18	6.926962E-19
5.486018E+03	6.665422E-18	6.873898E-19
5.495920E+03	6.587190E-18	6.824659E-19
5.505823E+03	6.513327E-18	6.779427E-19
5.515725E+03	6.444085E-18	6.738509E-19
5.525628E+03	6.379500E-18	6.701996E-19
5.535530E+03	6.319855E-18	6.670233E-19
5.545433E+03	6.265141E-18	6.643270E-19
5.555335E+03	6.215529E-18	6.621347E-19
5.565238E+03	6.171174E-18	6.604690E-19
5.575141E+03	6.131994E-18	6.593277E-19
5.585043E+03	6.098211E-18	6.587412E-19
5.594946E+03	6.069787E-18	6.587122E-19
5.604848E+03	6.046645E-18	6.592393E-19
5.614751E+03	6.028952E-18	6.603477E-19
5.624653E+03	6.016559E-18	6.620283E-19
5.634556E+03	6.009483E-18	6.642898E-19
5.644459E+03	6.007735E-18	6.671409E-19
5.654361E+03	6.011268E-18	6.705832E-19
5.664264E+03	6.020020E-18	6.746173E-19
5.674166E+03	6.033930E-18	6.792430E-19
5.684069E+03	6.053005E-18	6.844683E-19
5.693971E+03	6.077241E-18	6.902999E-19
5.703874E+03	6.106449E-18	6.967231E-19
5.713776E+03	6.140761E-18	7.037600E-19
5.723679E+03	6.179994E-18	7.113962E-19
5.733582E+03	6.224227E-18	7.196477E-19
5.743484E+03	6.273347E-18	7.285082E-19
5.753387E+03	6.327380E-18	7.379872E-19
5.763289E+03	6.386286E-18	7.480866E-19
5.773192E+03	6.450103E-18	7.588173E-19
5.783094E+03	6.518730E-18	7.701739E-19
5.792997E+03	6.592137E-18	7.821592E-19
5.802899E+03	6.670372E-18	7.947851E-19
5.812802E+03	6.753487E-18	8.080641E-19
5.822705E+03	6.841315E-18	8.219823E-19
5.832607E+03	6.933989E-18	8.365617E-19
5.842510E+03	7.031419E-18	8.517975E-19
5.852412E+03	7.133671E-18	8.677036E-19
5.862315E+03	7.240735E-18	8.842846E-19
5.872217E+03	7.352514E-18	9.015345E-19
5.882120E+03	7.469074E-18	9.194669E-19
5.892022E+03	7.590397E-18	9.380852E-19
5.901925E+03	7.716372E-18	9.573811E-19
5.911828E+03	7.847151E-18	9.773786E-19
5.921730E+03	7.982533E-18	9.980583E-19
5.931633E+03	8.122572E-18	1.019432E-18
5.941535E+03	8.267236E-18	1.041499E-18
5.951438E+03	8.416386E-18	1.064249E-18
5.961340E+03	8.570074E-18	1.087692E-18
5.971243E+03	8.728055E-18	1.111800E-18
5.981146E+03	8.890465E-18	1.136597E-18
5.991048E+03	9.057049E-18	1.162052E-18
6.000951E+03	9.227829E-18	1.188173E-18
6.010853E+03	9.402641E-18	1.214941E-18
6.020756E+03	9.581383E-18	1.242348E-18
6.030658E+03	9.763867E-18	1.270370E-18
6.040561E+03	9.949865E-18	1.298982E-18
6.050463E+03	1.013938E-17	1.328186E-18
6.060366E+03	1.033194E-17	1.357922E-18
6.070269E+03	1.052752E-17	1.388189E-18
6.080171E+03	1.072574E-17	1.418935E-18
6.090074E+03	1.092643E-17	1.450142E-18
6.099976E+03	1.112887E-17	1.481714E-18
6.109879E+03	1.133302E-17	1.513643E-18
6.119781E+03	1.153826E-17	1.545845E-18
6.129684E+03	1.174417E-17	1.578265E-18
6.139586E+03	1.195022E-17	1.610828E-18
6.149489E+03	1.215644E-17	1.643535E-18
6.159392E+03	1.236303E-17	1.676412E-18
6.169294E+03	1.257024E-17	1.709489E-18
6.179197E+03	1.277837E-17	1.742803E-18
6.189099E+03	1.298722E-17	1.776329E-18
6.199002E+03	1.319751E-17	1.810160E-18
6.208904E+03	1.340894E-17	1.844256E-18
6.218807E+03	1.362192E-17	1.878669E-18
6.228709E+03	1.383675E-17	1.913442E-18
6.238612E+03	1.405319E-17	1.948538E-18
6.248515E+03	1.427154E-17	1.983999E-18
6.258417E+03	1.449197E-17	2.019848E-18
6.268320E+03	1.471466E-17	2.056109E-18
6.278222E+03	1.493940E-17	2.092750E-18
6.288125E+03	1.516640E-17	2.129801E-18
6.298027E+03	1.539567E-17	2.167262E-18
6.307930E+03	1.562722E-17	2.205133E-18
6.317833E+03	1.586088E-17	2.243388E-18
6.327735E+03	1.609641E-17	2.281995E-18
6.337638E+03	1.633363E-17	2.320923E-18
6.347540E+03	1.657252E-17	2.360170E-18
6.357443E+03	1.681287E-17	2.399701E-18
6.367345E+03	1.705393E-17	2.439409E-18
6.377248E+03	1.729642E-17	2.479395E-18
6.387150E+03	1.754035E-17	2.519657E-18
6.397053E+03	1.778599E-17	2.560231E-18
6.406956E+03	1.803392E-17	2.601199E-18
6.416858E+03	1.828394E-17	2.642530E-18
6.426761E+03	1.853664E-17	2.684311E-18
6.436663E+03	1.879214E-17	2.726552E-18
6.446566E+03	1.905081E-17	2.769310E-18
6.456468E+03	1.931218E-17	2.812513E-18
6.466371E+03	1.957723E-17	2.856304E-18
6.476273E+03	1.984550E-17	2.900613E-18
6.486176E+03	2.011737E-17	2.945496E-18
6.496079E+03	2.039300E-17	2.990976E-18
6.505981E+03	2.067218E-17	3.037017E-18
6.515884E+03	2.095535E-17	3.083686E-18
6.525786E+03	2.124265E-17	3.131001E-18
6.535689E+03	2.153387E-17	3.178930E-18
6.545591E+03	2.182912E-17	3.227488E-18
6.555494E+03	2.212854E-17	3.276696E-18
6.565396E+03	2.243264E-17	3.326623E-18
6.575299E+03	2.274079E-17	3.377180E-18
6.585202E+03	2.305348E-17	3.428435E-18
6.595104E+03	2.337085E-17	3.480407E-18
6.605007E+03	2.369260E-17	3.533052E-18
6.614909E+03	2.401925E-17	3.586444E-18
6.624812E+03	2.435050E-17	3.640535E-18
6.634714E+03	2.468685E-17	3.695401E-18
6.644617E+03	2.502757E-17	3.750929E-18
6.654520E+03	2.537318E-17	3.807194E-18
6.664422E+03	2.572420E-17	3.864273E-18
6.674325E+03	2.607986E-17	3.922048E-18
6.684227E+03	2.644069E-17	3.980597E-18
6.694130E+03	2.680631E-17	4.039860E-18
6.704032E+03	2.717729E-17	4.099920E-18
6.713935E+03	2.755326E-17	4.160717E-18
6.723837E+03	2.793429E-17	4.222260E-18
6.733740E+03	2.832098E-17	4.284638E-18
6.743643E+03	2.871241E-17	4.347709E-18
6.753545E+03	2.910971E-17	4.411638E-18
6.763448E+03	2.951193E-17	4.476279E-18
6.773350E+03	2.992023E-17	4.541807E-18
6.783253E+03	3.033362E-17	4.608066E-18
6.793155E+03	3.075214E-17	4.675061E-18
6.803058E+03	3.117646E-17	4.742886E-18
6.812960E+03	3.160663E-17	4.811548E-18
6.822863E+03	3.204153E-17	4.880873E-18
6.832766E+03	3.248239E-17	4.951044E-18
6.842668E+03	3.292865E-17	5.021971E-18
6.852571E+03	3.338096E-17	5.093749E-18
6.862473E+03	3.383810E-17	5.166188E-18
6.872376E+03	3.430070E-17	5.239378E-18
6.882278E+03	3.476877E-17	5.313318E-18
6.892181E+03	3.524165E-17	5.387904E-18
6.902083E+03	3.572000E-17	5.463229E-18
6.911986E+03	3.620384E-17	5.539292E-18
6.921889E+03	3.669248E-17	5.615984E-18
6.931791E+03	3.718586E-17	5.693290E-18
6.941694E+03	3.768402E-17	5.771209E-18
6.951596E+03	3.818766E-17	5.849848E-18
6.961499E+03	3.869531E-17	5.928970E-18
6.971401E+03	3.920847E-17	6.008804E-18
6.981304E+03	3.972561E-17	6.089110E-18
6.991207E+03	4.024748E-17	6.169996E-18
7.001109E+03	4.077331E-17	6.251339E-18
7.011012E+03	4.130389E-17	6.333254E-18
7.020914E+03	4.183921E-17	6.415734E-18
7.030817E+03	4.237848E-17	6.498654E-18
7.040719E+03	4.292081E-17	6.581868E-18
7.050622E+03	4.346787E-17	6.665630E-18
7.060524E+03	4.401884E-17	6.749807E-18
7.070427E+03	4.457368E-17	6.834387E-18
7.080330E+03	4.513238E-17	6.919361E-18
7.090232E+03	4.569396E-17	7.004577E-18
7.100135E+03	4.625931E-17	7.090162E-18
7.110037E+03	4.682739E-17	7.175952E-18
7.119940E+03	4.739814E-17	7.261932E-18
7.129842E+03	4.797244E-17	7.348232E-18
7.139745E+03	4.854919E-17	7.434677E-18
7.149647E+03	4.912930E-17	7.521399E-18
7.159550E+03	4.971056E-17	7.608056E-18
7.169453E+03	5.029379E-17	7.694768E-18
7.179355E+03	5.087877E-17	7.781496E-18
7.189258E+03	5.146524E-17	7.868193E-18
7.199160E+03	5.205289E-17	7.954808E-18
7.209063E+03	5.264136E-17	8.041280E-18
7.218965E+03	5.322911E-17	8.127370E-18
7.228868E+03	5.381676E-17	8.213168E-18
7.238770E+03	5.440385E-17	8.298596E-18
7.248673E+03	5.498979E-17	8.383564E-18
7.258576E+03	5.557276E-17	8.467788E-18
7.268478E+03	5.615329E-17	8.551347E-18
7.278381E+03	5.673194E-17	8.634321E-18
7.288283E+03	5.730548E-17	8.716215E-18
7.298186E+03	5.787434E-17	8.797093E-18
7.308088E+03	5.843770E-17	8.876829E-18
7.317991E+03	5.899596E-17	8.955480E-18
7.327894E+03	5.954693E-17	9.032712E-18
7.337796E+03	6.009097E-17	9.108581E-18
7.347699E+03	6.062847E-17	9.183144E-18
7.357601E+03	6.115711E-17	9.256049E-18
7.367504E+03	6.167863E-17	9.327561E-18
7.377406E+03	6.218925E-17	9.397106E-18
7.387309E+03	6.268928E-17	9.464737E-18
7.397211E+03	6.317619E-17	9.530070E-18
7.407114E+03	6.365026E-17	9.593154E-18
7.417017E+03	6.410740E-17	9.653376E-18
7.426919E+03	6.454786E-17	9.710777E-18
7.436822E+03	6.497038E-17	9.765176E-18
7.446724E+03	6.537296E-17	9.816279E-18
7.456627E+03	6.575916E-17	9.864628E-18
7.466529E+03	6.612653E-17	9.909862E-18
7.476432E+03	6.647727E-17	9.952321E-18
7.486334E+03	6.681046E-17	9.991874E-18
7.496237E+03	6.712837E-17	1.002887E-17
7.506140E+03	6.743006E-17	1.006317E-17
7.516042E+03	6.771787E-17	1.009514E-17
7.525945E+03	6.799087E-17	1.012465E-17
7.535847E+03	6.824976E-17	1.015180E-17
7.545750E+03	6.849683E-17	1.017694E-17
7.555652E+03	6.873106E-17	1.019992E-17
7.565555E+03	6.895303E-17	1.022083E-17
7.575457E+03	6.916494E-17	1.024001E-17
7.585360E+03	6.936559E-17	1.025729E-17
7.595263E+03	6.955713E-17	1.027298E-17
7.605165E+03	6.973650E-17	1.028663E-17
7.615068E+03	6.990745E-17	1.029881E-17
7.624970E+03	7.007030E-17	1.030957E-17
7.634873E+03	7.022358E-17	1.031870E-17
7.644775E+03	7.036925E-17	1.032649E-17
7.654678E+03	7.050575E-17	1.033271E-17
7.664581E+03	7.063322E-17	1.033739E-17
7.674483E+03	7.075355E-17	1.034082E-17
7.684386E+03	7.086681E-17	1.034300E-17
