#wls	flux	fluxerr
1.584409E+03	2.711916E-17	1.754352E-17
1.624020E+03	2.576277E-17	1.663526E-17
1.663630E+03	2.435748E-17	1.569693E-17
1.703240E+03	2.291368E-17	1.473566E-17
1.742850E+03	2.144357E-17	1.375970E-17
1.782461E+03	1.995384E-17	1.277373E-17
1.822071E+03	1.844158E-17	1.177631E-17
1.861681E+03	1.691323E-17	1.077196E-17
1.901291E+03	1.537284E-17	9.763706E-18
1.940902E+03	1.383086E-17	8.758596E-18
1.980512E+03	1.230807E-17	7.770152E-18
2.020122E+03	1.084250E-17	6.822597E-18
2.059732E+03	9.487082E-18	5.949182E-18
2.099342E+03	8.298705E-18	5.185129E-18
2.138953E+03	7.315892E-18	4.553636E-18
2.178563E+03	6.532357E-18	4.049638E-18
2.218173E+03	5.901016E-18	3.642825E-18
2.257783E+03	5.359227E-18	3.293709E-18
2.297394E+03	4.855773E-18	2.970401E-18
2.337004E+03	4.362768E-18	2.655771E-18
2.376614E+03	3.872273E-18	2.345093E-18
2.416224E+03	3.387943E-18	2.040727E-18
2.455835E+03	2.918315E-18	1.747916E-18
2.495445E+03	2.471637E-18	1.471607E-18
2.535055E+03	2.054742E-18	1.215789E-18
2.574665E+03	1.672032E-18	9.828965E-19
2.614276E+03	1.326031E-18	7.741811E-19
2.653886E+03	1.017529E-18	5.898190E-19
2.693496E+03	7.461053E-19	4.292459E-19
2.733106E+03	5.104305E-19	2.913542E-19
2.772716E+03	3.085113E-19	1.746513E-19
2.812327E+03	1.379257E-19	7.740915E-20
2.851937E+03	-4.025578E-21	-2.238950E-21
2.891547E+03	-1.202157E-19	-6.623096E-20
2.931157E+03	-2.135945E-19	-1.165144E-19
2.970768E+03	-2.870985E-19	-1.549913E-19
2.980670E+03	-3.027157E-19	-1.629860E-19
2.990573E+03	-3.173104E-19	-1.703825E-19
3.000475E+03	-3.309241E-19	-1.772071E-19
3.010378E+03	-3.436136E-19	-1.834937E-19
3.020280E+03	-3.554126E-19	-1.892640E-19
3.030183E+03	-3.663614E-19	-1.945427E-19
3.040086E+03	-3.765119E-19	-1.993609E-19
3.049988E+03	-3.859108E-19	-2.037464E-19
3.059891E+03	-3.946129E-19	-2.077310E-19
3.069793E+03	-4.026680E-19	-2.113438E-19
3.079696E+03	-4.100919E-19	-2.145957E-19
3.089598E+03	-4.169242E-19	-2.175101E-19
3.099501E+03	-4.231867E-19	-2.201007E-19
3.109403E+03	-4.289343E-19	-2.223986E-19
3.119306E+03	-4.341704E-19	-2.244076E-19
3.129209E+03	-4.389312E-19	-2.261487E-19
3.139111E+03	-4.432525E-19	-2.276424E-19
3.149014E+03	-4.471605E-19	-2.289041E-19
3.158916E+03	-4.506642E-19	-2.299402E-19
3.168819E+03	-4.538136E-19	-2.307781E-19
3.178721E+03	-4.566162E-19	-2.314232E-19
3.188624E+03	-4.591039E-19	-2.318932E-19
3.198526E+03	-4.612912E-19	-2.321970E-19
3.208429E+03	-4.632082E-19	-2.323510E-19
3.218332E+03	-4.648762E-19	-2.323672E-19
3.228234E+03	-4.663157E-19	-2.322571E-19
3.238137E+03	-4.675382E-19	-2.320276E-19
3.248039E+03	-4.685708E-19	-2.316929E-19
3.257942E+03	-4.694315E-19	-2.312632E-19
3.267844E+03	-4.701298E-19	-2.307439E-19
3.277747E+03	-4.706902E-19	-2.301476E-19
3.287650E+03	-4.711205E-19	-2.294791E-19
3.297552E+03	-4.714432E-19	-2.287500E-19
3.307455E+03	-4.716648E-19	-2.279638E-19
3.317357E+03	-4.717986E-19	-2.271276E-19
3.327260E+03	-4.718568E-19	-2.262477E-19
3.337162E+03	-4.718508E-19	-2.253300E-19
3.347065E+03	-4.717913E-19	-2.243797E-19
3.356967E+03	-4.716807E-19	-2.233986E-19
3.366870E+03	-4.715347E-19	-2.223942E-19
3.376773E+03	-4.713474E-19	-2.213639E-19
3.386675E+03	-4.711392E-19	-2.203175E-19
3.396578E+03	-4.709025E-19	-2.192516E-19
3.406480E+03	-4.706423E-19	-2.181688E-19
3.416383E+03	-4.703625E-19	-2.170708E-19
3.426285E+03	-4.700595E-19	-2.159562E-19
3.436188E+03	-4.697414E-19	-2.148288E-19
3.446090E+03	-4.694026E-19	-2.136863E-19
3.455993E+03	-4.690364E-19	-2.125255E-19
3.465896E+03	-4.686413E-19	-2.113462E-19
3.475798E+03	-4.682087E-19	-2.101446E-19
3.485701E+03	-4.677405E-19	-2.089218E-19
3.495603E+03	-4.672139E-19	-2.076679E-19
3.505506E+03	-4.666282E-19	-2.063830E-19
3.515408E+03	-4.659704E-19	-2.050618E-19
3.525311E+03	-4.652311E-19	-2.037006E-19
3.535213E+03	-4.643888E-19	-2.022907E-19
3.545116E+03	-4.634266E-19	-2.008255E-19
3.555019E+03	-4.623366E-19	-1.993025E-19
3.564921E+03	-4.610885E-19	-1.977094E-19
3.574824E+03	-4.596716E-19	-1.960430E-19
3.584726E+03	-4.580632E-19	-1.942948E-19
3.594629E+03	-4.562345E-19	-1.924541E-19
3.604531E+03	-4.541603E-19	-1.905119E-19
3.614434E+03	-4.518192E-19	-1.884612E-19
3.624337E+03	-4.491788E-19	-1.862904E-19
3.634239E+03	-4.462197E-19	-1.839939E-19
3.644142E+03	-4.429025E-19	-1.815580E-19
3.654044E+03	-4.392008E-19	-1.789745E-19
3.663947E+03	-4.350826E-19	-1.762337E-19
3.673849E+03	-4.305195E-19	-1.733272E-19
3.683752E+03	-4.254733E-19	-1.702432E-19
3.693654E+03	-4.199142E-19	-1.669738E-19
3.703557E+03	-4.138072E-19	-1.635092E-19
3.713460E+03	-4.071215E-19	-1.598418E-19
3.723362E+03	-3.998213E-19	-1.559621E-19
3.733265E+03	-3.918753E-19	-1.518633E-19
3.743167E+03	-3.832477E-19	-1.475367E-19
3.753070E+03	-3.739035E-19	-1.429747E-19
3.762972E+03	-3.638188E-19	-1.381741E-19
3.772875E+03	-3.529521E-19	-1.331255E-19
3.782777E+03	-3.412766E-19	-1.278257E-19
3.792680E+03	-3.287659E-19	-1.222715E-19
3.802583E+03	-3.153846E-19	-1.164572E-19
3.812485E+03	-3.011048E-19	-1.103801E-19
3.822388E+03	-2.859022E-19	-1.040392E-19
3.832290E+03	-2.697503E-19	-9.743307E-20
3.842193E+03	-2.526233E-19	-9.056087E-20
3.852095E+03	-2.344941E-19	-8.342168E-20
3.861998E+03	-2.153410E-19	-7.601687E-20
3.871900E+03	-1.951403E-19	-6.834743E-20
3.881803E+03	-1.738689E-19	-6.041490E-20
3.891706E+03	-1.515039E-19	-5.222120E-20
3.901608E+03	-1.280223E-19	-4.376865E-20
3.911511E+03	-1.034018E-19	-3.506006E-20
3.921413E+03	-7.761773E-20	-2.609783E-20
3.931316E+03	-5.064392E-20	-1.688420E-20
3.941218E+03	-2.245414E-20	-7.421803E-21
3.951121E+03	6.981772E-21	2.287639E-21
3.961024E+03	3.769631E-20	1.224272E-20
3.970926E+03	6.972577E-20	2.244279E-20
3.980829E+03	1.031096E-19	3.288770E-20
3.990731E+03	1.378944E-19	4.357902E-20
4.000634E+03	1.741305E-19	5.451878E-20
4.010536E+03	2.118769E-19	6.571113E-20
4.020439E+03	2.511995E-19	7.716142E-20
4.030341E+03	2.921727E-19	8.887678E-20
4.040244E+03	3.348806E-19	1.008663E-19
4.050147E+03	3.794218E-19	1.131422E-19
4.060049E+03	4.259014E-19	1.257174E-19
4.069952E+03	4.744411E-19	1.386082E-19
4.079854E+03	5.251872E-19	1.518366E-19
4.089757E+03	5.782874E-19	1.654228E-19
4.099659E+03	6.339217E-19	1.793946E-19
4.109562E+03	6.922883E-19	1.937822E-19
4.119464E+03	7.536100E-19	2.086203E-19
4.129367E+03	8.181377E-19	2.239482E-19
4.139270E+03	8.861532E-19	2.398104E-19
4.149172E+03	9.579738E-19	2.562573E-19
4.159075E+03	1.033956E-18	2.733454E-19
4.168977E+03	1.114502E-18	2.911383E-19
4.178880E+03	1.200064E-18	3.097077E-19
4.188782E+03	1.291140E-18	3.291311E-19
4.198685E+03	1.388304E-18	3.494979E-19
4.208587E+03	1.492218E-18	3.709125E-19
4.218490E+03	1.603618E-18	3.934887E-19
4.228393E+03	1.723311E-18	4.173477E-19
4.238295E+03	1.852258E-18	4.426371E-19
4.248198E+03	1.991543E-18	4.695205E-19
4.258100E+03	2.142403E-18	4.981830E-19
4.268003E+03	2.306260E-18	5.288359E-19
4.277905E+03	2.484726E-18	5.617151E-19
4.287808E+03	2.679736E-18	5.971062E-19
4.297711E+03	2.893435E-18	6.353164E-19
4.307613E+03	3.128423E-18	6.767228E-19
4.317516E+03	3.387689E-18	7.217505E-19
4.327418E+03	3.674772E-18	7.709009E-19
4.337321E+03	3.993798E-18	8.247504E-19
4.347223E+03	4.349655E-18	8.839749E-19
4.357126E+03	4.747136E-18	9.491674E-19
4.367028E+03	5.190892E-18	1.020829E-18
4.376931E+03	5.685948E-18	1.099473E-18
4.386834E+03	6.237839E-18	1.185642E-18
4.396736E+03	6.852782E-18	1.279932E-18
4.406639E+03	7.537488E-18	1.382952E-18
4.416541E+03	8.299369E-18	1.495345E-18
4.426444E+03	9.146615E-18	1.617796E-18
4.436346E+03	1.008790E-17	1.750967E-18
4.446249E+03	1.113287E-17	1.895576E-18
4.456151E+03	1.229189E-17	2.052329E-18
4.466054E+03	1.357598E-17	2.221912E-18
4.475957E+03	1.499701E-17	2.405004E-18
4.485859E+03	1.656763E-17	2.602253E-18
4.495762E+03	1.830121E-17	2.814261E-18
4.505664E+03	2.021178E-17	3.041558E-18
4.515567E+03	2.231375E-17	3.284559E-18
4.525469E+03	2.462191E-17	3.543553E-18
4.535372E+03	2.715205E-17	3.818792E-18
4.545274E+03	2.991919E-17	4.110232E-18
4.555177E+03	3.293835E-17	4.417657E-18
4.565080E+03	3.622483E-17	4.740712E-18
4.574982E+03	3.979309E-17	5.078768E-18
4.584885E+03	4.365543E-17	5.430774E-18
4.594787E+03	4.782527E-17	5.795694E-18
4.604690E+03	5.231143E-17	6.171824E-18
4.614592E+03	5.712345E-17	6.557485E-18
4.624495E+03	6.226726E-17	6.950530E-18
4.634398E+03	6.774615E-17	7.348525E-18
4.644300E+03	7.356049E-17	7.748760E-18
4.654203E+03	7.970750E-17	8.148297E-18
4.664105E+03	8.618296E-17	8.544185E-18
4.674008E+03	9.297712E-17	8.933111E-18
4.683910E+03	1.000793E-16	9.311923E-18
4.693813E+03	1.074803E-16	9.677884E-18
4.703715E+03	1.151669E-16	1.002816E-17
4.713618E+03	1.231298E-16	1.036061E-17
4.723521E+03	1.313521E-16	1.067278E-17
4.733423E+03	1.398215E-16	1.096300E-17
4.743326E+03	1.485212E-16	1.122966E-17
4.753228E+03	1.574311E-16	1.147141E-17
4.763131E+03	1.665346E-16	1.168767E-17
4.773033E+03	1.758158E-16	1.187846E-17
4.782936E+03	1.852534E-16	1.204405E-17
4.792838E+03	1.948315E-16	1.218570E-17
4.802741E+03	2.045331E-16	1.230530E-17
4.812644E+03	2.143391E-16	1.240532E-17
4.822546E+03	2.242330E-16	1.248917E-17
4.832449E+03	2.342017E-16	1.256126E-17
4.842351E+03	2.442276E-16	1.262654E-17
4.852254E+03	2.542994E-16	1.269111E-17
4.862156E+03	2.643979E-16	1.276146E-17
4.872059E+03	2.745130E-16	1.284523E-17
4.881961E+03	2.846329E-16	1.295053E-17
4.891864E+03	2.947424E-16	1.308567E-17
4.901767E+03	3.048306E-16	1.325932E-17
4.911669E+03	3.148800E-16	1.347963E-17
4.921572E+03	3.248769E-16	1.375436E-17
4.931474E+03	3.347996E-16	1.408857E-17
4.941377E+03	3.446273E-16	1.448462E-17
4.951279E+03	3.543359E-16	1.494322E-17
4.961182E+03	3.639114E-16	1.546405E-17
4.971085E+03	3.733250E-16	1.604486E-17
4.980987E+03	3.825546E-16	1.668258E-17
4.990890E+03	3.915827E-16	1.737341E-17
5.000792E+03	4.003832E-16	1.811249E-17
5.010695E+03	4.089351E-16	1.889468E-17
5.020597E+03	4.172198E-16	1.971462E-17
5.030500E+03	4.252231E-16	2.056700E-17
5.040402E+03	4.329328E-16	2.144650E-17
5.050305E+03	4.403446E-16	2.234805E-17
5.060208E+03	4.474621E-16	2.326711E-17
5.070110E+03	4.542749E-16	2.419858E-17
5.080013E+03	4.607915E-16	2.513854E-17
5.089915E+03	4.669984E-16	2.608208E-17
5.099818E+03	4.729061E-16	2.702585E-17
5.109720E+03	4.785107E-16	2.796589E-17
5.119623E+03	4.838144E-16	2.889883E-17
5.129525E+03	4.888191E-16	2.982148E-17
5.139428E+03	4.935218E-16	3.073057E-17
5.149331E+03	4.979241E-16	3.162328E-17
5.159233E+03	5.020239E-16	3.249676E-17
5.169136E+03	5.058332E-16	3.334924E-17
5.179038E+03	5.093382E-16	3.417744E-17
5.188941E+03	5.125469E-16	3.497967E-17
5.198843E+03	5.154606E-16	3.575395E-17
5.208746E+03	5.180815E-16	3.649853E-17
5.218648E+03	5.204010E-16	3.721100E-17
5.228551E+03	5.224270E-16	3.789027E-17
5.238454E+03	5.241558E-16	3.853455E-17
5.248356E+03	5.255908E-16	3.914268E-17
5.258259E+03	5.267287E-16	3.971313E-17
5.268161E+03	5.275791E-16	4.024544E-17
5.278064E+03	5.281352E-16	4.073803E-17
5.287966E+03	5.284020E-16	4.119034E-17
5.297869E+03	5.283799E-16	4.160153E-17
5.307772E+03	5.280810E-16	4.197183E-17
5.317674E+03	5.274975E-16	4.229996E-17
5.327577E+03	5.266438E-16	4.258653E-17
5.337479E+03	5.255254E-16	4.283153E-17
5.347382E+03	5.241489E-16	4.303516E-17
5.357284E+03	5.225124E-16	4.319698E-17
5.367187E+03	5.206263E-16	4.331764E-17
5.377089E+03	5.185024E-16	4.339804E-17
5.386992E+03	5.161338E-16	4.343755E-17
5.396895E+03	5.135360E-16	4.343752E-17
5.406797E+03	5.107113E-16	4.339822E-17
5.416700E+03	5.076736E-16	4.332102E-17
5.426602E+03	5.044641E-16	4.320967E-17
5.436505E+03	5.011049E-16	4.306636E-17
5.446407E+03	4.976374E-16	4.289499E-17
5.456310E+03	4.940892E-16	4.269803E-17
5.466212E+03	4.905026E-16	4.247923E-17
5.476115E+03	4.868947E-16	4.224019E-17
5.486018E+03	4.832980E-16	4.198387E-17
5.495920E+03	4.797340E-16	4.171234E-17
5.505823E+03	4.762388E-16	4.142889E-17
5.515725E+03	4.728275E-16	4.113505E-17
5.525628E+03	4.695238E-16	4.083307E-17
5.535530E+03	4.663453E-16	4.052465E-17
5.545433E+03	4.633173E-16	4.021214E-17
5.555335E+03	4.604489E-16	3.989648E-17
5.565238E+03	4.577571E-16	3.957925E-17
5.575141E+03	4.552567E-16	3.926179E-17
5.585043E+03	4.529559E-16	3.894484E-17
5.594946E+03	4.508654E-16	3.862933E-17
5.604848E+03	4.489849E-16	3.831517E-17
5.614751E+03	4.473211E-16	3.800285E-17
5.624653E+03	4.458792E-16	3.769267E-17
5.634556E+03	4.446578E-16	3.738435E-17
5.644459E+03	4.436538E-16	3.707742E-17
5.654361E+03	4.428630E-16	3.677126E-17
5.664264E+03	4.422885E-16	3.646588E-17
5.674166E+03	4.419140E-16	3.615963E-17
5.684069E+03	4.417409E-16	3.585229E-17
5.693971E+03	4.417599E-16	3.554276E-17
5.703874E+03	4.419568E-16	3.522956E-17
5.713776E+03	4.423257E-16	3.491187E-17
5.723679E+03	4.428609E-16	3.458888E-17
5.733582E+03	4.435465E-16	3.425902E-17
5.743484E+03	4.443712E-16	3.392111E-17
5.753387E+03	4.453338E-16	3.357474E-17
5.763289E+03	4.464135E-16	3.321809E-17
5.773192E+03	4.476042E-16	3.285050E-17
5.783094E+03	4.488953E-16	3.247101E-17
5.792997E+03	4.502767E-16	3.207878E-17
5.802899E+03	4.517433E-16	3.167340E-17
5.812802E+03	4.532757E-16	3.125352E-17
5.822705E+03	4.548746E-16	3.081933E-17
5.832607E+03	4.565263E-16	3.037009E-17
5.842510E+03	4.582221E-16	2.990554E-17
5.852412E+03	4.599538E-16	2.942560E-17
5.862315E+03	4.617135E-16	2.893033E-17
5.872217E+03	4.634982E-16	2.842030E-17
5.882120E+03	4.652896E-16	2.789527E-17
5.892022E+03	4.670799E-16	2.735591E-17
5.901925E+03	4.688662E-16	2.680339E-17
5.911828E+03	4.706402E-16	2.623884E-17
5.921730E+03	4.723828E-16	2.566305E-17
5.931633E+03	4.740955E-16	2.507836E-17
5.941535E+03	4.757528E-16	2.448596E-17
5.951438E+03	4.773612E-16	2.388924E-17
5.961340E+03	4.788938E-16	2.329026E-17
5.971243E+03	4.803394E-16	2.269250E-17
5.981146E+03	4.816923E-16	2.210024E-17
5.991048E+03	4.829352E-16	2.151782E-17
6.000951E+03	4.840558E-16	2.095050E-17
6.010853E+03	4.850305E-16	2.040373E-17
6.020756E+03	4.858587E-16	1.988462E-17
6.030658E+03	4.865114E-16	1.939973E-17
6.040561E+03	4.869895E-16	1.895734E-17
6.050463E+03	4.872778E-16	1.856547E-17
6.060366E+03	4.873631E-16	1.823231E-17
6.070269E+03	4.872407E-16	1.796617E-17
6.080171E+03	4.869151E-16	1.777512E-17
6.090074E+03	4.863834E-16	1.766592E-17
6.099976E+03	4.856533E-16	1.764429E-17
6.109879E+03	4.847510E-16	1.771418E-17
6.119781E+03	4.836840E-16	1.787340E-17
6.129684E+03	4.824842E-16	1.811780E-17
6.139586E+03	4.811661E-16	1.844131E-17
6.149489E+03	4.797129E-16	1.883575E-17
6.159392E+03	4.780996E-16	1.929200E-17
6.169294E+03	4.763136E-16	1.980113E-17
6.179197E+03	4.743548E-16	2.035474E-17
6.189099E+03	4.722158E-16	2.094439E-17
6.199002E+03	4.699059E-16	2.156277E-17
6.208904E+03	4.674320E-16	2.220302E-17
6.218807E+03	4.648093E-16	2.285926E-17
6.228709E+03	4.620491E-16	2.352608E-17
6.238612E+03	4.591638E-16	2.419877E-17
6.248515E+03	4.561726E-16	2.487354E-17
6.258417E+03	4.530953E-16	2.554728E-17
6.268320E+03	4.499387E-16	2.621669E-17
6.278222E+03	4.467221E-16	2.687966E-17
6.288125E+03	4.434637E-16	2.753453E-17
6.298027E+03	4.401688E-16	2.817922E-17
6.307930E+03	4.368606E-16	2.881317E-17
6.317833E+03	4.335485E-16	2.943533E-17
6.327735E+03	4.302415E-16	3.004485E-17
6.337638E+03	4.269474E-16	3.064109E-17
6.347540E+03	4.236853E-16	3.122447E-17
6.357443E+03	4.204552E-16	3.179423E-17
6.367345E+03	4.172745E-16	3.235111E-17
6.377248E+03	4.141477E-16	3.289504E-17
6.387150E+03	4.110783E-16	3.342604E-17
6.397053E+03	4.080756E-16	3.394467E-17
6.406956E+03	4.051420E-16	3.445108E-17
6.416858E+03	4.022853E-16	3.494596E-17
6.426761E+03	3.994949E-16	3.542848E-17
6.436663E+03	3.967837E-16	3.589990E-17
6.446566E+03	3.941525E-16	3.636050E-17
6.456468E+03	3.915953E-16	3.680996E-17
6.466371E+03	3.891182E-16	3.724911E-17
6.476273E+03	3.867209E-16	3.767822E-17
6.486176E+03	3.844028E-16	3.809755E-17
6.496079E+03	3.821632E-16	3.850738E-17
6.505981E+03	3.800075E-16	3.890857E-17
6.515884E+03	3.779284E-16	3.930078E-17
6.525786E+03	3.759248E-16	3.968424E-17
6.535689E+03	3.740016E-16	4.005985E-17
6.545591E+03	3.721577E-16	4.042786E-17
6.555494E+03	3.703853E-16	4.078783E-17
6.565396E+03	3.686893E-16	4.114065E-17
6.575299E+03	3.670618E-16	4.148583E-17
6.585202E+03	3.655139E-16	4.182498E-17
6.595104E+03	3.640315E-16	4.215686E-17
6.605007E+03	3.626130E-16	4.248164E-17
6.614909E+03	3.612627E-16	4.280018E-17
6.624812E+03	3.599792E-16	4.311264E-17
6.634714E+03	3.587544E-16	4.341840E-17
6.644617E+03	3.575865E-16	4.371755E-17
6.654520E+03	3.564800E-16	4.401097E-17
6.664422E+03	3.554269E-16	4.429796E-17
6.674325E+03	3.544316E-16	4.457938E-17
6.684227E+03	3.534797E-16	4.485372E-17
6.694130E+03	3.525819E-16	4.512260E-17
6.704032E+03	3.517238E-16	4.538446E-17
6.713935E+03	3.509164E-16	4.564096E-17
6.723837E+03	3.501451E-16	4.589049E-17
6.733740E+03	3.494144E-16	4.613388E-17
6.743643E+03	3.487227E-16	4.637115E-17
6.753545E+03	3.480619E-16	4.660148E-17
6.763448E+03	3.474368E-16	4.682573E-17
6.773350E+03	3.468394E-16	4.704306E-17
6.783253E+03	3.462745E-16	4.725435E-17
6.793155E+03	3.457278E-16	4.745787E-17
6.803058E+03	3.452108E-16	4.765540E-17
6.812960E+03	3.447157E-16	4.784609E-17
6.822863E+03	3.442413E-16	4.802999E-17
6.832766E+03	3.437797E-16	4.820622E-17
6.842668E+03	3.433430E-16	4.837667E-17
6.852571E+03	3.429104E-16	4.853865E-17
6.862473E+03	3.425006E-16	4.869500E-17
6.872376E+03	3.420995E-16	4.884394E-17
6.882278E+03	3.417063E-16	4.898557E-17
6.892181E+03	3.413267E-16	4.912092E-17
6.902083E+03	3.409534E-16	4.924918E-17
6.911986E+03	3.405857E-16	4.937046E-17
6.921889E+03	3.402229E-16	4.948490E-17
6.931791E+03	3.398643E-16	4.959262E-17
6.941694E+03	3.395096E-16	4.969381E-17
6.951596E+03	3.391513E-16	4.978763E-17
6.961499E+03	3.388024E-16	4.987621E-17
6.971401E+03	3.384424E-16	4.995678E-17
6.981304E+03	3.380909E-16	5.003251E-17
6.991207E+03	3.377274E-16	5.010059E-17
7.001109E+03	3.373649E-16	5.016323E-17
7.011012E+03	3.369962E-16	5.021962E-17
7.020914E+03	3.366210E-16	5.026998E-17
7.030817E+03	3.362455E-16	5.031553E-17
7.040719E+03	3.358559E-16	5.035446E-17
7.050622E+03	3.354584E-16	5.038800E-17
7.060524E+03	3.350457E-16	5.041534E-17
7.070427E+03	3.346241E-16	5.043771E-17
7.080330E+03	3.341930E-16	5.045532E-17
7.090232E+03	3.337451E-16	5.046735E-17
7.100135E+03	3.332862E-16	5.047500E-17
7.110037E+03	3.328021E-16	5.047642E-17
7.119940E+03	3.323053E-16	5.047380E-17
7.129842E+03	3.317879E-16	5.046628E-17
7.139745E+03	3.312422E-16	5.045296E-17
7.149647E+03	3.306736E-16	5.043498E-17
7.159550E+03	3.300806E-16	5.041244E-17
7.169453E+03	3.294549E-16	5.038437E-17
7.179355E+03	3.287948E-16	5.035083E-17
7.189258E+03	3.280986E-16	5.031183E-17
7.199160E+03	3.273642E-16	5.026739E-17
7.209063E+03	3.265895E-16	5.021745E-17
7.218965E+03	3.257588E-16	5.015992E-17
7.228868E+03	3.248834E-16	5.009679E-17
7.238770E+03	3.239541E-16	5.002695E-17
7.248673E+03	3.229617E-16	4.994922E-17
7.258576E+03	3.219106E-16	4.986456E-17
7.268478E+03	3.207850E-16	4.977074E-17
7.278381E+03	3.195824E-16	4.966761E-17
7.288283E+03	3.183008E-16	4.955505E-17
7.298186E+03	3.169313E-16	4.943190E-17
7.308088E+03	3.154788E-16	4.929906E-17
7.317991E+03	3.139218E-16	4.915333E-17
7.327894E+03	3.122723E-16	4.899664E-17
7.337796E+03	3.105165E-16	4.882649E-17
7.347699E+03	3.086606E-16	4.864344E-17
7.357601E+03	3.066984E-16	4.844602E-17
7.367504E+03	3.046305E-16	4.823391E-17
7.377406E+03	3.024648E-16	4.800789E-17
7.387309E+03	3.001968E-16	4.776678E-17
7.397211E+03	2.978484E-16	4.751363E-17
7.407114E+03	2.954099E-16	4.724642E-17
7.417017E+03	2.928981E-16	4.696744E-17
7.426919E+03	2.903110E-16	4.667594E-17
7.436822E+03	2.876730E-16	4.637543E-17
7.446724E+03	2.849805E-16	4.606498E-17
7.456627E+03	2.822337E-16	4.574425E-17
7.466529E+03	2.794393E-16	4.541395E-17
7.476432E+03	2.765985E-16	4.507395E-17
7.486334E+03	2.737253E-16	4.472621E-17
7.496237E+03	2.708098E-16	4.436882E-17
7.506140E+03	2.678610E-16	4.400295E-17
7.516042E+03	2.648877E-16	4.362981E-17
7.525945E+03	2.618874E-16	4.324871E-17
7.535847E+03	2.588696E-16	4.286100E-17
7.545750E+03	2.558320E-16	4.246609E-17
7.555652E+03	2.527898E-16	4.206631E-17
7.565555E+03	2.497350E-16	4.166018E-17
7.575457E+03	2.466826E-16	4.125002E-17
7.585360E+03	2.436248E-16	4.083440E-17
7.595263E+03	2.405759E-16	4.041561E-17
7.605165E+03	2.375279E-16	3.999221E-17
7.615068E+03	2.344947E-16	3.956642E-17
7.624970E+03	2.314735E-16	3.913774E-17
7.634873E+03	2.284666E-16	3.870650E-17
