#wls	flux	fluxerr
1.584409E+03	5.078099E-17	2.134632E-17
1.624020E+03	5.301638E-17	2.227339E-17
1.663630E+03	5.511818E-17	2.314297E-17
1.703240E+03	5.704445E-17	2.393749E-17
1.742850E+03	5.877226E-17	2.464744E-17
1.782461E+03	6.023478E-17	2.524490E-17
1.822071E+03	6.135849E-17	2.569927E-17
1.861681E+03	6.206990E-17	2.598001E-17
1.901291E+03	6.227046E-17	2.604624E-17
1.940902E+03	6.189148E-17	2.586966E-17
1.980512E+03	6.090463E-17	2.543894E-17
2.020122E+03	5.939844E-17	2.479160E-17
2.059732E+03	5.760873E-17	2.402649E-17
2.099342E+03	5.593897E-17	2.331204E-17
2.138953E+03	5.482438E-17	2.282942E-17
2.178563E+03	5.450551E-17	2.267817E-17
2.218173E+03	5.490624E-17	2.282584E-17
2.257783E+03	5.570330E-17	2.313738E-17
2.297394E+03	5.650366E-17	2.344923E-17
2.337004E+03	5.701639E-17	2.364073E-17
2.376614E+03	5.706981E-17	2.364107E-17
2.416224E+03	5.660085E-17	2.342464E-17
2.455835E+03	5.562496E-17	2.299847E-17
2.495445E+03	5.418223E-17	2.237974E-17
2.535055E+03	5.233644E-17	2.159537E-17
2.574665E+03	5.015331E-17	2.067301E-17
2.614276E+03	4.770073E-17	1.964109E-17
2.653886E+03	4.503898E-17	1.852485E-17
2.693496E+03	4.222605E-17	1.734845E-17
2.733106E+03	3.931566E-17	1.613423E-17
2.772716E+03	3.635745E-17	1.490277E-17
2.812327E+03	3.339796E-17	1.367327E-17
2.851937E+03	3.048151E-17	1.246395E-17
2.891547E+03	2.764837E-17	1.129128E-17
2.931157E+03	2.493467E-17	1.016995E-17
2.970768E+03	2.237020E-17	9.112013E-18
2.980670E+03	2.175581E-17	8.858802E-18
2.990573E+03	2.115196E-17	8.610037E-18
3.000475E+03	2.055979E-17	8.366171E-18
3.010378E+03	1.997894E-17	8.127056E-18
3.020280E+03	1.940995E-17	7.892912E-18
3.030183E+03	1.885330E-17	7.663928E-18
3.040086E+03	1.830844E-17	7.439879E-18
3.049988E+03	1.777729E-17	7.221537E-18
3.059891E+03	1.725971E-17	7.008840E-18
3.069793E+03	1.675602E-17	6.801921E-18
3.079696E+03	1.626556E-17	6.600500E-18
3.089598E+03	1.578804E-17	6.404455E-18
3.099501E+03	1.532381E-17	6.213927E-18
3.109403E+03	1.487204E-17	6.028571E-18
3.119306E+03	1.443334E-17	5.848635E-18
3.129209E+03	1.400670E-17	5.673700E-18
3.139111E+03	1.359272E-17	5.504005E-18
3.149014E+03	1.319070E-17	5.339263E-18
3.158916E+03	1.280096E-17	5.179600E-18
3.168819E+03	1.242308E-17	5.024843E-18
3.178721E+03	1.205711E-17	4.875006E-18
3.188624E+03	1.170289E-17	4.730015E-18
3.198526E+03	1.136022E-17	4.589791E-18
3.208429E+03	1.102873E-17	4.454182E-18
3.218332E+03	1.070865E-17	4.323266E-18
3.228234E+03	1.039958E-17	4.196888E-18
3.238137E+03	1.010150E-17	4.075029E-18
3.248039E+03	9.814045E-18	3.957541E-18
3.257942E+03	9.537021E-18	3.844339E-18
3.267844E+03	9.270376E-18	3.735399E-18
3.277747E+03	9.013750E-18	3.630571E-18
3.287650E+03	8.767053E-18	3.529816E-18
3.297552E+03	8.530065E-18	3.433039E-18
3.307455E+03	8.302317E-18	3.340049E-18
3.317357E+03	8.083823E-18	3.250847E-18
3.327260E+03	7.874245E-18	3.165294E-18
3.337162E+03	7.673352E-18	3.083292E-18
3.347065E+03	7.480918E-18	3.004747E-18
3.356967E+03	7.296527E-18	2.929489E-18
3.366870E+03	7.120157E-18	2.857504E-18
3.376773E+03	6.951496E-18	2.788665E-18
3.386675E+03	6.790245E-18	2.722848E-18
3.396578E+03	6.636192E-18	2.659965E-18
3.406480E+03	6.489146E-18	2.599936E-18
3.416383E+03	6.348754E-18	2.542615E-18
3.426285E+03	6.214903E-18	2.487956E-18
3.436188E+03	6.087268E-18	2.435825E-18
3.446090E+03	5.965681E-18	2.386152E-18
3.455993E+03	5.849909E-18	2.338841E-18
3.465896E+03	5.739733E-18	2.293801E-18
3.475798E+03	5.634941E-18	2.250945E-18
3.485701E+03	5.535336E-18	2.210193E-18
3.495603E+03	5.440667E-18	2.171441E-18
3.505506E+03	5.350702E-18	2.134595E-18
3.515408E+03	5.265281E-18	2.099588E-18
3.525311E+03	5.184194E-18	2.066335E-18
3.535213E+03	5.107300E-18	2.034777E-18
3.545116E+03	5.034358E-18	2.004816E-18
3.555019E+03	4.965245E-18	1.976402E-18
3.564921E+03	4.899797E-18	1.949466E-18
3.574824E+03	4.837951E-18	1.923983E-18
3.584726E+03	4.779505E-18	1.899870E-18
3.594629E+03	4.724362E-18	1.877088E-18
3.604531E+03	4.672292E-18	1.855541E-18
3.614434E+03	4.623212E-18	1.835198E-18
3.624337E+03	4.576999E-18	1.816006E-18
3.634239E+03	4.533534E-18	1.797918E-18
3.644142E+03	4.492746E-18	1.780903E-18
3.654044E+03	4.454564E-18	1.764933E-18
3.663947E+03	4.418879E-18	1.749962E-18
3.673849E+03	4.385665E-18	1.735980E-18
3.683752E+03	4.354816E-18	1.722943E-18
3.693654E+03	4.326345E-18	1.710853E-18
3.703557E+03	4.300185E-18	1.699686E-18
3.713460E+03	4.276272E-18	1.689412E-18
3.723362E+03	4.254579E-18	1.680021E-18
3.733265E+03	4.235112E-18	1.671514E-18
3.743167E+03	4.217809E-18	1.663864E-18
3.753070E+03	4.202674E-18	1.657073E-18
3.762972E+03	4.189642E-18	1.651113E-18
3.772875E+03	4.178684E-18	1.645972E-18
3.782777E+03	4.169807E-18	1.641651E-18
3.792680E+03	4.163013E-18	1.638150E-18
3.802583E+03	4.158239E-18	1.635444E-18
3.812485E+03	4.155523E-18	1.633544E-18
3.822388E+03	4.154766E-18	1.632413E-18
3.832290E+03	4.156039E-18	1.632076E-18
3.842193E+03	4.159246E-18	1.632494E-18
3.852095E+03	4.164456E-18	1.633693E-18
3.861998E+03	4.171607E-18	1.635648E-18
3.871900E+03	4.180699E-18	1.638358E-18
3.881803E+03	4.191705E-18	1.641811E-18
3.891706E+03	4.204627E-18	1.646005E-18
3.901608E+03	4.219434E-18	1.650929E-18
3.911511E+03	4.236164E-18	1.656595E-18
3.921413E+03	4.254752E-18	1.662978E-18
3.931316E+03	4.275203E-18	1.670077E-18
3.941218E+03	4.297486E-18	1.677880E-18
3.951121E+03	4.321639E-18	1.686400E-18
3.961024E+03	4.347633E-18	1.695624E-18
3.970926E+03	4.375438E-18	1.705540E-18
3.980829E+03	4.405024E-18	1.716135E-18
3.990731E+03	4.436430E-18	1.727423E-18
4.000634E+03	4.469595E-18	1.739379E-18
4.010536E+03	4.504559E-18	1.752016E-18
4.020439E+03	4.541258E-18	1.765310E-18
4.030341E+03	4.579699E-18	1.779262E-18
4.040244E+03	4.619892E-18	1.793873E-18
4.050147E+03	4.661808E-18	1.809133E-18
4.060049E+03	4.705422E-18	1.825029E-18
4.069952E+03	4.750704E-18	1.841549E-18
4.079854E+03	4.797705E-18	1.858712E-18
4.089757E+03	4.846361E-18	1.876492E-18
4.099659E+03	4.896683E-18	1.894892E-18
4.109562E+03	4.948609E-18	1.913885E-18
4.119464E+03	5.002150E-18	1.933477E-18
4.129367E+03	5.057321E-18	1.953671E-18
4.139270E+03	5.114058E-18	1.974441E-18
4.149172E+03	5.172376E-18	1.995793E-18
4.159075E+03	5.232208E-18	2.017698E-18
4.168977E+03	5.293571E-18	2.040162E-18
4.178880E+03	5.356396E-18	2.063159E-18
4.188782E+03	5.420699E-18	2.086692E-18
4.198685E+03	5.486411E-18	2.110734E-18
4.208587E+03	5.553502E-18	2.135273E-18
4.218490E+03	5.621898E-18	2.160279E-18
4.228393E+03	5.691613E-18	2.185755E-18
4.238295E+03	5.762567E-18	2.211672E-18
4.248198E+03	5.834726E-18	2.238014E-18
4.258100E+03	5.908006E-18	2.264749E-18
4.268003E+03	5.982320E-18	2.291842E-18
4.277905E+03	6.057621E-18	2.319274E-18
4.287808E+03	6.133862E-18	2.347027E-18
4.297711E+03	6.210946E-18	2.375062E-18
4.307613E+03	6.288815E-18	2.403358E-18
4.317516E+03	6.367363E-18	2.431872E-18
4.327418E+03	6.446578E-18	2.460600E-18
4.337321E+03	6.526396E-18	2.489516E-18
4.347223E+03	6.606910E-18	2.518656E-18
4.357126E+03	6.688058E-18	2.547995E-18
4.367028E+03	6.769881E-18	2.577548E-18
4.376931E+03	6.852369E-18	2.607311E-18
4.386834E+03	6.935628E-18	2.637324E-18
4.396736E+03	7.019597E-18	2.667563E-18
4.406639E+03	7.104270E-18	2.698024E-18
4.416541E+03	7.189704E-18	2.728729E-18
4.426444E+03	7.275899E-18	2.759678E-18
4.436346E+03	7.362856E-18	2.790870E-18
4.446249E+03	7.450522E-18	2.822283E-18
4.456151E+03	7.538952E-18	2.853940E-18
4.466054E+03	7.628105E-18	2.885823E-18
4.475957E+03	7.717976E-18	2.917929E-18
4.485859E+03	7.808587E-18	2.950267E-18
4.495762E+03	7.899809E-18	2.982787E-18
4.505664E+03	7.991731E-18	3.015522E-18
4.515567E+03	8.084287E-18	3.048447E-18
4.525469E+03	8.177508E-18	3.081572E-18
4.535372E+03	8.271269E-18	3.114851E-18
4.545274E+03	8.365667E-18	3.148318E-18
4.555177E+03	8.460577E-18	3.181927E-18
4.565080E+03	8.556110E-18	3.215718E-18
4.574982E+03	8.652148E-18	3.249647E-18
4.584885E+03	8.748721E-18	3.283725E-18
4.594787E+03	8.845807E-18	3.317942E-18
4.604690E+03	8.943518E-18	3.352341E-18
4.614592E+03	9.041751E-18	3.386882E-18
4.624495E+03	9.140633E-18	3.421612E-18
4.634398E+03	9.240166E-18	3.456531E-18
4.644300E+03	9.340312E-18	3.491624E-18
4.654203E+03	9.441247E-18	3.526958E-18
4.664105E+03	9.542866E-18	3.562491E-18
4.674008E+03	9.645253E-18	3.598254E-18
4.683910E+03	9.748326E-18	3.634217E-18
4.693813E+03	9.852169E-18	3.670410E-18
4.703715E+03	9.956600E-18	3.706765E-18
4.713618E+03	1.006172E-17	3.743317E-18
4.723521E+03	1.016743E-17	3.780033E-18
4.733423E+03	1.027385E-17	3.816949E-18
4.743326E+03	1.038086E-17	3.854031E-18
4.753228E+03	1.048848E-17	3.891278E-18
4.763131E+03	1.059672E-17	3.928692E-18
4.773033E+03	1.070556E-17	3.966273E-18
4.782936E+03	1.081503E-17	4.004024E-18
4.792838E+03	1.092503E-17	4.041909E-18
4.802741E+03	1.103565E-17	4.079962E-18
4.812644E+03	1.114688E-17	4.118181E-18
4.822546E+03	1.125863E-17	4.156533E-18
4.832449E+03	1.137090E-17	4.195008E-18
4.842351E+03	1.148377E-17	4.233647E-18
4.852254E+03	1.159702E-17	4.272359E-18
4.862156E+03	1.171084E-17	4.311223E-18
4.872059E+03	1.182513E-17	4.350190E-18
4.881961E+03	1.193970E-17	4.389202E-18
4.891864E+03	1.205468E-17	4.428297E-18
4.901767E+03	1.216999E-17	4.467450E-18
4.911669E+03	1.228549E-17	4.506611E-18
4.921572E+03	1.240123E-17	4.545794E-18
4.931474E+03	1.251692E-17	4.584892E-18
4.941377E+03	1.263271E-17	4.623964E-18
4.951279E+03	1.274840E-17	4.662937E-18
4.961182E+03	1.286379E-17	4.701732E-18
4.971085E+03	1.297888E-17	4.740357E-18
4.980987E+03	1.309343E-17	4.778722E-18
4.990890E+03	1.320735E-17	4.816790E-18
5.000792E+03	1.332047E-17	4.854504E-18
5.010695E+03	1.343266E-17	4.891818E-18
5.020597E+03	1.354363E-17	4.928628E-18
5.030500E+03	1.365335E-17	4.964919E-18
5.040402E+03	1.376152E-17	5.000586E-18
5.050305E+03	1.386796E-17	5.035566E-18
5.060208E+03	1.397233E-17	5.069737E-18
5.070110E+03	1.407457E-17	5.103080E-18
5.080013E+03	1.417422E-17	5.135426E-18
5.089915E+03	1.427133E-17	5.166798E-18
5.099818E+03	1.436540E-17	5.197017E-18
5.109720E+03	1.445636E-17	5.226064E-18
5.119623E+03	1.454384E-17	5.253802E-18
5.129525E+03	1.462747E-17	5.280103E-18
5.139428E+03	1.470716E-17	5.304936E-18
5.149331E+03	1.478254E-17	5.328177E-18
5.159233E+03	1.485338E-17	5.349740E-18
5.169136E+03	1.491945E-17	5.369547E-18
5.179038E+03	1.498038E-17	5.387471E-18
5.188941E+03	1.503593E-17	5.403434E-18
5.198843E+03	1.508576E-17	5.417312E-18
5.208746E+03	1.512982E-17	5.429091E-18
5.218648E+03	1.516773E-17	5.438647E-18
5.228551E+03	1.519934E-17	5.445924E-18
5.238454E+03	1.522447E-17	5.450867E-18
5.248356E+03	1.524282E-17	5.453374E-18
5.258259E+03	1.525427E-17	5.453408E-18
5.268161E+03	1.525872E-17	5.450937E-18
5.278064E+03	1.525611E-17	5.445944E-18
5.287966E+03	1.524623E-17	5.438363E-18
5.297869E+03	1.522924E-17	5.428257E-18
5.307772E+03	1.520515E-17	5.415639E-18
5.317674E+03	1.517406E-17	5.400542E-18
5.327577E+03	1.513592E-17	5.382957E-18
5.337479E+03	1.509118E-17	5.363057E-18
5.347382E+03	1.503990E-17	5.340859E-18
5.357284E+03	1.498264E-17	5.316571E-18
5.367187E+03	1.491952E-17	5.290241E-18
5.377089E+03	1.485103E-17	5.262049E-18
5.386992E+03	1.477756E-17	5.232136E-18
5.396895E+03	1.469983E-17	5.200759E-18
5.406797E+03	1.461814E-17	5.168027E-18
5.416700E+03	1.453283E-17	5.134071E-18
5.426602E+03	1.444416E-17	5.098975E-18
5.436505E+03	1.435268E-17	5.062946E-18
5.446407E+03	1.425869E-17	5.026085E-18
5.456310E+03	1.416267E-17	4.988566E-18
5.466212E+03	1.406509E-17	4.950557E-18
5.476115E+03	1.396646E-17	4.912236E-18
5.486018E+03	1.386728E-17	4.873782E-18
5.495920E+03	1.376818E-17	4.835417E-18
5.505823E+03	1.366968E-17	4.797321E-18
5.515725E+03	1.357252E-17	4.759755E-18
5.525628E+03	1.347704E-17	4.722835E-18
5.535530E+03	1.338408E-17	4.686859E-18
5.545433E+03	1.329394E-17	4.651929E-18
5.555335E+03	1.320728E-17	4.618268E-18
5.565238E+03	1.312471E-17	4.586092E-18
5.575141E+03	1.304643E-17	4.555467E-18
5.585043E+03	1.297327E-17	4.526677E-18
5.594946E+03	1.290547E-17	4.499805E-18
5.604848E+03	1.284324E-17	4.474919E-18
5.614751E+03	1.278728E-17	4.452261E-18
5.624653E+03	1.273762E-17	4.431834E-18
5.634556E+03	1.269464E-17	4.413764E-18
5.644459E+03	1.265865E-17	4.398161E-18
5.654361E+03	1.262986E-17	4.385087E-18
5.664264E+03	1.260844E-17	4.374594E-18
5.674166E+03	1.259450E-17	4.366725E-18
5.684069E+03	1.258832E-17	4.361562E-18
5.693971E+03	1.259011E-17	4.359178E-18
5.703874E+03	1.259973E-17	4.359517E-18
5.713776E+03	1.261765E-17	4.362734E-18
5.723679E+03	1.264367E-17	4.368762E-18
5.733582E+03	1.267815E-17	4.377710E-18
5.743484E+03	1.272100E-17	4.389552E-18
5.753387E+03	1.277245E-17	4.404352E-18
5.763289E+03	1.283255E-17	4.422129E-18
5.773192E+03	1.290151E-17	4.442950E-18
5.783094E+03	1.297926E-17	4.466781E-18
5.792997E+03	1.306585E-17	4.493637E-18
5.802899E+03	1.316150E-17	4.523587E-18
5.812802E+03	1.326641E-17	4.556695E-18
5.822705E+03	1.338033E-17	4.592871E-18
5.832607E+03	1.350363E-17	4.632235E-18
5.842510E+03	1.363619E-17	4.674743E-18
5.852412E+03	1.377820E-17	4.720453E-18
5.862315E+03	1.392969E-17	4.769374E-18
5.872217E+03	1.409051E-17	4.821445E-18
5.882120E+03	1.426083E-17	4.876723E-18
5.892022E+03	1.444062E-17	4.935190E-18
5.901925E+03	1.462968E-17	4.996774E-18
5.911828E+03	1.482826E-17	5.061563E-18
5.921730E+03	1.503598E-17	5.129412E-18
5.931633E+03	1.525286E-17	5.200334E-18
5.941535E+03	1.547877E-17	5.274270E-18
5.951438E+03	1.571335E-17	5.351105E-18
5.961340E+03	1.595655E-17	5.430817E-18
5.971243E+03	1.620777E-17	5.513191E-18
5.981146E+03	1.646707E-17	5.598252E-18
5.991048E+03	1.673372E-17	5.685750E-18
6.000951E+03	1.700756E-17	5.775625E-18
6.010853E+03	1.728793E-17	5.867651E-18
6.020756E+03	1.757436E-17	5.961674E-18
6.030658E+03	1.786612E-17	6.057438E-18
6.040561E+03	1.816240E-17	6.154676E-18
6.050463E+03	1.846280E-17	6.253247E-18
6.060366E+03	1.876599E-17	6.352702E-18
6.070269E+03	1.907146E-17	6.452874E-18
6.080171E+03	1.937800E-17	6.553349E-18
6.090074E+03	1.968481E-17	6.653868E-18
6.099976E+03	1.999012E-17	6.753828E-18
6.109879E+03	2.029331E-17	6.853030E-18
6.119781E+03	2.059279E-17	6.950936E-18
6.129684E+03	2.088745E-17	7.047181E-18
6.139586E+03	2.117600E-17	7.141329E-18
6.149489E+03	2.145822E-17	7.233319E-18
6.159392E+03	2.173433E-17	7.323231E-18
6.169294E+03	2.200465E-17	7.411172E-18
6.179197E+03	2.226960E-17	7.497297E-18
6.189099E+03	2.252886E-17	7.581499E-18
6.199002E+03	2.278362E-17	7.664183E-18
6.208904E+03	2.303340E-17	7.745195E-18
6.218807E+03	2.327895E-17	7.824795E-18
6.228709E+03	2.352083E-17	7.903170E-18
6.238612E+03	2.375869E-17	7.980210E-18
6.248515E+03	2.399316E-17	8.056133E-18
6.258417E+03	2.422464E-17	8.131068E-18
6.268320E+03	2.445350E-17	8.205150E-18
6.278222E+03	2.467954E-17	8.278309E-18
6.288125E+03	2.490321E-17	8.350697E-18
6.298027E+03	2.512464E-17	8.422362E-18
6.307930E+03	2.534398E-17	8.493357E-18
6.317833E+03	2.556103E-17	8.563614E-18
6.327735E+03	2.577557E-17	8.633064E-18
6.337638E+03	2.598739E-17	8.701635E-18
6.347540E+03	2.619659E-17	8.769364E-18
6.357443E+03	2.640295E-17	8.836181E-18
6.367345E+03	2.660543E-17	8.901732E-18
6.377248E+03	2.680527E-17	8.966445E-18
6.387150E+03	2.700262E-17	9.030359E-18
6.397053E+03	2.719799E-17	9.093655E-18
6.406956E+03	2.739235E-17	9.156656E-18
6.416858E+03	2.758546E-17	9.219282E-18
6.426761E+03	2.777833E-17	9.281870E-18
6.436663E+03	2.797112E-17	9.344477E-18
6.446566E+03	2.816447E-17	9.407314E-18
6.456468E+03	2.835769E-17	9.470154E-18
6.466371E+03	2.855226E-17	9.533489E-18
6.476273E+03	2.874751E-17	9.597095E-18
6.486176E+03	2.894402E-17	9.661172E-18
6.496079E+03	2.914200E-17	9.725784E-18
6.505981E+03	2.934114E-17	9.790831E-18
6.515884E+03	2.954205E-17	9.856517E-18
6.525786E+03	2.974490E-17	9.922897E-18
6.535689E+03	2.994936E-17	9.989859E-18
6.545591E+03	3.015554E-17	1.005745E-17
6.555494E+03	3.036357E-17	1.012570E-17
6.565396E+03	3.057406E-17	1.019482E-17
6.575299E+03	3.078611E-17	1.026451E-17
6.585202E+03	3.100033E-17	1.033497E-17
6.595104E+03	3.121679E-17	1.040624E-17
6.605007E+03	3.143506E-17	1.047815E-17
6.614909E+03	3.165572E-17	1.055091E-17
6.624812E+03	3.187829E-17	1.062436E-17
6.634714E+03	3.210338E-17	1.069870E-17
6.644617E+03	3.232991E-17	1.077357E-17
6.654520E+03	3.255848E-17	1.084917E-17
6.664422E+03	3.278966E-17	1.092570E-17
6.674325E+03	3.302235E-17	1.100278E-17
6.684227E+03	3.325712E-17	1.108060E-17
6.694130E+03	3.349339E-17	1.115899E-17
6.704032E+03	3.373174E-17	1.123811E-17
6.713935E+03	3.397157E-17	1.131778E-17
6.723837E+03	3.421283E-17	1.139799E-17
6.733740E+03	3.445615E-17	1.147894E-17
6.743643E+03	3.470022E-17	1.156019E-17
6.753545E+03	3.494626E-17	1.164216E-17
6.763448E+03	3.519295E-17	1.172440E-17
6.773350E+03	3.544151E-17	1.180732E-17
6.783253E+03	3.569060E-17	1.189047E-17
6.793155E+03	3.594010E-17	1.197382E-17
6.803058E+03	3.619059E-17	1.205755E-17
6.812960E+03	3.644198E-17	1.214165E-17
6.822863E+03	3.669282E-17	1.222562E-17
6.832766E+03	3.694432E-17	1.230987E-17
6.842668E+03	3.719568E-17	1.239413E-17
6.852571E+03	3.744747E-17	1.247860E-17
6.862473E+03	3.769815E-17	1.256276E-17
6.872376E+03	3.794828E-17	1.264680E-17
6.882278E+03	3.819768E-17	1.273065E-17
6.892181E+03	3.844550E-17	1.281404E-17
6.902083E+03	3.869228E-17	1.289715E-17
6.911986E+03	3.893790E-17	1.297994E-17
6.921889E+03	3.918145E-17	1.306209E-17
6.931791E+03	3.942279E-17	1.314358E-17
6.941694E+03	3.966174E-17	1.322433E-17
6.951596E+03	3.989897E-17	1.330457E-17
6.961499E+03	4.013278E-17	1.338374E-17
6.971401E+03	4.036463E-17	1.346232E-17
6.981304E+03	4.059282E-17	1.353974E-17
6.991207E+03	4.081806E-17	1.361624E-17
7.001109E+03	4.103945E-17	1.369152E-17
7.011012E+03	4.125774E-17	1.376584E-17
7.020914E+03	4.147287E-17	1.383916E-17
7.030817E+03	4.168399E-17	1.391121E-17
7.040719E+03	4.189020E-17	1.398169E-17
7.050622E+03	4.209318E-17	1.405116E-17
7.060524E+03	4.229207E-17	1.411933E-17
7.070427E+03	4.248689E-17	1.418620E-17
7.080330E+03	4.267765E-17	1.425179E-17
7.090232E+03	4.286351E-17	1.431580E-17
7.100135E+03	4.304538E-17	1.437854E-17
7.110037E+03	4.322239E-17	1.443973E-17
7.119940E+03	4.339461E-17	1.449938E-17
7.129842E+03	4.356297E-17	1.455780E-17
7.139745E+03	4.372662E-17	1.461472E-17
7.149647E+03	4.388653E-17	1.467045E-17
7.159550E+03	4.404091E-17	1.472440E-17
7.169453E+03	4.419072E-17	1.477689E-17
7.179355E+03	4.433599E-17	1.482792E-17
7.189258E+03	4.447677E-17	1.487751E-17
7.199160E+03	4.461308E-17	1.492567E-17
7.209063E+03	4.474495E-17	1.497241E-17
7.218965E+03	4.487144E-17	1.501741E-17
7.228868E+03	4.499352E-17	1.506100E-17
7.238770E+03	4.511120E-17	1.510318E-17
7.248673E+03	4.522448E-17	1.514395E-17
7.258576E+03	4.533239E-17	1.518298E-17
7.268478E+03	4.543593E-17	1.522061E-17
7.278381E+03	4.553609E-17	1.525717E-17
7.288283E+03	4.563091E-17	1.529200E-17
7.298186E+03	4.572141E-17	1.532544E-17
7.308088E+03	4.580762E-17	1.535751E-17
7.317991E+03	4.589061E-17	1.538856E-17
7.327894E+03	4.596942E-17	1.541826E-17
7.337796E+03	4.604512E-17	1.544699E-17
7.347699E+03	4.611889E-17	1.547512E-17
7.357601E+03	4.618977E-17	1.550235E-17
7.367504E+03	4.625997E-17	1.552941E-17
7.377406E+03	4.632755E-17	1.555565E-17
7.387309E+03	4.639367E-17	1.558145E-17
7.397211E+03	4.645744E-17	1.560653E-17
7.407114E+03	4.652005E-17	1.563129E-17
7.417017E+03	4.657950E-17	1.565504E-17
7.426919E+03	4.663699E-17	1.567819E-17
7.436822E+03	4.669266E-17	1.570079E-17
7.446724E+03	4.674554E-17	1.572251E-17
7.456627E+03	4.679796E-17	1.574414E-17
7.466529E+03	4.684785E-17	1.576498E-17
7.476432E+03	4.689643E-17	1.578543E-17
7.486334E+03	4.694268E-17	1.580516E-17
7.496237E+03	4.698781E-17	1.582457E-17
7.506140E+03	4.703079E-17	1.584331E-17
7.516042E+03	4.707278E-17	1.586177E-17
7.525945E+03	4.711272E-17	1.587959E-17
7.535847E+03	4.715063E-17	1.589678E-17
7.545750E+03	4.718764E-17	1.591372E-17
7.555652E+03	4.722264E-17	1.593003E-17
7.565555E+03	4.725559E-17	1.594570E-17
7.575457E+03	4.728760E-17	1.596111E-17
7.585360E+03	4.731749E-17	1.597584E-17
7.595263E+03	4.734634E-17	1.599027E-17
7.605165E+03	4.737174E-17	1.600357E-17
7.615068E+03	4.739593E-17	1.601652E-17
7.624970E+03	4.741879E-17	1.602906E-17
7.634873E+03	4.743906E-17	1.604076E-17
7.644775E+03	4.745775E-17	1.605197E-17
7.654678E+03	4.747356E-17	1.606225E-17
7.664581E+03	4.748631E-17	1.607152E-17
7.674483E+03	4.749702E-17	1.608015E-17
7.684386E+03	4.750554E-17	1.608807E-17
