#wls	flux	fluxerr
1.584409E+03	-1.338104E-16	-5.061750E-17
1.624020E+03	-1.507769E-16	-5.660964E-17
1.663630E+03	-1.687681E-16	-6.288818E-17
1.703240E+03	-1.877387E-16	-6.942769E-17
1.742850E+03	-2.075253E-16	-7.616007E-17
1.782461E+03	-2.263008E-16	-8.237572E-17
1.822071E+03	-2.451157E-16	-8.849412E-17
1.861681E+03	-2.634437E-16	-9.432663E-17
1.901291E+03	-2.806551E-16	-9.965404E-17
1.940902E+03	-2.939470E-16	-1.034502E-16
1.980512E+03	-3.047784E-16	-1.063053E-16
2.020122E+03	-3.131698E-16	-1.082496E-16
2.059732E+03	-3.199940E-16	-1.096051E-16
2.099342E+03	-3.248266E-16	-1.101877E-16
2.138953E+03	-3.328945E-16	-1.118259E-16
2.178563E+03	-3.462303E-16	-1.151637E-16
2.218173E+03	-3.650568E-16	-1.202224E-16
2.257783E+03	-3.847177E-16	-1.253654E-16
2.297394E+03	-4.057266E-16	-1.308076E-16
2.337004E+03	-4.259107E-16	-1.358421E-16
2.376614E+03	-4.437381E-16	-1.399944E-16
2.416224E+03	-4.540860E-16	-1.416162E-16
2.455835E+03	-4.607217E-16	-1.420196E-16
2.495445E+03	-4.636249E-16	-1.412387E-16
2.535055E+03	-4.630215E-16	-1.393820E-16
2.574665E+03	-4.542608E-16	-1.350336E-16
2.614276E+03	-4.426545E-16	-1.299167E-16
2.653886E+03	-4.285539E-16	-1.241651E-16
2.693496E+03	-4.123292E-16	-1.179128E-16
2.733106E+03	-3.894066E-16	-1.098372E-16
2.772716E+03	-3.654673E-16	-1.016582E-16
2.812327E+03	-3.409140E-16	-9.349807E-17
2.851937E+03	-3.161138E-16	-8.546319E-17
2.891547E+03	-2.874342E-16	-7.655565E-17
2.931157E+03	-2.597465E-16	-6.813873E-17
2.970768E+03	-2.333385E-16	-6.027482E-17
2.980670E+03	-2.269629E-16	-5.840025E-17
2.990573E+03	-2.201601E-16	-5.642577E-17
3.000475E+03	-2.134789E-16	-5.449622E-17
3.010378E+03	-2.069257E-16	-5.261280E-17
3.020280E+03	-2.004973E-16	-5.077431E-17
3.030183E+03	-1.939563E-16	-4.891937E-17
3.040086E+03	-1.875636E-16	-4.711506E-17
3.049988E+03	-1.813189E-16	-4.536087E-17
3.059891E+03	-1.752364E-16	-4.365989E-17
3.069793E+03	-1.690836E-16	-4.195298E-17
3.079696E+03	-1.630923E-16	-4.029866E-17
3.089598E+03	-1.572657E-16	-3.869717E-17
3.099501E+03	-1.515941E-16	-3.714567E-17
3.109403E+03	-1.458671E-16	-3.559161E-17
3.119306E+03	-1.403026E-16	-3.408887E-17
3.129209E+03	-1.349005E-16	-3.263691E-17
3.139111E+03	-1.296559E-16	-3.123408E-17
3.149014E+03	-1.243721E-16	-2.983215E-17
3.158916E+03	-1.192535E-16	-2.848066E-17
3.168819E+03	-1.142960E-16	-2.717806E-17
3.178721E+03	-1.094994E-16	-2.592387E-17
3.188624E+03	-1.046790E-16	-2.467367E-17
3.198526E+03	-1.000222E-16	-2.347189E-17
3.208429E+03	-9.552964E-17	-2.231816E-17
3.218332E+03	-9.119514E-17	-2.121056E-17
3.228234E+03	-8.684839E-17	-2.010891E-17
3.238137E+03	-8.266142E-17	-1.905316E-17
3.248039E+03	-7.863166E-17	-1.804223E-17
3.257942E+03	-7.475597E-17	-1.707489E-17
3.267844E+03	-7.086860E-17	-1.611286E-17
3.277747E+03	-6.713362E-17	-1.519345E-17
3.287650E+03	-6.354381E-17	-1.431455E-17
3.297552E+03	-6.009507E-17	-1.347479E-17
3.307455E+03	-5.663248E-17	-1.263910E-17
3.317357E+03	-5.330736E-17	-1.184119E-17
3.327260E+03	-5.011408E-17	-1.107939E-17
3.337162E+03	-4.704638E-17	-1.035190E-17
3.347065E+03	-4.395831E-17	-9.626383E-18
3.356967E+03	-4.099110E-17	-8.933668E-18
3.366870E+03	-3.813906E-17	-8.272147E-18
3.376773E+03	-3.539602E-17	-7.640124E-18
3.386675E+03	-3.262405E-17	-7.007666E-18
3.396578E+03	-2.995567E-17	-6.403149E-18
3.406480E+03	-2.738484E-17	-5.824966E-18
3.416383E+03	-2.490614E-17	-5.271661E-18
3.426285E+03	-2.238852E-17	-4.715397E-18
3.436188E+03	-1.995667E-17	-4.182365E-18
3.446090E+03	-1.760554E-17	-3.671242E-18
3.455993E+03	-1.532967E-17	-3.180646E-18
3.465896E+03	-1.300381E-17	-2.684529E-18
3.475798E+03	-1.074725E-17	-2.207490E-18
3.485701E+03	-8.554751E-18	-1.748241E-18
3.495603E+03	-6.421534E-18	-1.305611E-18
3.505506E+03	-4.227458E-18	-8.551337E-19
3.515408E+03	-2.086986E-18	-4.199934E-19
3.525311E+03	4.462902E-21	8.935043E-22
3.535213E+03	2.051270E-18	4.085513E-19
3.545116E+03	4.164580E-18	8.251661E-19
3.555019E+03	6.238421E-18	1.229644E-18
3.564921E+03	8.276762E-18	1.622883E-18
3.574824E+03	1.028353E-17	2.005759E-18
3.584726E+03	1.235290E-17	2.396741E-18
3.594629E+03	1.439550E-17	2.778317E-18
3.604531E+03	1.641436E-17	3.151152E-18
3.614434E+03	1.841290E-17	3.515972E-18
3.624337E+03	2.046892E-17	3.887810E-18
3.634239E+03	2.250876E-17	4.252419E-18
3.644142E+03	2.453492E-17	4.610316E-18
3.654044E+03	2.655039E-17	4.962099E-18
3.663947E+03	2.861752E-17	5.319718E-18
3.673849E+03	3.067740E-17	5.671845E-18
3.683752E+03	3.273219E-17	6.018896E-18
3.693654E+03	3.478479E-17	6.361418E-18
3.703557E+03	3.688253E-17	6.708519E-18
3.713460E+03	3.898083E-17	7.051558E-18
3.723362E+03	4.108163E-17	7.390886E-18
3.733265E+03	4.318717E-17	7.726890E-18
3.743167E+03	4.533109E-17	8.066250E-18
3.753070E+03	4.748239E-17	8.402725E-18
3.762972E+03	4.964212E-17	8.736478E-18
3.772875E+03	5.181250E-17	9.067868E-18
3.782777E+03	5.401345E-17	9.401301E-18
3.792680E+03	5.622686E-17	9.732662E-18
3.802583E+03	5.845423E-17	1.006217E-17
3.812485E+03	6.069636E-17	1.038992E-17
3.822388E+03	6.296005E-17	1.071832E-17
3.832290E+03	6.524050E-17	1.104529E-17
3.842193E+03	6.753814E-17	1.137085E-17
3.852095E+03	6.985441E-17	1.169521E-17
3.861998E+03	7.218057E-17	1.201850E-17
3.871900E+03	7.452572E-17	1.234066E-17
3.881803E+03	7.688973E-17	1.266161E-17
3.891706E+03	7.927423E-17	1.298157E-17
3.901608E+03	8.165487E-17	1.329860E-17
3.911511E+03	8.405529E-17	1.361457E-17
3.921413E+03	8.647480E-17	1.392932E-17
3.931316E+03	8.891320E-17	1.424276E-17
3.941218E+03	9.133299E-17	1.455147E-17
3.951121E+03	9.376987E-17	1.485870E-17
3.961024E+03	9.622406E-17	1.516441E-17
3.970926E+03	9.869495E-17	1.546848E-17
3.980829E+03	1.011284E-16	1.576563E-17
3.990731E+03	1.035756E-16	1.606083E-17
4.000634E+03	1.060355E-16	1.635388E-17
4.010536E+03	1.085078E-16	1.664470E-17
4.020439E+03	1.109222E-16	1.692641E-17
4.030341E+03	1.133433E-16	1.720524E-17
4.040244E+03	1.157724E-16	1.748139E-17
4.050147E+03	1.182063E-16	1.775435E-17
4.060049E+03	1.205589E-16	1.801583E-17
4.069952E+03	1.229118E-16	1.827374E-17
4.079854E+03	1.252642E-16	1.852797E-17
4.089757E+03	1.276146E-16	1.877828E-17
4.099659E+03	1.298585E-16	1.901475E-17
4.109562E+03	1.320945E-16	1.924681E-17
4.119464E+03	1.343212E-16	1.947426E-17
4.129367E+03	1.365380E-16	1.969702E-17
4.139270E+03	1.386232E-16	1.990388E-17
4.149172E+03	1.406917E-16	2.010548E-17
4.159075E+03	1.427419E-16	2.030165E-17
4.168977E+03	1.447722E-16	2.049218E-17
4.178880E+03	1.466453E-16	2.066483E-17
4.188782E+03	1.484934E-16	2.083156E-17
4.198685E+03	1.503147E-16	2.099219E-17
4.208587E+03	1.521068E-16	2.114643E-17
4.218490E+03	1.537156E-16	2.128088E-17
4.228393E+03	1.552902E-16	2.140870E-17
4.238295E+03	1.568292E-16	2.152979E-17
4.248198E+03	1.583311E-16	2.164398E-17
4.258100E+03	1.596216E-16	2.173629E-17
4.268003E+03	1.608701E-16	2.182150E-17
4.277905E+03	1.620722E-16	2.189908E-17
4.287808E+03	1.632257E-16	2.196883E-17
4.297711E+03	1.641411E-16	2.201468E-17
4.307613E+03	1.650035E-16	2.205255E-17
4.317516E+03	1.658060E-16	2.208160E-17
4.327418E+03	1.665485E-16	2.210190E-17
4.337321E+03	1.670255E-16	2.209560E-17
4.347223E+03	1.674367E-16	2.208021E-17
4.357126E+03	1.677818E-16	2.205573E-17
4.367028E+03	1.680589E-16	2.202202E-17
4.376931E+03	1.680538E-16	2.196005E-17
4.386834E+03	1.679766E-16	2.188867E-17
4.396736E+03	1.678283E-16	2.180806E-17
4.406639E+03	1.676051E-16	2.171784E-17
4.416541E+03	1.670884E-16	2.159813E-17
4.426444E+03	1.664958E-16	2.146891E-17
4.436346E+03	1.658206E-16	2.132944E-17
4.446249E+03	1.650649E-16	2.118002E-17
4.456151E+03	1.640104E-16	2.100024E-17
4.466054E+03	1.628705E-16	2.081008E-17
4.475957E+03	1.616413E-16	2.060914E-17
4.485859E+03	1.603208E-16	2.039722E-17
4.495762E+03	1.587149E-16	2.015605E-17
4.505664E+03	1.570133E-16	1.990347E-17
4.515567E+03	1.552169E-16	1.963967E-17
4.525469E+03	1.533218E-16	1.936421E-17
4.535372E+03	1.511613E-16	1.906128E-17
4.545274E+03	1.489032E-16	1.874691E-17
4.555177E+03	1.465473E-16	1.842112E-17
4.565080E+03	1.440920E-16	1.808378E-17
4.574982E+03	1.413985E-16	1.772154E-17
4.584885E+03	1.386094E-16	1.734825E-17
4.594787E+03	1.357261E-16	1.696411E-17
4.604690E+03	1.327503E-16	1.656941E-17
4.614592E+03	1.295743E-16	1.615368E-17
4.624495E+03	1.263143E-16	1.572843E-17
4.634398E+03	1.229730E-16	1.529402E-17
4.644300E+03	1.195536E-16	1.485091E-17
4.654203E+03	1.159870E-16	1.439252E-17
4.664105E+03	1.123560E-16	1.392709E-17
4.674008E+03	1.086664E-16	1.345533E-17
4.683910E+03	1.049249E-16	1.297814E-17
4.693813E+03	1.011029E-16	1.249318E-17
4.703715E+03	9.725109E-17	1.200545E-17
4.713618E+03	9.337921E-17	1.151616E-17
4.723521E+03	8.949701E-17	1.102654E-17
4.733423E+03	8.561464E-17	1.053840E-17
4.743326E+03	8.174305E-17	1.005247E-17
4.753228E+03	7.789013E-17	9.569711E-18
4.763131E+03	7.406689E-17	9.091473E-18
4.773033E+03	7.031505E-17	8.622994E-18
4.782936E+03	6.660942E-17	8.161019E-18
4.792838E+03	6.295845E-17	7.706566E-18
4.802741E+03	5.936872E-17	7.260424E-18
4.812644E+03	5.590887E-17	6.830807E-18
4.822546E+03	5.252309E-17	6.411029E-18
4.832449E+03	4.921837E-17	6.001918E-18
4.842351E+03	4.599933E-17	5.604011E-18
4.852254E+03	4.295081E-17	5.227300E-18
4.862156E+03	3.999443E-17	4.862541E-18
4.872059E+03	3.713486E-17	4.510268E-18
4.881961E+03	3.437534E-17	4.170840E-18
4.891864E+03	3.180839E-17	3.855080E-18
4.901767E+03	2.934053E-17	3.552008E-18
4.911669E+03	2.697404E-17	3.261859E-18
4.921572E+03	2.471034E-17	2.984765E-18
4.931474E+03	2.264420E-17	2.731781E-18
4.941377E+03	2.067414E-17	2.490995E-18
4.951279E+03	1.880026E-17	2.262374E-18
4.961182E+03	1.702190E-17	2.045797E-18
4.971085E+03	1.543294E-17	1.852207E-18
4.980987E+03	1.392913E-17	1.669359E-18
4.990890E+03	1.250895E-17	1.497028E-18
5.000792E+03	1.117056E-17	1.334953E-18
5.010695E+03	1.000446E-17	1.193676E-18
5.020597E+03	8.907732E-18	1.061110E-18
5.030500E+03	7.878284E-18	9.369645E-19
5.040402E+03	6.913580E-18	8.209016E-19
5.050305E+03	6.099459E-18	7.229105E-19
5.060208E+03	5.337483E-18	6.314408E-19
5.070110E+03	4.625410E-18	5.461942E-19
5.080013E+03	3.960932E-18	4.668665E-19
5.089915E+03	3.424526E-18	4.028022E-19
5.099818E+03	2.924029E-18	3.432152E-19
5.109720E+03	2.457566E-18	2.878596E-19
5.119623E+03	2.023182E-18	2.364822E-19
5.129525E+03	1.696303E-18	1.978072E-19
5.139428E+03	1.391588E-18	1.618905E-19
5.149331E+03	1.107667E-18	1.285550E-19
5.159233E+03	8.431933E-19	9.762744E-20
5.169136E+03	6.690728E-19	7.726114E-20
5.179038E+03	5.064730E-19	5.832878E-20
5.188941E+03	3.545922E-19	4.072777E-20
5.198843E+03	2.126313E-19	2.435674E-20
5.208746E+03	1.478560E-19	1.688614E-20
5.218648E+03	8.707357E-20	9.914522E-21
5.228551E+03	2.996536E-20	3.401684E-21
5.238454E+03	-2.377739E-20	-2.691056E-21
5.248356E+03	-9.533264E-21	-1.075336E-21
5.258259E+03	3.944354E-21	4.434211E-22
5.268161E+03	1.672672E-20	1.874058E-21
5.278064E+03	2.888225E-20	3.224993E-21
5.285204E+03	2.833616E-19	3.155802E-20
5.286195E+03	3.052339E-19	3.398166E-20
5.286393E+03	3.102313E-19	3.453552E-20
5.286789E+03	3.194333E-19	3.555477E-20
5.287779E+03	3.450405E-19	3.839094E-20
5.288968E+03	3.755565E-19	4.176793E-20
5.289166E+03	3.813782E-19	4.241230E-20
5.289364E+03	3.871986E-19	4.305641E-20
5.289958E+03	4.037163E-19	4.488327E-20
5.290156E+03	4.098386E-19	4.556056E-20
5.290354E+03	4.159454E-19	4.623603E-20
5.290552E+03	4.221081E-19	4.691761E-20
5.290949E+03	4.341792E-19	4.825215E-20
5.292732E+03	4.849509E-19	5.385866E-20
5.293128E+03	4.969849E-19	5.518697E-20
5.294910E+03	5.473491E-19	6.073900E-20
5.295108E+03	5.544173E-19	6.151875E-20
5.296297E+03	5.912294E-19	6.557394E-20
5.297683E+03	6.336975E-19	7.024727E-20
5.298277E+03	6.525516E-19	7.232102E-20
5.298475E+03	6.599131E-19	7.313138E-20
5.298673E+03	6.672782E-19	7.394200E-20
5.298871E+03	6.746273E-19	7.475073E-20
5.299069E+03	6.819688E-19	7.555848E-20
5.299267E+03	6.893869E-19	7.637460E-20
5.299465E+03	6.967853E-19	7.718841E-20
5.299663E+03	7.041848E-19	7.800222E-20
5.300059E+03	7.178310E-19	7.950178E-20
5.300456E+03	7.317788E-19	8.103426E-20
5.300852E+03	7.457087E-19	8.256427E-20
5.301248E+03	7.596089E-19	8.409054E-20
5.301446E+03	7.671102E-19	8.491451E-20
5.301645E+03	7.748238E-19	8.576181E-20
5.301843E+03	7.824902E-19	8.660377E-20
5.302041E+03	7.901421E-19	8.744401E-20
5.303229E+03	8.306573E-19	9.188578E-20
5.303823E+03	8.520241E-19	9.422772E-20
5.304021E+03	8.598136E-19	9.508191E-20
5.304219E+03	8.675455E-19	9.592961E-20
5.304616E+03	8.820528E-19	9.751885E-20
5.305012E+03	8.970369E-19	9.916024E-20
5.305408E+03	9.119481E-19	1.007931E-19
5.306596E+03	9.543540E-19	1.054314E-19
5.306794E+03	9.621896E-19	1.062888E-19
5.307389E+03	9.847996E-19	1.087612E-19
5.307785E+03	1.000175E-18	1.104422E-19
5.307983E+03	1.008346E-18	1.113359E-19
5.309370E+03	1.059047E-18	1.168707E-19
5.309963E+03	1.082010E-18	1.193770E-19
5.310161E+03	1.090133E-18	1.202638E-19
5.310755E+03	1.112908E-18	1.227477E-19
5.311349E+03	1.135555E-18	1.252162E-19
5.311547E+03	1.143797E-18	1.261152E-19
5.312142E+03	1.167188E-18	1.286642E-19
5.312341E+03	1.175592E-18	1.295804E-19
5.313529E+03	1.221048E-18	1.345276E-19
5.314123E+03	1.244687E-18	1.370997E-19
5.314321E+03	1.252906E-18	1.379941E-19
5.314519E+03	1.261251E-18	1.389023E-19
5.315311E+03	1.292476E-18	1.422963E-19
5.316104E+03	1.324481E-18	1.457739E-19
5.316302E+03	1.332958E-18	1.466953E-19
5.317292E+03	1.372430E-18	1.509796E-19
5.317490E+03	1.380770E-18	1.518850E-19
5.317689E+03	1.389296E-18	1.528108E-19
5.318085E+03	1.405655E-18	1.545856E-19
5.318679E+03	1.429783E-18	1.572015E-19
5.318877E+03	1.438080E-18	1.581011E-19
5.319471E+03	1.462514E-18	1.607489E-19
5.319669E+03	1.470823E-18	1.616493E-19
5.319868E+03	1.479080E-18	1.625439E-19
5.320462E+03	1.503138E-18	1.651482E-19
5.321452E+03	1.543789E-18	1.695466E-19
5.321847E+03	1.559888E-18	1.712872E-19
5.322045E+03	1.567952E-18	1.721590E-19
5.322243E+03	1.575589E-18	1.729836E-19
5.322441E+03	1.583498E-18	1.738380E-19
5.322639E+03	1.591159E-18	1.746649E-19
5.323234E+03	1.615211E-18	1.772624E-19
5.323432E+03	1.622782E-18	1.780790E-19
5.324027E+03	1.647030E-18	1.806961E-19
5.324225E+03	1.654840E-18	1.815383E-19
5.324423E+03	1.662146E-18	1.823251E-19
5.324621E+03	1.669751E-18	1.831445E-19
5.324819E+03	1.677217E-18	1.839485E-19
5.325215E+03	1.693078E-18	1.856580E-19
5.326205E+03	1.733760E-18	1.900420E-19
5.327393E+03	1.782346E-18	1.952726E-19
5.327988E+03	1.806554E-18	1.978763E-19
5.328385E+03	1.822346E-18	1.995733E-19
5.329573E+03	1.871437E-18	2.048491E-19
5.330167E+03	1.895177E-18	2.073969E-19
5.330365E+03	1.902182E-18	2.081463E-19
5.330959E+03	1.926337E-18	2.107376E-19
5.331554E+03	1.950482E-18	2.133264E-19
5.331752E+03	1.957385E-18	2.140638E-19
5.331950E+03	1.964065E-18	2.147766E-19
5.332544E+03	1.987760E-18	2.173140E-19
5.332742E+03	1.994071E-18	2.179859E-19
5.333534E+03	2.026067E-18	2.214105E-19
5.334128E+03	2.050284E-18	2.240013E-19
5.335316E+03	2.099436E-18	2.292571E-19
5.335713E+03	2.113992E-18	2.308083E-19
5.335911E+03	2.119888E-18	2.314328E-19
5.336109E+03	2.125863E-18	2.320658E-19
5.336307E+03	2.131868E-18	2.327019E-19
5.337297E+03	2.172500E-18	2.370383E-19
5.337495E+03	2.178012E-18	2.376198E-19
5.337693E+03	2.183648E-18	2.382147E-19
5.338089E+03	2.198053E-18	2.397461E-19
5.338287E+03	2.203360E-18	2.403047E-19
5.339080E+03	2.234648E-18	2.436354E-19
5.339278E+03	2.240055E-18	2.442044E-19
5.340071E+03	2.270903E-18	2.474841E-19
5.340269E+03	2.275809E-18	2.479980E-19
5.340665E+03	2.289252E-18	2.494209E-19
5.340863E+03	2.294195E-18	2.499383E-19
5.341061E+03	2.298644E-18	2.504018E-19
5.341853E+03	2.329359E-18	2.536621E-19
5.342051E+03	2.334022E-18	2.541485E-19
5.342249E+03	2.338661E-18	2.546321E-19
5.342447E+03	2.342976E-18	2.550803E-19
5.342645E+03	2.346991E-18	2.554958E-19
5.343240E+03	2.368088E-18	2.577269E-19
5.343438E+03	2.371868E-18	2.581164E-19
5.343834E+03	2.384234E-18	2.594181E-19
5.344032E+03	2.387668E-18	2.597696E-19
5.344230E+03	2.391162E-18	2.601277E-19
5.344627E+03	2.403544E-18	2.614300E-19
5.344824E+03	2.406843E-18	2.617667E-19
5.345023E+03	2.410041E-18	2.620920E-19
5.345221E+03	2.413251E-18	2.624187E-19
5.345418E+03	2.415977E-18	2.626929E-19
5.345814E+03	2.427644E-18	2.639164E-19
5.346210E+03	2.439105E-18	2.651171E-19
5.346606E+03	2.450356E-18	2.662945E-19
5.347201E+03	2.469781E-18	2.683364E-19
5.347399E+03	2.472111E-18	2.685666E-19
5.347993E+03	2.491107E-18	2.705607E-19
5.348191E+03	2.493175E-18	2.707621E-19
5.348785E+03	2.512154E-18	2.727527E-19
5.348983E+03	2.514046E-18	2.729347E-19
5.349181E+03	2.515842E-18	2.731061E-19
5.350172E+03	2.550745E-18	2.767757E-19
5.350370E+03	2.552313E-18	2.769219E-19
5.350568E+03	2.553752E-18	2.770540E-19
5.351163E+03	2.571679E-18	2.789265E-19
5.351757E+03	2.589303E-18	2.807651E-19
5.351955E+03	2.589762E-18	2.807904E-19
5.353341E+03	2.639917E-18	2.860544E-19
5.353539E+03	2.640328E-18	2.860740E-19
5.353737E+03	2.640502E-18	2.860680E-19
5.353935E+03	2.640237E-18	2.860143E-19
5.354133E+03	2.640316E-18	2.859979E-19
5.355125E+03	2.672833E-18	2.893936E-19
5.355323E+03	2.672175E-18	2.892970E-19
5.355719E+03	2.679716E-18	2.900627E-19
5.355917E+03	2.679062E-18	2.899665E-19
5.356511E+03	2.694083E-18	2.915155E-19
5.356709E+03	2.692711E-18	2.913415E-19
5.356907E+03	2.691537E-18	2.911889E-19
5.357105E+03	2.689845E-18	2.909803E-19
5.357303E+03	2.688265E-18	2.907839E-19
5.357500E+03	2.686471E-18	2.905644E-19
5.357698E+03	2.684411E-18	2.903160E-19
5.357896E+03	2.682423E-18	2.900755E-19
5.358490E+03	2.696477E-18	2.915181E-19
5.358689E+03	2.694213E-18	2.912477E-19
5.359085E+03	2.699821E-18	2.918023E-19
5.359283E+03	2.697545E-18	2.915305E-19
5.359877E+03	2.710340E-18	2.928356E-19
5.360472E+03	2.722723E-18	2.940953E-19
5.361066E+03	2.735306E-18	2.953758E-19
5.361264E+03	2.731929E-18	2.949849E-19
5.361462E+03	2.728380E-18	2.945755E-19
5.361858E+03	2.732076E-18	2.949222E-19
5.362056E+03	2.727973E-18	2.944530E-19
5.362254E+03	2.724110E-18	2.940098E-19
5.363245E+03	2.750818E-18	2.967599E-19
5.364433E+03	2.784211E-18	3.002015E-19
5.364631E+03	2.779541E-18	2.996711E-19
5.365027E+03	2.782620E-18	2.999492E-19
5.365820E+03	2.800394E-18	3.017566E-19
5.366018E+03	2.795270E-18	3.011774E-19
5.366216E+03	2.789741E-18	3.005547E-19
5.366811E+03	2.799086E-18	3.014800E-19
5.367009E+03	2.793579E-18	3.008598E-19
5.367207E+03	2.787939E-18	3.002253E-19
5.367405E+03	2.781702E-18	2.995266E-19
5.367801E+03	2.782655E-18	2.995750E-19
5.368989E+03	2.813009E-18	3.026785E-19
5.369780E+03	2.827674E-18	3.041464E-19
5.369978E+03	2.820518E-18	3.033492E-19
5.370177E+03	2.813125E-18	3.025264E-19
5.370375E+03	2.805445E-18	3.016732E-19
5.370573E+03	2.798053E-18	3.008510E-19
5.370771E+03	2.790519E-18	3.000136E-19
5.370970E+03	2.782668E-18	2.991421E-19
5.371366E+03	2.782254E-18	2.990432E-19
5.371564E+03	2.773919E-18	2.981201E-19
5.371762E+03	2.765334E-18	2.971703E-19
5.371960E+03	2.756617E-18	2.962066E-19
5.372356E+03	2.754793E-18	2.959565E-19
5.372752E+03	2.752823E-18	2.956908E-19
5.372950E+03	2.743797E-18	2.946943E-19
5.373148E+03	2.734753E-18	2.936961E-19
5.373346E+03	2.725562E-18	2.926822E-19
5.373742E+03	2.723068E-18	2.923608E-19
5.373940E+03	2.713660E-18	2.913240E-19
5.374138E+03	2.704239E-18	2.902859E-19
5.374733E+03	2.707977E-18	2.906071E-19
5.375327E+03	2.711381E-18	2.908921E-19
5.375525E+03	2.700864E-18	2.897371E-19
5.375921E+03	2.696854E-18	2.892536E-19
5.376516E+03	2.699292E-18	2.894348E-19
5.376912E+03	2.695342E-18	2.889580E-19
5.377308E+03	2.691088E-18	2.884484E-19
5.377506E+03	2.680238E-18	2.872589E-19
5.378497E+03	2.694460E-18	2.886494E-19
5.379091E+03	2.695141E-18	2.886421E-19
5.379289E+03	2.682804E-18	2.872940E-19
5.380081E+03	2.689446E-18	2.878980E-19
5.380279E+03	2.676718E-18	2.865088E-19
5.380477E+03	2.663891E-18	2.851094E-19
5.380675E+03	2.651035E-18	2.837070E-19
5.381467E+03	2.656591E-18	2.841953E-19
5.381666E+03	2.643498E-18	2.827681E-19
5.381864E+03	2.630277E-18	2.813276E-19
5.382459E+03	2.629081E-18	2.811206E-19
5.382656E+03	2.615617E-18	2.796548E-19
5.383052E+03	2.608088E-18	2.787976E-19
5.383448E+03	2.600282E-18	2.779110E-19
5.383646E+03	2.586587E-18	2.764213E-19
5.383844E+03	2.572818E-18	2.749240E-19
5.384042E+03	2.558951E-18	2.734164E-19
5.384834E+03	2.561914E-18	2.736299E-19
5.385032E+03	2.547290E-18	2.720423E-19
5.385428E+03	2.537817E-18	2.709795E-19
