#wls	flux	fluxerr
1.584409E+03	1.427143E-16	4.281780E-17
1.624020E+03	1.481813E-16	4.445748E-17
1.663630E+03	1.530785E-16	4.592615E-17
1.703240E+03	1.573272E-16	4.720017E-17
1.742850E+03	1.607845E-16	4.823668E-17
1.782461E+03	1.633440E-16	4.900379E-17
1.822071E+03	1.647709E-16	4.943103E-17
1.861681E+03	1.648886E-16	4.946550E-17
1.901291E+03	1.634959E-16	4.904680E-17
1.940902E+03	1.604199E-16	4.812309E-17
1.980512E+03	1.556879E-16	4.670265E-17
2.020122E+03	1.495708E-16	4.486669E-17
2.059732E+03	1.427447E-16	4.281812E-17
2.099342E+03	1.362458E-16	4.086772E-17
2.138953E+03	1.311075E-16	3.932548E-17
2.178563E+03	1.278332E-16	3.834237E-17
2.218173E+03	1.261306E-16	3.783069E-17
2.257783E+03	1.251555E-16	3.753713E-17
2.297394E+03	1.240004E-16	3.718959E-17
2.337004E+03	1.220584E-16	3.660601E-17
2.376614E+03	1.190271E-16	3.569574E-17
2.416224E+03	1.148708E-16	3.444813E-17
2.455835E+03	1.096902E-16	3.289338E-17
2.495445E+03	1.036778E-16	3.108926E-17
2.535055E+03	9.703917E-17	2.909743E-17
2.574665E+03	8.998741E-17	2.698186E-17
2.614276E+03	8.270932E-17	2.479855E-17
2.653886E+03	7.537287E-17	2.259789E-17
2.693496E+03	6.812457E-17	2.042381E-17
2.733106E+03	6.108256E-17	1.831173E-17
2.772716E+03	5.434580E-17	1.629134E-17
2.812327E+03	4.799206E-17	1.438592E-17
2.851937E+03	4.208247E-17	1.261381E-17
2.891547E+03	3.666162E-17	1.098835E-17
2.931157E+03	3.175578E-17	9.517402E-18
2.970768E+03	2.737445E-17	8.203794E-18
2.980670E+03	2.636050E-17	7.899803E-18
2.990573E+03	2.537814E-17	7.605289E-18
3.000475E+03	2.442804E-17	7.320450E-18
3.010378E+03	2.350855E-17	7.044788E-18
3.020280E+03	2.262014E-17	6.778453E-18
3.030183E+03	2.176219E-17	6.521249E-18
3.040086E+03	2.093475E-17	6.273196E-18
3.049988E+03	2.013702E-17	6.034053E-18
3.059891E+03	1.937028E-17	5.804204E-18
3.069793E+03	1.863253E-17	5.583047E-18
3.079696E+03	1.792344E-17	5.370484E-18
3.089598E+03	1.724195E-17	5.166196E-18
3.099501E+03	1.658671E-17	4.969781E-18
3.109403E+03	1.595742E-17	4.781149E-18
3.119306E+03	1.535288E-17	4.599936E-18
3.129209E+03	1.477251E-17	4.425969E-18
3.139111E+03	1.421544E-17	4.258990E-18
3.149014E+03	1.368088E-17	4.098759E-18
3.158916E+03	1.316828E-17	3.945115E-18
3.168819E+03	1.267688E-17	3.797824E-18
3.178721E+03	1.220571E-17	3.656600E-18
3.188624E+03	1.175450E-17	3.521358E-18
3.198526E+03	1.132231E-17	3.391822E-18
3.208429E+03	1.090867E-17	3.267845E-18
3.218332E+03	1.051291E-17	3.149229E-18
3.228234E+03	1.013421E-17	3.035727E-18
3.238137E+03	9.772275E-18	2.927250E-18
3.248039E+03	9.426174E-18	2.823521E-18
3.257942E+03	9.095619E-18	2.724451E-18
3.267844E+03	8.780011E-18	2.629863E-18
3.277747E+03	8.478521E-18	2.539506E-18
3.287650E+03	8.190865E-18	2.453296E-18
3.297552E+03	7.916501E-18	2.371070E-18
3.307455E+03	7.654793E-18	2.292638E-18
3.317357E+03	7.405248E-18	2.217851E-18
3.327260E+03	7.167384E-18	2.146566E-18
3.337162E+03	6.940739E-18	2.078643E-18
3.347065E+03	6.724861E-18	2.013947E-18
3.356967E+03	6.519316E-18	1.952348E-18
3.366870E+03	6.323601E-18	1.893695E-18
3.376773E+03	6.137239E-18	1.837845E-18
3.386675E+03	5.960010E-18	1.784732E-18
3.396578E+03	5.791318E-18	1.734178E-18
3.406480E+03	5.630894E-18	1.686101E-18
3.416383E+03	5.478335E-18	1.640381E-18
3.426285E+03	5.333326E-18	1.596924E-18
3.436188E+03	5.195440E-18	1.555601E-18
3.446090E+03	5.064341E-18	1.516311E-18
3.455993E+03	4.939764E-18	1.478976E-18
3.465896E+03	4.821351E-18	1.443488E-18
3.475798E+03	4.708868E-18	1.409777E-18
3.485701E+03	4.601887E-18	1.377714E-18
3.495603E+03	4.500216E-18	1.347243E-18
3.505506E+03	4.403525E-18	1.318263E-18
3.515408E+03	4.311553E-18	1.290697E-18
3.525311E+03	4.224059E-18	1.264473E-18
3.535213E+03	4.140729E-18	1.239496E-18
3.545116E+03	4.061441E-18	1.215730E-18
3.555019E+03	3.985952E-18	1.193102E-18
3.564921E+03	3.914038E-18	1.171546E-18
3.574824E+03	3.845602E-18	1.151031E-18
3.584726E+03	3.780403E-18	1.131486E-18
3.594629E+03	3.718285E-18	1.112863E-18
3.604531E+03	3.659104E-18	1.095121E-18
3.614434E+03	3.602718E-18	1.078216E-18
3.624337E+03	3.548996E-18	1.062108E-18
3.634239E+03	3.497811E-18	1.046761E-18
3.644142E+03	3.449073E-18	1.032146E-18
3.654044E+03	3.402693E-18	1.018238E-18
3.663947E+03	3.358559E-18	1.005002E-18
3.673849E+03	3.316673E-18	9.924393E-19
3.683752E+03	3.276893E-18	9.805075E-19
3.693654E+03	3.239199E-18	9.692000E-19
3.703557E+03	3.203506E-18	9.584917E-19
3.713460E+03	3.169764E-18	9.483678E-19
3.723362E+03	3.137976E-18	9.388286E-19
3.733265E+03	3.108008E-18	9.298342E-19
3.743167E+03	3.079862E-18	9.213853E-19
3.753070E+03	3.053513E-18	9.134742E-19
3.762972E+03	3.028858E-18	9.060703E-19
3.772875E+03	3.005899E-18	8.991740E-19
3.782777E+03	2.984611E-18	8.927775E-19
3.792680E+03	2.964920E-18	8.868589E-19
3.802583E+03	2.946776E-18	8.814032E-19
3.812485E+03	2.930204E-18	8.764178E-19
3.822388E+03	2.915111E-18	8.718748E-19
3.832290E+03	2.901496E-18	8.677738E-19
3.842193E+03	2.889313E-18	8.641014E-19
3.852095E+03	2.878542E-18	8.608509E-19
3.861998E+03	2.869160E-18	8.580161E-19
3.871900E+03	2.861102E-18	8.555771E-19
3.881803E+03	2.854348E-18	8.535278E-19
3.891706E+03	2.848903E-18	8.518700E-19
3.901608E+03	2.844726E-18	8.505909E-19
3.911511E+03	2.841776E-18	8.496787E-19
3.921413E+03	2.840036E-18	8.491282E-19
3.931316E+03	2.839470E-18	8.489283E-19
3.941218E+03	2.840062E-18	8.490745E-19
3.951121E+03	2.841797E-18	8.495621E-19
3.961024E+03	2.844663E-18	8.503877E-19
3.970926E+03	2.848602E-18	8.515334E-19
3.980829E+03	2.853602E-18	8.529962E-19
3.990731E+03	2.859653E-18	8.547726E-19
4.000634E+03	2.866743E-18	8.568591E-19
4.010536E+03	2.874841E-18	8.592465E-19
4.020439E+03	2.883915E-18	8.619253E-19
4.030341E+03	2.893959E-18	8.648932E-19
4.040244E+03	2.904939E-18	8.681406E-19
4.050147E+03	2.916851E-18	8.716659E-19
4.060049E+03	2.929665E-18	8.754602E-19
4.069952E+03	2.943377E-18	8.795221E-19
4.079854E+03	2.957955E-18	8.838425E-19
4.089757E+03	2.973376E-18	8.884139E-19
4.099659E+03	2.989633E-18	8.932344E-19
4.109562E+03	3.006700E-18	8.982963E-19
4.119464E+03	3.024576E-18	9.035990E-19
4.129367E+03	3.043208E-18	9.091270E-19
4.139270E+03	3.062597E-18	9.148802E-19
4.149172E+03	3.082691E-18	9.208433E-19
4.159075E+03	3.103513E-18	9.270230E-19
4.168977E+03	3.125016E-18	9.334051E-19
4.178880E+03	3.147196E-18	9.399887E-19
4.188782E+03	3.169980E-18	9.467517E-19
4.198685E+03	3.193390E-18	9.537008E-19
4.208587E+03	3.217354E-18	9.608143E-19
4.218490E+03	3.241893E-18	9.680985E-19
4.228393E+03	3.266932E-18	9.755312E-19
4.238295E+03	3.292419E-18	9.830962E-19
4.248198E+03	3.318375E-18	9.908007E-19
4.258100E+03	3.344697E-18	9.986129E-19
4.268003E+03	3.371408E-18	1.006540E-18
4.277905E+03	3.398397E-18	1.014550E-18
4.287808E+03	3.425690E-18	1.022649E-18
4.297711E+03	3.453227E-18	1.030820E-18
4.307613E+03	3.480952E-18	1.039045E-18
4.317516E+03	3.508855E-18	1.047323E-18
4.327418E+03	3.536908E-18	1.055644E-18
4.337321E+03	3.565133E-18	1.064015E-18
4.347223E+03	3.593469E-18	1.072418E-18
4.357126E+03	3.621970E-18	1.080869E-18
4.367028E+03	3.650634E-18	1.089367E-18
4.376931E+03	3.679463E-18	1.097914E-18
4.386834E+03	3.708457E-18	1.106508E-18
4.396736E+03	3.737645E-18	1.115159E-18
4.406639E+03	3.767002E-18	1.123859E-18
4.416541E+03	3.796563E-18	1.132618E-18
4.426444E+03	3.826333E-18	1.141438E-18
4.436346E+03	3.856317E-18	1.150321E-18
4.446249E+03	3.886493E-18	1.159259E-18
4.456151E+03	3.916869E-18	1.168256E-18
4.466054E+03	3.947419E-18	1.177303E-18
4.475957E+03	3.978189E-18	1.186415E-18
4.485859E+03	4.009121E-18	1.195573E-18
4.495762E+03	4.040229E-18	1.204782E-18
4.505664E+03	4.071524E-18	1.214045E-18
4.515567E+03	4.102954E-18	1.223347E-18
4.525469E+03	4.134566E-18	1.232702E-18
4.535372E+03	4.166307E-18	1.242093E-18
4.545274E+03	4.198194E-18	1.251526E-18
4.555177E+03	4.230172E-18	1.260985E-18
4.565080E+03	4.262296E-18	1.270486E-18
4.574982E+03	4.294552E-18	1.280024E-18
4.584885E+03	4.326886E-18	1.289584E-18
4.594787E+03	4.359322E-18	1.299172E-18
4.604690E+03	4.391886E-18	1.308797E-18
4.614592E+03	4.424564E-18	1.318454E-18
4.624495E+03	4.457308E-18	1.328129E-18
4.634398E+03	4.490225E-18	1.337853E-18
4.644300E+03	4.523350E-18	1.347638E-18
4.654203E+03	4.556638E-18	1.357469E-18
4.664105E+03	4.590125E-18	1.367358E-18
4.674008E+03	4.623851E-18	1.377316E-18
4.683910E+03	4.657731E-18	1.387318E-18
4.693813E+03	4.691808E-18	1.397376E-18
4.703715E+03	4.726037E-18	1.407478E-18
4.713618E+03	4.760463E-18	1.417637E-18
4.723521E+03	4.795087E-18	1.427852E-18
4.733423E+03	4.829869E-18	1.438113E-18
4.743326E+03	4.864856E-18	1.448432E-18
4.753228E+03	4.900006E-18	1.458798E-18
4.763131E+03	4.935370E-18	1.469225E-18
4.773033E+03	4.970908E-18	1.479702E-18
4.782936E+03	5.006623E-18	1.490229E-18
4.792838E+03	5.042522E-18	1.500809E-18
4.802741E+03	5.078657E-18	1.511456E-18
4.812644E+03	5.114987E-18	1.522160E-18
4.822546E+03	5.151518E-18	1.532921E-18
4.832449E+03	5.188210E-18	1.543727E-18
4.842351E+03	5.225162E-18	1.554608E-18
4.852254E+03	5.262334E-18	1.565553E-18
4.862156E+03	5.299732E-18	1.576562E-18
4.872059E+03	5.337309E-18	1.587622E-18
4.881961E+03	5.375123E-18	1.598750E-18
4.891864E+03	5.413124E-18	1.609931E-18
4.901767E+03	5.451318E-18	1.621167E-18
4.911669E+03	5.489758E-18	1.632473E-18
4.921572E+03	5.528395E-18	1.643835E-18
4.931474E+03	5.567230E-18	1.655253E-18
4.941377E+03	5.606209E-18	1.666712E-18
4.951279E+03	5.645387E-18	1.678226E-18
4.961182E+03	5.684761E-18	1.689797E-18
4.971085E+03	5.724274E-18	1.701405E-18
4.980987E+03	5.763925E-18	1.713052E-18
4.990890E+03	5.803705E-18	1.724735E-18
5.000792E+03	5.843556E-18	1.736435E-18
5.010695E+03	5.883524E-18	1.748168E-18
5.020597E+03	5.923604E-18	1.759930E-18
5.030500E+03	5.963670E-18	1.771686E-18
5.040402E+03	6.003769E-18	1.783448E-18
5.050305E+03	6.043890E-18	1.795213E-18
5.060208E+03	6.083960E-18	1.806960E-18
5.070110E+03	6.123964E-18	1.818685E-18
5.080013E+03	6.163885E-18	1.830382E-18
5.089915E+03	6.203705E-18	1.842045E-18
5.099818E+03	6.243344E-18	1.853652E-18
5.109720E+03	6.282842E-18	1.865214E-18
5.119623E+03	6.322052E-18	1.876687E-18
5.129525E+03	6.361010E-18	1.888081E-18
5.139428E+03	6.399625E-18	1.899371E-18
5.149331E+03	6.437869E-18	1.910548E-18
5.159233E+03	6.475711E-18	1.921601E-18
5.169136E+03	6.513117E-18	1.932522E-18
5.179038E+03	6.549922E-18	1.943262E-18
5.188941E+03	6.586220E-18	1.953848E-18
5.198843E+03	6.621906E-18	1.964249E-18
5.208746E+03	6.656941E-18	1.974454E-18
5.218648E+03	6.691219E-18	1.984430E-18
5.228551E+03	6.724696E-18	1.994166E-18
5.238454E+03	6.757329E-18	2.003649E-18
5.248356E+03	6.789075E-18	2.012865E-18
5.258259E+03	6.819892E-18	2.021803E-18
5.268161E+03	6.849669E-18	2.030429E-18
5.278064E+03	6.878500E-18	2.038772E-18
5.287966E+03	6.906208E-18	2.046779E-18
5.297869E+03	6.932753E-18	2.054438E-18
5.307772E+03	6.958236E-18	2.061780E-18
5.317674E+03	6.982482E-18	2.068752E-18
5.327577E+03	7.005600E-18	2.075387E-18
5.337479E+03	7.027488E-18	2.081655E-18
5.347382E+03	7.048190E-18	2.087569E-18
5.357284E+03	7.067612E-18	2.093101E-18
5.367187E+03	7.085871E-18	2.098286E-18
5.377089E+03	7.102885E-18	2.103099E-18
5.386992E+03	7.118707E-18	2.107557E-18
5.396895E+03	7.133185E-18	2.111615E-18
5.406797E+03	7.146381E-18	2.115291E-18
5.416700E+03	7.158221E-18	2.118563E-18
5.426602E+03	7.168632E-18	2.121410E-18
5.436505E+03	7.177684E-18	2.123852E-18
5.446407E+03	7.185241E-18	2.125851E-18
5.456310E+03	7.191235E-18	2.127384E-18
5.466212E+03	7.195677E-18	2.128457E-18
5.476115E+03	7.198434E-18	2.129029E-18
5.486018E+03	7.199593E-18	2.129127E-18
5.495920E+03	7.198954E-18	2.128692E-18
5.505823E+03	7.196683E-18	2.127773E-18
5.515725E+03	7.192727E-18	2.126354E-18
5.525628E+03	7.187039E-18	2.124422E-18
5.535530E+03	7.179648E-18	2.121985E-18
5.545433E+03	7.170577E-18	2.119051E-18
5.555335E+03	7.159786E-18	2.115607E-18
5.565238E+03	7.147452E-18	2.111707E-18
5.575141E+03	7.133463E-18	2.107317E-18
5.585043E+03	7.117999E-18	2.102491E-18
5.594946E+03	7.100950E-18	2.097196E-18
5.604848E+03	7.082500E-18	2.091487E-18
5.614751E+03	7.062686E-18	2.085375E-18
5.624653E+03	7.041477E-18	2.078851E-18
5.634556E+03	7.018986E-18	2.071949E-18
5.644459E+03	6.995255E-18	2.064680E-18
5.654361E+03	6.970401E-18	2.057080E-18
5.664264E+03	6.944467E-18	2.049162E-18
5.674166E+03	6.917427E-18	2.040918E-18
5.684069E+03	6.889473E-18	2.032405E-18
5.693971E+03	6.860654E-18	2.023637E-18
5.703874E+03	6.830947E-18	2.014608E-18
5.713776E+03	6.800474E-18	2.005354E-18
5.723679E+03	6.769361E-18	1.995911E-18
5.733582E+03	6.737658E-18	1.986296E-18
5.743484E+03	6.705349E-18	1.976503E-18
5.753387E+03	6.672563E-18	1.966570E-18
5.763289E+03	6.639425E-18	1.956534E-18
5.773192E+03	6.605993E-18	1.946413E-18
5.783094E+03	6.572251E-18	1.936202E-18
5.792997E+03	6.538331E-18	1.925939E-18
5.802899E+03	6.504293E-18	1.915643E-18
5.812802E+03	6.470262E-18	1.905350E-18
5.822705E+03	6.436300E-18	1.895079E-18
5.832607E+03	6.402392E-18	1.884825E-18
5.842510E+03	6.368669E-18	1.874626E-18
5.852412E+03	6.335114E-18	1.864479E-18
5.862315E+03	6.301997E-18	1.854461E-18
5.872217E+03	6.269159E-18	1.844527E-18
5.882120E+03	6.236727E-18	1.834714E-18
5.892022E+03	6.204822E-18	1.825057E-18
5.901925E+03	6.173424E-18	1.815550E-18
5.911828E+03	6.142580E-18	1.806207E-18
5.921730E+03	6.112409E-18	1.797063E-18
5.931633E+03	6.082884E-18	1.788110E-18
5.941535E+03	6.054117E-18	1.779381E-18
5.951438E+03	6.026009E-18	1.770847E-18
5.961340E+03	5.998738E-18	1.762560E-18
5.971243E+03	5.972199E-18	1.754489E-18
5.981146E+03	5.946567E-18	1.746685E-18
5.991048E+03	5.921660E-18	1.739095E-18
6.000951E+03	5.897650E-18	1.731768E-18
6.010853E+03	5.874493E-18	1.724694E-18
6.020756E+03	5.852212E-18	1.717876E-18
6.030658E+03	5.830689E-18	1.711282E-18
6.040561E+03	5.810086E-18	1.704958E-18
6.050463E+03	5.790207E-18	1.698848E-18
6.060366E+03	5.771209E-18	1.692996E-18
6.070269E+03	5.752896E-18	1.687345E-18
6.080171E+03	5.735275E-18	1.681897E-18
6.090074E+03	5.718286E-18	1.676635E-18
6.099976E+03	5.701932E-18	1.671559E-18
6.109879E+03	5.686006E-18	1.666609E-18
6.119781E+03	5.670506E-18	1.661784E-18
6.129684E+03	5.655359E-18	1.657062E-18
6.139586E+03	5.640558E-18	1.652442E-18
6.149489E+03	5.626096E-18	1.647920E-18
6.159392E+03	5.612104E-18	1.643537E-18
6.169294E+03	5.598791E-18	1.639352E-18
6.179197E+03	5.586217E-18	1.635383E-18
6.189099E+03	5.574517E-18	1.631670E-18
6.199002E+03	5.563829E-18	1.628253E-18
6.208904E+03	5.554215E-18	1.625149E-18
6.218807E+03	5.545815E-18	1.622400E-18
6.228709E+03	5.538695E-18	1.620026E-18
6.238612E+03	5.532925E-18	1.618044E-18
6.248515E+03	5.528646E-18	1.616499E-18
6.258417E+03	5.525859E-18	1.615388E-18
6.268320E+03	5.524713E-18	1.614756E-18
6.278222E+03	5.525130E-18	1.614579E-18
6.288125E+03	5.527188E-18	1.614880E-18
6.298027E+03	5.530889E-18	1.615658E-18
6.307930E+03	5.536313E-18	1.616939E-18
6.317833E+03	5.543386E-18	1.618699E-18
6.327735E+03	5.552111E-18	1.620939E-18
6.337638E+03	5.562415E-18	1.623637E-18
6.347540E+03	5.574137E-18	1.626746E-18
6.357443E+03	5.587194E-18	1.630243E-18
6.367345E+03	5.601589E-18	1.634126E-18
6.377248E+03	5.617316E-18	1.638395E-18
6.387150E+03	5.634376E-18	1.643049E-18
6.397053E+03	5.652850E-18	1.648112E-18
6.406956E+03	5.672829E-18	1.653609E-18
6.416858E+03	5.694312E-18	1.659542E-18
6.426761E+03	5.717223E-18	1.665887E-18
6.436663E+03	5.741738E-18	1.672694E-18
6.446566E+03	5.767867E-18	1.679967E-18
6.456468E+03	5.795529E-18	1.687682E-18
6.466371E+03	5.824824E-18	1.695868E-18
6.476273E+03	5.855764E-18	1.704527E-18
6.486176E+03	5.888266E-18	1.713635E-18
6.496079E+03	5.922344E-18	1.723197E-18
6.505981E+03	5.958194E-18	1.733268E-18
6.515884E+03	5.995549E-18	1.743771E-18
6.525786E+03	6.034610E-18	1.754765E-18
6.535689E+03	6.075396E-18	1.766253E-18
6.545591E+03	6.117724E-18	1.778182E-18
6.555494E+03	6.161804E-18	1.790614E-18
6.565396E+03	6.207453E-18	1.803495E-18
6.575299E+03	6.254890E-18	1.816888E-18
6.585202E+03	6.303925E-18	1.830737E-18
6.595104E+03	6.354676E-18	1.845077E-18
6.605007E+03	6.407162E-18	1.859912E-18
6.614909E+03	6.461295E-18	1.875216E-18
6.624812E+03	6.517085E-18	1.890994E-18
6.634714E+03	6.574663E-18	1.907281E-18
6.644617E+03	6.633936E-18	1.924050E-18
6.654520E+03	6.694921E-18	1.941306E-18
6.664422E+03	6.757633E-18	1.959054E-18
6.674325E+03	6.822093E-18	1.977298E-18
6.684227E+03	6.888318E-18	1.996043E-18
6.694130E+03	6.956327E-18	2.015295E-18
6.704032E+03	7.026017E-18	2.035023E-18
6.713935E+03	7.097527E-18	2.055267E-18
6.723837E+03	7.170880E-18	2.076034E-18
6.733740E+03	7.245967E-18	2.097290E-18
6.743643E+03	7.322935E-18	2.119079E-18
6.753545E+03	7.401674E-18	2.141369E-18
6.763448E+03	7.482201E-18	2.164163E-18
6.773350E+03	7.564532E-18	2.187466E-18
6.783253E+03	7.648687E-18	2.211283E-18
6.793155E+03	7.734824E-18	2.235660E-18
6.803058E+03	7.822680E-18	2.260520E-18
6.812960E+03	7.912414E-18	2.285908E-18
6.822863E+03	8.004042E-18	2.311830E-18
6.832766E+03	8.097436E-18	2.338246E-18
6.842668E+03	8.192757E-18	2.365204E-18
6.852571E+03	8.290028E-18	2.392710E-18
6.862473E+03	8.389108E-18	2.420722E-18
6.872376E+03	8.490008E-18	2.449244E-18
6.882278E+03	8.592904E-18	2.478325E-18
6.892181E+03	8.697649E-18	2.507922E-18
6.902083E+03	8.804255E-18	2.538039E-18
6.911986E+03	8.912731E-18	2.568679E-18
6.921889E+03	9.023091E-18	2.599843E-18
6.931791E+03	9.135165E-18	2.631483E-18
6.941694E+03	9.249315E-18	2.663703E-18
6.951596E+03	9.365195E-18	2.696403E-18
6.961499E+03	9.482990E-18	2.729635E-18
6.971401E+03	9.602520E-18	2.763348E-18
6.981304E+03	9.723783E-18	2.797539E-18
6.991207E+03	9.846974E-18	2.832266E-18
7.001109E+03	9.971901E-18	2.867472E-18
7.011012E+03	1.009836E-17	2.903097E-18
7.020914E+03	1.022674E-17	2.939256E-18
7.030817E+03	1.035685E-17	2.975888E-18
7.040719E+03	1.048847E-17	3.012933E-18
7.050622E+03	1.062178E-17	3.050444E-18
7.060524E+03	1.075658E-17	3.088358E-18
7.070427E+03	1.089305E-17	3.126732E-18
7.080330E+03	1.103097E-17	3.165497E-18
7.090232E+03	1.117053E-17	3.204713E-18
7.100135E+03	1.131127E-17	3.244242E-18
7.110037E+03	1.145338E-17	3.284140E-18
7.119940E+03	1.159708E-17	3.324471E-18
7.129842E+03	1.174185E-17	3.365086E-18
7.139745E+03	1.188766E-17	3.405974E-18
7.149647E+03	1.203471E-17	3.447195E-18
7.159550E+03	1.218298E-17	3.488740E-18
7.169453E+03	1.233217E-17	3.530522E-18
7.179355E+03	1.248249E-17	3.572603E-18
7.189258E+03	1.263364E-17	3.614897E-18
7.199160E+03	1.278556E-17	3.657385E-18
7.209063E+03	1.293847E-17	3.700134E-18
7.218965E+03	1.309206E-17	3.743049E-18
7.228868E+03	1.324655E-17	3.786196E-18
7.238770E+03	1.340160E-17	3.829477E-18
7.248673E+03	1.355715E-17	3.872877E-18
7.258576E+03	1.371375E-17	3.916548E-18
7.268478E+03	1.387074E-17	3.960306E-18
7.278381E+03	1.402869E-17	4.004312E-18
7.288283E+03	1.418724E-17	4.048463E-18
7.298186E+03	1.434666E-17	4.092835E-18
7.308088E+03	1.450726E-17	4.137517E-18
7.317991E+03	1.466866E-17	4.182399E-18
7.327894E+03	1.483151E-17	4.227670E-18
7.337796E+03	1.499582E-17	4.273326E-18
7.347699E+03	1.516191E-17	4.319464E-18
7.357601E+03	1.532980E-17	4.366088E-18
7.367504E+03	1.549952E-17	4.413203E-18
7.377406E+03	1.567143E-17	4.460914E-18
7.387309E+03	1.584484E-17	4.509026E-18
7.397211E+03	1.601974E-17	4.557531E-18
7.407114E+03	1.619578E-17	4.606331E-18
7.417017E+03	1.637332E-17	4.655528E-18
7.426919E+03	1.655198E-17	4.705013E-18
7.436822E+03	1.673133E-17	4.754668E-18
7.446724E+03	1.691137E-17	4.804486E-18
7.456627E+03	1.709206E-17	4.854463E-18
7.466529E+03	1.727297E-17	4.904470E-18
7.476432E+03	1.745446E-17	4.954613E-18
7.486334E+03	1.763565E-17	5.004641E-18
7.496237E+03	1.781734E-17	5.054782E-18
7.506140E+03	1.799903E-17	5.104895E-18
7.516042E+03	1.818069E-17	5.154967E-18
7.525945E+03	1.836180E-17	5.204856E-18
7.535847E+03	1.854272E-17	5.254661E-18
7.545750E+03	1.872339E-17	5.304365E-18
7.555652E+03	1.890371E-17	5.353943E-18
7.565555E+03	1.908314E-17	5.403240E-18
7.575457E+03	1.926203E-17	5.452356E-18
7.585360E+03	1.943981E-17	5.501129E-18
7.595263E+03	1.961731E-17	5.549796E-18
7.605165E+03	1.979299E-17	5.597920E-18
7.615068E+03	1.996818E-17	5.645876E-18
7.624970E+03	2.014224E-17	5.693489E-18
7.634873E+03	2.031456E-17	5.740581E-18
7.644775E+03	2.048548E-17	5.787252E-18
7.654678E+03	2.065486E-17	5.833462E-18
7.664581E+03	2.082254E-17	5.879169E-18
7.674483E+03	2.098840E-17	5.924332E-18
7.684386E+03	2.115280E-17	5.969063E-18
