#wls	flux	fluxerr
1.584409E+03	1.455531E-16	4.349233E-17
1.624020E+03	1.511307E-16	4.515838E-17
1.663630E+03	1.561269E-16	4.665066E-17
1.703240E+03	1.604617E-16	4.794521E-17
1.742850E+03	1.639889E-16	4.899841E-17
1.782461E+03	1.666002E-16	4.977787E-17
1.822071E+03	1.680558E-16	5.021194E-17
1.861681E+03	1.681757E-16	5.024688E-17
1.901291E+03	1.667544E-16	4.982132E-17
1.940902E+03	1.636154E-16	4.888254E-17
1.980512E+03	1.587868E-16	4.743898E-17
2.020122E+03	1.525448E-16	4.557314E-17
2.059732E+03	1.455790E-16	4.349111E-17
2.099342E+03	1.389461E-16	4.150860E-17
2.138953E+03	1.337001E-16	3.994043E-17
2.178563E+03	1.303540E-16	3.893984E-17
2.218173E+03	1.286096E-16	3.841770E-17
2.257783E+03	1.276054E-16	3.811664E-17
2.297394E+03	1.264161E-16	3.776029E-17
2.337004E+03	1.244230E-16	3.716378E-17
2.376614E+03	1.213179E-16	3.623517E-17
2.416224E+03	1.170651E-16	3.496376E-17
2.455835E+03	1.117674E-16	3.338031E-17
2.495445E+03	1.056216E-16	3.154366E-17
2.535055E+03	9.883787E-17	2.951657E-17
2.574665E+03	9.163406E-17	2.736415E-17
2.614276E+03	8.420084E-17	2.514335E-17
2.653886E+03	7.670990E-17	2.290547E-17
2.693496E+03	6.931095E-17	2.069521E-17
2.733106E+03	6.212460E-17	1.854860E-17
2.772716E+03	5.525191E-17	1.649580E-17
2.812327E+03	4.877221E-17	1.456050E-17
2.851937E+03	4.274775E-17	1.276127E-17
2.891547E+03	3.722379E-17	1.111161E-17
2.931157E+03	3.222686E-17	9.619430E-18
2.970768E+03	2.776635E-17	8.287509E-18
2.980670E+03	2.673440E-17	7.979379E-18
2.990573E+03	2.573476E-17	7.680897E-18
3.000475E+03	2.476806E-17	7.392257E-18
3.010378E+03	2.383262E-17	7.112953E-18
3.020280E+03	2.292895E-17	6.843139E-18
3.030183E+03	2.205637E-17	6.582611E-18
3.040086E+03	2.121493E-17	6.331387E-18
3.049988E+03	2.040384E-17	6.089225E-18
3.059891E+03	1.962436E-17	5.856502E-18
3.069793E+03	1.887445E-17	5.632613E-18
3.079696E+03	1.815377E-17	5.417452E-18
3.089598E+03	1.746124E-17	5.210698E-18
3.099501E+03	1.679548E-17	5.011940E-18
3.109403E+03	1.615621E-17	4.821090E-18
3.119306E+03	1.554215E-17	4.637770E-18
3.129209E+03	1.495273E-17	4.461808E-18
3.139111E+03	1.438705E-17	4.292938E-18
3.149014E+03	1.384432E-17	4.130918E-18
3.158916E+03	1.332397E-17	3.975580E-18
3.168819E+03	1.282519E-17	3.826685E-18
3.178721E+03	1.234702E-17	3.683945E-18
3.188624E+03	1.188916E-17	3.547267E-18
3.198526E+03	1.145067E-17	3.416375E-18
3.208429E+03	1.103105E-17	3.291117E-18
3.218332E+03	1.062963E-17	3.171291E-18
3.228234E+03	1.024555E-17	3.056644E-18
3.238137E+03	9.878521E-18	2.947087E-18
3.248039E+03	9.527587E-18	2.842336E-18
3.257942E+03	9.192452E-18	2.742301E-18
3.267844E+03	8.872504E-18	2.646801E-18
3.277747E+03	8.566897E-18	2.555582E-18
3.287650E+03	8.275340E-18	2.468557E-18
3.297552E+03	7.997278E-18	2.385561E-18
3.307455E+03	7.732063E-18	2.306400E-18
3.317357E+03	7.479194E-18	2.230925E-18
3.327260E+03	7.238178E-18	2.158988E-18
3.337162E+03	7.008544E-18	2.090448E-18
3.347065E+03	6.789833E-18	2.025169E-18
3.356967E+03	6.581601E-18	1.963018E-18
3.366870E+03	6.383337E-18	1.903842E-18
3.376773E+03	6.194557E-18	1.847497E-18
3.386675E+03	6.015036E-18	1.793915E-18
3.396578E+03	5.844167E-18	1.742916E-18
3.406480E+03	5.681679E-18	1.694418E-18
3.416383E+03	5.527160E-18	1.648299E-18
3.426285E+03	5.380292E-18	1.604463E-18
3.436188E+03	5.240641E-18	1.562781E-18
3.446090E+03	5.107866E-18	1.523151E-18
3.455993E+03	4.981698E-18	1.485493E-18
3.465896E+03	4.861773E-18	1.449697E-18
3.475798E+03	4.747853E-18	1.415694E-18
3.485701E+03	4.639508E-18	1.383354E-18
3.495603E+03	4.536539E-18	1.352619E-18
3.505506E+03	4.438614E-18	1.323388E-18
3.515408E+03	4.345468E-18	1.295584E-18
3.525311E+03	4.256855E-18	1.269132E-18
3.535213E+03	4.172459E-18	1.243939E-18
3.545116E+03	4.092155E-18	1.219966E-18
3.555019E+03	4.015699E-18	1.197141E-18
3.564921E+03	3.942862E-18	1.175397E-18
3.574824E+03	3.873546E-18	1.154703E-18
3.584726E+03	3.807507E-18	1.134986E-18
3.594629E+03	3.744586E-18	1.116200E-18
3.604531E+03	3.684637E-18	1.098300E-18
3.614434E+03	3.627519E-18	1.081245E-18
3.624337E+03	3.573095E-18	1.064994E-18
3.634239E+03	3.521240E-18	1.049508E-18
3.644142E+03	3.471858E-18	1.034761E-18
3.654044E+03	3.424865E-18	1.020726E-18
3.663947E+03	3.380140E-18	1.007368E-18
3.673849E+03	3.337690E-18	9.946877E-19
3.683752E+03	3.297370E-18	9.826431E-19
3.693654E+03	3.259156E-18	9.712266E-19
3.703557E+03	3.222965E-18	9.604133E-19
3.713460E+03	3.188746E-18	9.501879E-19
3.723362E+03	3.156499E-18	9.405507E-19
3.733265E+03	3.126091E-18	9.314616E-19
3.743167E+03	3.097522E-18	9.229209E-19
3.753070E+03	3.070766E-18	9.149207E-19
3.762972E+03	3.045721E-18	9.074304E-19
3.772875E+03	3.022387E-18	9.004500E-19
3.782777E+03	3.000737E-18	8.939716E-19
3.792680E+03	2.980697E-18	8.879729E-19
3.802583E+03	2.962218E-18	8.824395E-19
3.812485E+03	2.945323E-18	8.773781E-19
3.822388E+03	2.929917E-18	8.727604E-19
3.832290E+03	2.916001E-18	8.685863E-19
3.842193E+03	2.903529E-18	8.648425E-19
3.852095E+03	2.892477E-18	8.615217E-19
3.861998E+03	2.882823E-18	8.586174E-19
3.871900E+03	2.874504E-18	8.561104E-19
3.881803E+03	2.867496E-18	8.539940E-19
3.891706E+03	2.861807E-18	8.522699E-19
3.901608E+03	2.857391E-18	8.509252E-19
3.911511E+03	2.854210E-18	8.499480E-19
3.921413E+03	2.852247E-18	8.493333E-19
3.931316E+03	2.851464E-18	8.490697E-19
3.941218E+03	2.851846E-18	8.491527E-19
3.951121E+03	2.853376E-18	8.495775E-19
3.961024E+03	2.856042E-18	8.503401E-19
3.970926E+03	2.859788E-18	8.514237E-19
3.980829E+03	2.864600E-18	8.528246E-19
3.990731E+03	2.870465E-18	8.545388E-19
4.000634E+03	2.877376E-18	8.565636E-19
4.010536E+03	2.885299E-18	8.588893E-19
4.020439E+03	2.894201E-18	8.615060E-19
4.030341E+03	2.904076E-18	8.644120E-19
4.040244E+03	2.914891E-18	8.675973E-19
4.050147E+03	2.926642E-18	8.710604E-19
4.060049E+03	2.939297E-18	8.747921E-19
4.069952E+03	2.952851E-18	8.787909E-19
4.079854E+03	2.967277E-18	8.830486E-19
4.089757E+03	2.982546E-18	8.875562E-19
4.099659E+03	2.998653E-18	8.923129E-19
4.109562E+03	3.015573E-18	8.973107E-19
4.119464E+03	3.033302E-18	9.025484E-19
4.129367E+03	3.051790E-18	9.080114E-19
4.139270E+03	3.071035E-18	9.136986E-19
4.149172E+03	3.090987E-18	9.195955E-19
4.159075E+03	3.111668E-18	9.257083E-19
4.168977E+03	3.133029E-18	9.320227E-19
4.178880E+03	3.155068E-18	9.385380E-19
4.188782E+03	3.177712E-18	9.452323E-19
4.198685E+03	3.200983E-18	9.521120E-19
4.208587E+03	3.224806E-18	9.591550E-19
4.218490E+03	3.249205E-18	9.663684E-19
4.228393E+03	3.274103E-18	9.737294E-19
4.238295E+03	3.299447E-18	9.812218E-19
4.248198E+03	3.325261E-18	9.888530E-19
4.258100E+03	3.351439E-18	9.965914E-19
4.268003E+03	3.378005E-18	1.004444E-18
4.277905E+03	3.404848E-18	1.012378E-18
4.287808E+03	3.431993E-18	1.020400E-18
4.297711E+03	3.459379E-18	1.028493E-18
4.307613E+03	3.486951E-18	1.036641E-18
4.317516E+03	3.514701E-18	1.044839E-18
4.327418E+03	3.542596E-18	1.053080E-18
4.337321E+03	3.570660E-18	1.061370E-18
4.347223E+03	3.598832E-18	1.069691E-18
4.357126E+03	3.627167E-18	1.078059E-18
4.367028E+03	3.655663E-18	1.086473E-18
4.376931E+03	3.684319E-18	1.094934E-18
4.386834E+03	3.713135E-18	1.103441E-18
4.396736E+03	3.742145E-18	1.112004E-18
4.406639E+03	3.771318E-18	1.120615E-18
4.416541E+03	3.800691E-18	1.129283E-18
4.426444E+03	3.830269E-18	1.138011E-18
4.436346E+03	3.860057E-18	1.146800E-18
4.446249E+03	3.890033E-18	1.155644E-18
4.456151E+03	3.920203E-18	1.164544E-18
4.466054E+03	3.950545E-18	1.173493E-18
4.475957E+03	3.981101E-18	1.182504E-18
4.485859E+03	4.011817E-18	1.191562E-18
4.495762E+03	4.042703E-18	1.200668E-18
4.505664E+03	4.073773E-18	1.209828E-18
4.515567E+03	4.104973E-18	1.219024E-18
4.525469E+03	4.136351E-18	1.228272E-18
4.535372E+03	4.167856E-18	1.237556E-18
4.545274E+03	4.199500E-18	1.246880E-18
4.555177E+03	4.231234E-18	1.256229E-18
4.565080E+03	4.263113E-18	1.265619E-18
4.574982E+03	4.295119E-18	1.275045E-18
4.584885E+03	4.327201E-18	1.284492E-18
4.594787E+03	4.359384E-18	1.293967E-18
4.604690E+03	4.391691E-18	1.303477E-18
4.614592E+03	4.424111E-18	1.313020E-18
4.624495E+03	4.456596E-18	1.322579E-18
4.634398E+03	4.489253E-18	1.332188E-18
4.644300E+03	4.522117E-18	1.341857E-18
4.654203E+03	4.555142E-18	1.351571E-18
4.664105E+03	4.588367E-18	1.361343E-18
4.674008E+03	4.621831E-18	1.371184E-18
4.683910E+03	4.655450E-18	1.381069E-18
4.693813E+03	4.689264E-18	1.391010E-18
4.703715E+03	4.723233E-18	1.400995E-18
4.713618E+03	4.757398E-18	1.411036E-18
4.723521E+03	4.791764E-18	1.421134E-18
4.733423E+03	4.826288E-18	1.431277E-18
4.743326E+03	4.861019E-18	1.441480E-18
4.753228E+03	4.895915E-18	1.451729E-18
4.763131E+03	4.931027E-18	1.462041E-18
4.773033E+03	4.966314E-18	1.472402E-18
4.782936E+03	5.001782E-18	1.482814E-18
4.792838E+03	5.037435E-18	1.493280E-18
4.802741E+03	5.073327E-18	1.503814E-18
4.812644E+03	5.109419E-18	1.514404E-18
4.822546E+03	5.145715E-18	1.525053E-18
4.832449E+03	5.182175E-18	1.535749E-18
4.842351E+03	5.218900E-18	1.546520E-18
4.852254E+03	5.255849E-18	1.557355E-18
4.862156E+03	5.293030E-18	1.568257E-18
4.872059E+03	5.330396E-18	1.579211E-18
4.881961E+03	5.368003E-18	1.590234E-18
4.891864E+03	5.405804E-18	1.601312E-18
4.901767E+03	5.443804E-18	1.612446E-18
4.911669E+03	5.482059E-18	1.623653E-18
4.921572E+03	5.520517E-18	1.634918E-18
4.931474E+03	5.559182E-18	1.646241E-18
4.941377E+03	5.598000E-18	1.657607E-18
4.951279E+03	5.637026E-18	1.669032E-18
4.961182E+03	5.676260E-18	1.680515E-18
4.971085E+03	5.715643E-18	1.692040E-18
4.980987E+03	5.755174E-18	1.703606E-18
4.990890E+03	5.794848E-18	1.715211E-18
5.000792E+03	5.834604E-18	1.726838E-18
5.010695E+03	5.874492E-18	1.738501E-18
5.020597E+03	5.914503E-18	1.750197E-18
5.030500E+03	5.954516E-18	1.761891E-18
5.040402E+03	5.994577E-18	1.773596E-18
5.050305E+03	6.034674E-18	1.785309E-18
5.060208E+03	6.074736E-18	1.797008E-18
5.070110E+03	6.114749E-18	1.808690E-18
5.080013E+03	6.154696E-18	1.820349E-18
5.089915E+03	6.194557E-18	1.831979E-18
5.099818E+03	6.234255E-18	1.843559E-18
5.109720E+03	6.273830E-18	1.855098E-18
5.119623E+03	6.313135E-18	1.866554E-18
5.129525E+03	6.352205E-18	1.877938E-18
5.139428E+03	6.390954E-18	1.889224E-18
5.149331E+03	6.429351E-18	1.900402E-18
5.159233E+03	6.467365E-18	1.911464E-18
5.169136E+03	6.504963E-18	1.922400E-18
5.179038E+03	6.541984E-18	1.933162E-18
5.188941E+03	6.578518E-18	1.943777E-18
5.198843E+03	6.614464E-18	1.954215E-18
5.208746E+03	6.649782E-18	1.964463E-18
5.218648E+03	6.684367E-18	1.974493E-18
5.228551E+03	6.718176E-18	1.984290E-18
5.238454E+03	6.751168E-18	1.993842E-18
5.248356E+03	6.783300E-18	2.003137E-18
5.258259E+03	6.814529E-18	2.012162E-18
5.268161E+03	6.844746E-18	2.020886E-18
5.278064E+03	6.874045E-18	2.029335E-18
5.287966E+03	6.902251E-18	2.037459E-18
5.297869E+03	6.929323E-18	2.045245E-18
5.307772E+03	6.955362E-18	2.052723E-18
5.317674E+03	6.980194E-18	2.059841E-18
5.327577E+03	7.003926E-18	2.066633E-18
5.337479E+03	7.026458E-18	2.073067E-18
5.347382E+03	7.047832E-18	2.079157E-18
5.357284E+03	7.067952E-18	2.084874E-18
5.367187E+03	7.086940E-18	2.090255E-18
5.377089E+03	7.104705E-18	2.095273E-18
5.386992E+03	7.121304E-18	2.099944E-18
5.396895E+03	7.136584E-18	2.104223E-18
5.406797E+03	7.150605E-18	2.108129E-18
5.416700E+03	7.163288E-18	2.111638E-18
5.426602E+03	7.174560E-18	2.114729E-18
5.436505E+03	7.184492E-18	2.117423E-18
5.446407E+03	7.192941E-18	2.119677E-18
5.456310E+03	7.199840E-18	2.121473E-18
5.466212E+03	7.205196E-18	2.122812E-18
5.476115E+03	7.208876E-18	2.123655E-18
5.486018E+03	7.210962E-18	2.124027E-18
5.495920E+03	7.211251E-18	2.123869E-18
5.505823E+03	7.209907E-18	2.123227E-18
5.515725E+03	7.206877E-18	2.122088E-18
5.525628E+03	7.202109E-18	2.120436E-18
5.535530E+03	7.195627E-18	2.118277E-18
5.545433E+03	7.187456E-18	2.115621E-18
5.555335E+03	7.177551E-18	2.112453E-18
5.565238E+03	7.166090E-18	2.108826E-18
5.575141E+03	7.152953E-18	2.104705E-18
5.585043E+03	7.138323E-18	2.100145E-18
5.594946E+03	7.122087E-18	2.095111E-18
5.604848E+03	7.104425E-18	2.089658E-18
5.614751E+03	7.085376E-18	2.083796E-18
5.624653E+03	7.064906E-18	2.077516E-18
5.634556E+03	7.043125E-18	2.070851E-18
5.644459E+03	7.020076E-18	2.063813E-18
5.654361E+03	6.995875E-18	2.056436E-18
5.664264E+03	6.970564E-18	2.048733E-18
5.674166E+03	6.944116E-18	2.040696E-18
5.684069E+03	6.916724E-18	2.032383E-18
5.693971E+03	6.888434E-18	2.023806E-18
5.703874E+03	6.859222E-18	2.014958E-18
5.713776E+03	6.829213E-18	2.005878E-18
5.723679E+03	6.798530E-18	1.996600E-18
5.733582E+03	6.767225E-18	1.987140E-18
5.743484E+03	6.735282E-18	1.977494E-18
5.753387E+03	6.702826E-18	1.967697E-18
5.763289E+03	6.669987E-18	1.957790E-18
5.773192E+03	6.636821E-18	1.947788E-18
5.783094E+03	6.603313E-18	1.937686E-18
5.792997E+03	6.569594E-18	1.927523E-18
5.802899E+03	6.535723E-18	1.917317E-18
5.812802E+03	6.501828E-18	1.907106E-18
5.822705E+03	6.467969E-18	1.896906E-18
5.832607E+03	6.434135E-18	1.886714E-18
5.842510E+03	6.400451E-18	1.876568E-18
5.852412E+03	6.366906E-18	1.866464E-18
5.862315E+03	6.333771E-18	1.856481E-18
5.872217E+03	6.300885E-18	1.846572E-18
5.882120E+03	6.268373E-18	1.836775E-18
5.892022E+03	6.236361E-18	1.827125E-18
5.901925E+03	6.204828E-18	1.817616E-18
5.911828E+03	6.173824E-18	1.808264E-18
5.921730E+03	6.143464E-18	1.799101E-18
5.931633E+03	6.113726E-18	1.790122E-18
5.941535E+03	6.084723E-18	1.781359E-18
5.951438E+03	6.056354E-18	1.772782E-18
5.961340E+03	6.028800E-18	1.764445E-18
5.971243E+03	6.001957E-18	1.756317E-18
5.981146E+03	5.976000E-18	1.748449E-18
5.991048E+03	5.950749E-18	1.740789E-18
6.000951E+03	5.926375E-18	1.733386E-18
6.010853E+03	5.902837E-18	1.726228E-18
6.020756E+03	5.880159E-18	1.719322E-18
6.030658E+03	5.858222E-18	1.712633E-18
6.040561E+03	5.837191E-18	1.706210E-18
6.050463E+03	5.816870E-18	1.699994E-18
6.060366E+03	5.797418E-18	1.694034E-18
6.070269E+03	5.778636E-18	1.688269E-18
6.080171E+03	5.760537E-18	1.682703E-18
6.090074E+03	5.743057E-18	1.677319E-18
6.099976E+03	5.726203E-18	1.672118E-18
6.109879E+03	5.709766E-18	1.667039E-18
6.119781E+03	5.693747E-18	1.662082E-18
6.129684E+03	5.678072E-18	1.657225E-18
6.139586E+03	5.662736E-18	1.652468E-18
6.149489E+03	5.647730E-18	1.647806E-18
6.159392E+03	5.633192E-18	1.643281E-18
6.169294E+03	5.619328E-18	1.638953E-18
6.179197E+03	5.606199E-18	1.634839E-18
6.189099E+03	5.593944E-18	1.630980E-18
6.199002E+03	5.582699E-18	1.627414E-18
6.208904E+03	5.572529E-18	1.624162E-18
6.218807E+03	5.563575E-18	1.621264E-18
6.228709E+03	5.555901E-18	1.618738E-18
6.238612E+03	5.549578E-18	1.616605E-18
6.248515E+03	5.544752E-18	1.614907E-18
6.258417E+03	5.541420E-18	1.613643E-18
6.268320E+03	5.539732E-18	1.612857E-18
6.278222E+03	5.539612E-18	1.612526E-18
6.288125E+03	5.541137E-18	1.612672E-18
6.298027E+03	5.544309E-18	1.613295E-18
6.307930E+03	5.549208E-18	1.614420E-18
6.317833E+03	5.555760E-18	1.616023E-18
6.327735E+03	5.563970E-18	1.618106E-18
6.337638E+03	5.573761E-18	1.620646E-18
6.347540E+03	5.584974E-18	1.623597E-18
6.357443E+03	5.597528E-18	1.626935E-18
6.367345E+03	5.611421E-18	1.630659E-18
6.377248E+03	5.626651E-18	1.634769E-18
6.387150E+03	5.643218E-18	1.639264E-18
6.397053E+03	5.661204E-18	1.644167E-18
6.406956E+03	5.680696E-18	1.649504E-18
6.416858E+03	5.701699E-18	1.655277E-18
6.426761E+03	5.724133E-18	1.661460E-18
6.436663E+03	5.748173E-18	1.668106E-18
6.446566E+03	5.773833E-18	1.675216E-18
6.456468E+03	5.801030E-18	1.682769E-18
6.466371E+03	5.829863E-18	1.690791E-18
6.476273E+03	5.860344E-18	1.699286E-18
6.486176E+03	5.892392E-18	1.708231E-18
6.496079E+03	5.926016E-18	1.717626E-18
6.505981E+03	5.961419E-18	1.727532E-18
6.515884E+03	5.998329E-18	1.737868E-18
6.525786E+03	6.036949E-18	1.748694E-18
6.535689E+03	6.077295E-18	1.760013E-18
6.545591E+03	6.119186E-18	1.771773E-18
6.555494E+03	6.162835E-18	1.784035E-18
6.565396E+03	6.208053E-18	1.796744E-18
6.575299E+03	6.255063E-18	1.809965E-18
6.585202E+03	6.303671E-18	1.823640E-18
6.595104E+03	6.354001E-18	1.837806E-18
6.605007E+03	6.406067E-18	1.852466E-18
6.614909E+03	6.459781E-18	1.867594E-18
6.624812E+03	6.515157E-18	1.883195E-18
6.634714E+03	6.572323E-18	1.899303E-18
6.644617E+03	6.631185E-18	1.915893E-18
6.654520E+03	6.691760E-18	1.932968E-18
6.664422E+03	6.754067E-18	1.950535E-18
6.674325E+03	6.818122E-18	1.968596E-18
6.684227E+03	6.883944E-18	1.987157E-18
6.694130E+03	6.951553E-18	2.006223E-18
6.704032E+03	7.020845E-18	2.025765E-18
6.713935E+03	7.091960E-18	2.045822E-18
6.723837E+03	7.164918E-18	2.066399E-18
6.733740E+03	7.239612E-18	2.087465E-18
6.743643E+03	7.316190E-18	2.109063E-18
6.753545E+03	7.394539E-18	2.131159E-18
6.763448E+03	7.474679E-18	2.153759E-18
6.773350E+03	7.556626E-18	2.176867E-18
6.783253E+03	7.640396E-18	2.200488E-18
6.793155E+03	7.726150E-18	2.224666E-18
6.803058E+03	7.813625E-18	2.249326E-18
6.812960E+03	7.902979E-18	2.274514E-18
6.822863E+03	7.994230E-18	2.300233E-18
6.832766E+03	8.087247E-18	2.326446E-18
6.842668E+03	8.182193E-18	2.353199E-18
6.852571E+03	8.279090E-18	2.380498E-18
6.862473E+03	8.377796E-18	2.408302E-18
6.872376E+03	8.478325E-18	2.436614E-18
6.882278E+03	8.580851E-18	2.465484E-18
6.892181E+03	8.685226E-18	2.494869E-18
6.902083E+03	8.791464E-18	2.524772E-18
6.911986E+03	8.899574E-18	2.555196E-18
6.921889E+03	9.009566E-18	2.586142E-18
6.931791E+03	9.121275E-18	2.617565E-18
6.941694E+03	9.235063E-18	2.649565E-18
6.951596E+03	9.350579E-18	2.682043E-18
6.961499E+03	9.468012E-18	2.715053E-18
6.971401E+03	9.587182E-18	2.748542E-18
6.981304E+03	9.708086E-18	2.782508E-18
6.991207E+03	9.830920E-18	2.817008E-18
7.001109E+03	9.955490E-18	2.851986E-18
7.011012E+03	1.008159E-17	2.887382E-18
7.020914E+03	1.020962E-17	2.923310E-18
7.030817E+03	1.033938E-17	2.959711E-18
7.040719E+03	1.047064E-17	2.996523E-18
7.050622E+03	1.060361E-17	3.033801E-18
7.060524E+03	1.073805E-17	3.071481E-18
7.070427E+03	1.087418E-17	3.109619E-18
7.080330E+03	1.101175E-17	3.148148E-18
7.090232E+03	1.115097E-17	3.187127E-18
7.100135E+03	1.129137E-17	3.226418E-18
7.110037E+03	1.143314E-17	3.266079E-18
7.119940E+03	1.157650E-17	3.306170E-18
7.129842E+03	1.172093E-17	3.346546E-18
7.139745E+03	1.186641E-17	3.387195E-18
7.149647E+03	1.201314E-17	3.428176E-18
7.159550E+03	1.216108E-17	3.469481E-18
7.169453E+03	1.230994E-17	3.511024E-18
7.179355E+03	1.245994E-17	3.552866E-18
7.189258E+03	1.261077E-17	3.594920E-18
7.199160E+03	1.276237E-17	3.637170E-18
7.209063E+03	1.291497E-17	3.679680E-18
7.218965E+03	1.306825E-17	3.722357E-18
7.228868E+03	1.322244E-17	3.765267E-18
7.238770E+03	1.337719E-17	3.808313E-18
7.248673E+03	1.353245E-17	3.851478E-18
7.258576E+03	1.368876E-17	3.894916E-18
7.268478E+03	1.384547E-17	3.938441E-18
7.278381E+03	1.400313E-17	3.982214E-18
7.288283E+03	1.416142E-17	4.026136E-18
7.298186E+03	1.432057E-17	4.070279E-18
7.308088E+03	1.448090E-17	4.114729E-18
7.317991E+03	1.464205E-17	4.159387E-18
7.327894E+03	1.480465E-17	4.204428E-18
7.337796E+03	1.496870E-17	4.249856E-18
7.347699E+03	1.513454E-17	4.295763E-18
7.357601E+03	1.530220E-17	4.342160E-18
7.367504E+03	1.547167E-17	4.389044E-18
7.377406E+03	1.564334E-17	4.436522E-18
7.387309E+03	1.581650E-17	4.484396E-18
7.397211E+03	1.599117E-17	4.532669E-18
7.407114E+03	1.616695E-17	4.581231E-18
7.417017E+03	1.634424E-17	4.630188E-18
7.426919E+03	1.652263E-17	4.679430E-18
7.436822E+03	1.670174E-17	4.728846E-18
7.446724E+03	1.688151E-17	4.778419E-18
7.456627E+03	1.706193E-17	4.828147E-18
7.466529E+03	1.724254E-17	4.877901E-18
7.476432E+03	1.742374E-17	4.927789E-18
7.486334E+03	1.760462E-17	4.977562E-18
7.496237E+03	1.778597E-17	5.027437E-18
7.506140E+03	1.796732E-17	5.077283E-18
7.516042E+03	1.814861E-17	5.127082E-18
7.525945E+03	1.832934E-17	5.176693E-18
7.535847E+03	1.850984E-17	5.226213E-18
7.545750E+03	1.869006E-17	5.275626E-18
7.555652E+03	1.886991E-17	5.324904E-18
7.565555E+03	1.904884E-17	5.373895E-18
7.575457E+03	1.922721E-17	5.422701E-18
7.585360E+03	1.940444E-17	5.471157E-18
7.595263E+03	1.958137E-17	5.519502E-18
7.605165E+03	1.975643E-17	5.567291E-18
7.615068E+03	1.993098E-17	5.614910E-18
7.624970E+03	2.010439E-17	5.662180E-18
7.634873E+03	2.027603E-17	5.708927E-18
7.644775E+03	2.044624E-17	5.755245E-18
7.654678E+03	2.061489E-17	5.801099E-18
7.664581E+03	2.078184E-17	5.846449E-18
7.674483E+03	2.094695E-17	5.891256E-18
7.684386E+03	2.111058E-17	5.935623E-18
