#wls	flux	fluxerr
1.584409E+03	8.980367E-17	3.639398E-17
1.624020E+03	9.345930E-17	3.786058E-17
1.663630E+03	9.687217E-17	3.922693E-17
1.703240E+03	1.000021E-16	4.047679E-17
1.742850E+03	1.027758E-16	4.158058E-17
1.782461E+03	1.051094E-16	4.250446E-17
1.822071E+03	1.068699E-16	4.319487E-17
1.861681E+03	1.079244E-16	4.359842E-17
1.901291E+03	1.081238E-16	4.365523E-17
1.940902E+03	1.073426E-16	4.331525E-17
1.980512E+03	1.055263E-16	4.255715E-17
2.020122E+03	1.028229E-16	4.144135E-17
2.059732E+03	9.965619E-17	4.013929E-17
2.099342E+03	9.670905E-17	3.892626E-17
2.138953E+03	9.472661E-17	3.810185E-17
2.178563E+03	9.412897E-17	3.783417E-17
2.218173E+03	9.478731E-17	3.807027E-17
2.257783E+03	9.614559E-17	3.858582E-17
2.297394E+03	9.751663E-17	3.910453E-17
2.337004E+03	9.838415E-17	3.941948E-17
2.376614E+03	9.844355E-17	3.940918E-17
2.416224E+03	9.757881E-17	3.902805E-17
2.455835E+03	9.581108E-17	3.828554E-17
2.495445E+03	9.321827E-17	3.721381E-17
2.535055E+03	8.990355E-17	3.585503E-17
2.574665E+03	8.599300E-17	3.426040E-17
2.614276E+03	8.159646E-17	3.247449E-17
2.653886E+03	7.682849E-17	3.054362E-17
2.693496E+03	7.178910E-17	2.850816E-17
2.733106E+03	6.658222E-17	2.640988E-17
2.772716E+03	6.129804E-17	2.428495E-17
2.812327E+03	5.602580E-17	2.216899E-17
2.851937E+03	5.084850E-17	2.009499E-17
2.891547E+03	4.584171E-17	1.809283E-17
2.931157E+03	4.107156E-17	1.618853E-17
2.970768E+03	3.659233E-17	1.440327E-17
2.980670E+03	3.552270E-17	1.397738E-17
2.990573E+03	3.447468E-17	1.356025E-17
3.000475E+03	3.344776E-17	1.315168E-17
3.010378E+03	3.244366E-17	1.275233E-17
3.020280E+03	3.146179E-17	1.236198E-17
3.030183E+03	3.050230E-17	1.198066E-17
3.040086E+03	2.956568E-17	1.160857E-17
3.049988E+03	2.865432E-17	1.124664E-17
3.059891E+03	2.776800E-17	1.089476E-17
3.069793E+03	2.690722E-17	1.055314E-17
3.079696E+03	2.607083E-17	1.022131E-17
3.089598E+03	2.525886E-17	9.899269E-18
3.099501E+03	2.447077E-17	9.586801E-18
3.109403E+03	2.370612E-17	9.283726E-18
3.119306E+03	2.296450E-17	8.989869E-18
3.129209E+03	2.224591E-17	8.705232E-18
3.139111E+03	2.154957E-17	8.429490E-18
3.149014E+03	2.087547E-17	8.162643E-18
3.158916E+03	2.022326E-17	7.904533E-18
3.168819E+03	1.959253E-17	7.655002E-18
3.178721E+03	1.898326E-17	7.414026E-18
3.188624E+03	1.839438E-17	7.181186E-18
3.198526E+03	1.782648E-17	6.956699E-18
3.208429E+03	1.727822E-17	6.740038E-18
3.218332E+03	1.675011E-17	6.531388E-18
3.228234E+03	1.624114E-17	6.330353E-18
3.238137E+03	1.575118E-17	6.136874E-18
3.248039E+03	1.527980E-17	5.950772E-18
3.257942E+03	1.482633E-17	5.771784E-18
3.267844E+03	1.439081E-17	5.599913E-18
3.277747E+03	1.397236E-17	5.434809E-18
3.287650E+03	1.357054E-17	5.276297E-18
3.297552E+03	1.318534E-17	5.124365E-18
3.307455E+03	1.281590E-17	4.978674E-18
3.317357E+03	1.246182E-17	4.839057E-18
3.327260E+03	1.212268E-17	4.705343E-18
3.337162E+03	1.179820E-17	4.577426E-18
3.347065E+03	1.148765E-17	4.455006E-18
3.356967E+03	1.119062E-17	4.337924E-18
3.366870E+03	1.090686E-17	4.226075E-18
3.376773E+03	1.063583E-17	4.119244E-18
3.386675E+03	1.037713E-17	4.017271E-18
3.396578E+03	1.013012E-17	3.919903E-18
3.406480E+03	9.894576E-18	3.827047E-18
3.416383E+03	9.670150E-18	3.738563E-18
3.426285E+03	9.456252E-18	3.654217E-18
3.436188E+03	9.252562E-18	3.573882E-18
3.446090E+03	9.058666E-18	3.497393E-18
3.455993E+03	8.874369E-18	3.424670E-18
3.465896E+03	8.699079E-18	3.355479E-18
3.475798E+03	8.532629E-18	3.289753E-18
3.485701E+03	8.374566E-18	3.227312E-18
3.495603E+03	8.224564E-18	3.168026E-18
3.505506E+03	8.082311E-18	3.111771E-18
3.515408E+03	7.947416E-18	3.058394E-18
3.525311E+03	7.819701E-18	3.007822E-18
3.535213E+03	7.698723E-18	2.959881E-18
3.545116E+03	7.584246E-18	2.914476E-18
3.555019E+03	7.476118E-18	2.871547E-18
3.564921E+03	7.374039E-18	2.830975E-18
3.574824E+03	7.277797E-18	2.792675E-18
3.584726E+03	7.187123E-18	2.756542E-18
3.594629E+03	7.101759E-18	2.722473E-18
3.604531E+03	7.021539E-18	2.690403E-18
3.614434E+03	6.946155E-18	2.660209E-18
3.624337E+03	6.875535E-18	2.631863E-18
3.634239E+03	6.809395E-18	2.605253E-18
3.644142E+03	6.747599E-18	2.580326E-18
3.654044E+03	6.690087E-18	2.557054E-18
3.663947E+03	6.636608E-18	2.535342E-18
3.673849E+03	6.587037E-18	2.515137E-18
3.683752E+03	6.541392E-18	2.496446E-18
3.693654E+03	6.499485E-18	2.479194E-18
3.703557E+03	6.461212E-18	2.463340E-18
3.713460E+03	6.426578E-18	2.448884E-18
3.723362E+03	6.395413E-18	2.435759E-18
3.733265E+03	6.367670E-18	2.423944E-18
3.743167E+03	6.343345E-18	2.413437E-18
3.753070E+03	6.322338E-18	2.404199E-18
3.762972E+03	6.304594E-18	2.396204E-18
3.772875E+03	6.290065E-18	2.389435E-18
3.782777E+03	6.278695E-18	2.383867E-18
3.792680E+03	6.270489E-18	2.379502E-18
3.802583E+03	6.265344E-18	2.376297E-18
3.812485E+03	6.263261E-18	2.374251E-18
3.822388E+03	6.264244E-18	2.373366E-18
3.832290E+03	6.268191E-18	2.373598E-18
3.842193E+03	6.275051E-18	2.374929E-18
3.852095E+03	6.284881E-18	2.377378E-18
3.861998E+03	6.297626E-18	2.380921E-18
3.871900E+03	6.313189E-18	2.385521E-18
3.881803E+03	6.331622E-18	2.391196E-18
3.891706E+03	6.352918E-18	2.397942E-18
3.901608E+03	6.376922E-18	2.405698E-18
3.911511E+03	6.403685E-18	2.414481E-18
3.921413E+03	6.433203E-18	2.424289E-18
3.931316E+03	6.465417E-18	2.435098E-18
3.941218E+03	6.500212E-18	2.446862E-18
3.951121E+03	6.537684E-18	2.459618E-18
3.961024E+03	6.577719E-18	2.473318E-18
3.970926E+03	6.620248E-18	2.487938E-18
3.980829E+03	6.665317E-18	2.503491E-18
3.990731E+03	6.712802E-18	2.519931E-18
4.000634E+03	6.762743E-18	2.537270E-18
4.010536E+03	6.814960E-18	2.555440E-18
4.020439E+03	6.869551E-18	2.574476E-18
4.030341E+03	6.926388E-18	2.594328E-18
4.040244E+03	6.985402E-18	2.614971E-18
4.050147E+03	7.046632E-18	2.636415E-18
4.060049E+03	7.109901E-18	2.658595E-18
4.069952E+03	7.175308E-18	2.681546E-18
4.079854E+03	7.242669E-18	2.705197E-18
4.089757E+03	7.311977E-18	2.729546E-18
4.099659E+03	7.383218E-18	2.754586E-18
4.109562E+03	7.456274E-18	2.780271E-18
4.119464E+03	7.531140E-18	2.806598E-18
4.129367E+03	7.607743E-18	2.833541E-18
4.139270E+03	7.685971E-18	2.861054E-18
4.149172E+03	7.765874E-18	2.889158E-18
4.159075E+03	7.847264E-18	2.917779E-18
4.168977E+03	7.930215E-18	2.946946E-18
4.178880E+03	8.014533E-18	2.976585E-18
4.188782E+03	8.100218E-18	3.006696E-18
4.198685E+03	8.187208E-18	3.037254E-18
4.208587E+03	8.275313E-18	3.068188E-18
4.218490E+03	8.364598E-18	3.099523E-18
4.228393E+03	8.454939E-18	3.131211E-18
4.238295E+03	8.546198E-18	3.163201E-18
4.248198E+03	8.638247E-18	3.195445E-18
4.258100E+03	8.731084E-18	3.227942E-18
4.268003E+03	8.824650E-18	3.260670E-18
4.277905E+03	8.918670E-18	3.293527E-18
4.287808E+03	9.013217E-18	3.326540E-18
4.297711E+03	9.108010E-18	3.359605E-18
4.307613E+03	9.203131E-18	3.392752E-18
4.317516E+03	9.298370E-18	3.425904E-18
4.327418E+03	9.393735E-18	3.459064E-18
4.337321E+03	9.489246E-18	3.492240E-18
4.347223E+03	9.584911E-18	3.525434E-18
4.357126E+03	9.680753E-18	3.558655E-18
4.367028E+03	9.776856E-18	3.591935E-18
4.376931E+03	9.873324E-18	3.625310E-18
4.386834E+03	9.970173E-18	3.658788E-18
4.396736E+03	1.006751E-17	3.692407E-18
4.406639E+03	1.016528E-17	3.726149E-18
4.416541E+03	1.026369E-17	3.760088E-18
4.426444E+03	1.036270E-17	3.794206E-18
4.436346E+03	1.046233E-17	3.828517E-18
4.446249E+03	1.056265E-17	3.863039E-18
4.456151E+03	1.066368E-17	3.897789E-18
4.466054E+03	1.076549E-17	3.932783E-18
4.475957E+03	1.086813E-17	3.968042E-18
4.485859E+03	1.097145E-17	4.003511E-18
4.495762E+03	1.107571E-17	4.039283E-18
4.505664E+03	1.118075E-17	4.075303E-18
4.515567E+03	1.128664E-17	4.111592E-18
4.525469E+03	1.139333E-17	4.148134E-18
4.535372E+03	1.150099E-17	4.184985E-18
4.545274E+03	1.160956E-17	4.222128E-18
4.555177E+03	1.171891E-17	4.259513E-18
4.565080E+03	1.182929E-17	4.297233E-18
4.574982E+03	1.194058E-17	4.335237E-18
4.584885E+03	1.205271E-17	4.373507E-18
4.594787E+03	1.216587E-17	4.412106E-18
4.604690E+03	1.228012E-17	4.451055E-18
4.614592E+03	1.239522E-17	4.490265E-18
4.624495E+03	1.251144E-17	4.529840E-18
4.634398E+03	1.262876E-17	4.569769E-18
4.644300E+03	1.274717E-17	4.610041E-18
4.654203E+03	1.286675E-17	4.650692E-18
4.664105E+03	1.298749E-17	4.691714E-18
4.674008E+03	1.310949E-17	4.733146E-18
4.683910E+03	1.323253E-17	4.774901E-18
4.693813E+03	1.335671E-17	4.817021E-18
4.703715E+03	1.348219E-17	4.859555E-18
4.713618E+03	1.360859E-17	4.902375E-18
4.723521E+03	1.373619E-17	4.945573E-18
4.733423E+03	1.386487E-17	4.989107E-18
4.743326E+03	1.399452E-17	5.032941E-18
4.753228E+03	1.412543E-17	5.077172E-18
4.763131E+03	1.425721E-17	5.121661E-18
4.773033E+03	1.439027E-17	5.166555E-18
4.782936E+03	1.452422E-17	5.211714E-18
4.792838E+03	1.465933E-17	5.257235E-18
4.802741E+03	1.479533E-17	5.303018E-18
4.812644E+03	1.493252E-17	5.349167E-18
4.822546E+03	1.507059E-17	5.395574E-18
4.832449E+03	1.520968E-17	5.442288E-18
4.842351E+03	1.534979E-17	5.489308E-18
4.852254E+03	1.549076E-17	5.536577E-18
4.862156E+03	1.563259E-17	5.584087E-18
4.872059E+03	1.577524E-17	5.631831E-18
4.881961E+03	1.591885E-17	5.679858E-18
4.891864E+03	1.606311E-17	5.728048E-18
4.901767E+03	1.620827E-17	5.776501E-18
4.911669E+03	1.635402E-17	5.825096E-18
4.921572E+03	1.650045E-17	5.873870E-18
4.931474E+03	1.664737E-17	5.922752E-18
4.941377E+03	1.679471E-17	5.971719E-18
4.951279E+03	1.694241E-17	6.020744E-18
4.961182E+03	1.709053E-17	6.069855E-18
4.971085E+03	1.723867E-17	6.118902E-18
4.980987E+03	1.738687E-17	6.167902E-18
4.990890E+03	1.753482E-17	6.216748E-18
5.000792E+03	1.768256E-17	6.265450E-18
5.010695E+03	1.782975E-17	6.313886E-18
5.020597E+03	1.797603E-17	6.361931E-18
5.030500E+03	1.812136E-17	6.409572E-18
5.040402E+03	1.826554E-17	6.456736E-18
5.050305E+03	1.840814E-17	6.503274E-18
5.060208E+03	1.854873E-17	6.549032E-18
5.070110E+03	1.868740E-17	6.594046E-18
5.080013E+03	1.882351E-17	6.638086E-18
5.089915E+03	1.895673E-17	6.681042E-18
5.099818E+03	1.908677E-17	6.722812E-18
5.109720E+03	1.921330E-17	6.763279E-18
5.119623E+03	1.933580E-17	6.802264E-18
5.129525E+03	1.945411E-17	6.839714E-18
5.139428E+03	1.956750E-17	6.875372E-18
5.149331E+03	1.967580E-17	6.909184E-18
5.159233E+03	1.977825E-17	6.940887E-18
5.169136E+03	1.987489E-17	6.970491E-18
5.179038E+03	1.996491E-17	6.997727E-18
5.188941E+03	2.004816E-17	7.022534E-18
5.198843E+03	2.012381E-17	7.044638E-18
5.208746E+03	2.019169E-17	7.063975E-18
5.218648E+03	2.025140E-17	7.080412E-18
5.228551E+03	2.030213E-17	7.093676E-18
5.238454E+03	2.034351E-17	7.103637E-18
5.248356E+03	2.037536E-17	7.110243E-18
5.258259E+03	2.039714E-17	7.113308E-18
5.268161E+03	2.040831E-17	7.112654E-18
5.278064E+03	2.040860E-17	7.108189E-18
5.287966E+03	2.039775E-17	7.099836E-18
5.297869E+03	2.037558E-17	7.087536E-18
5.307772E+03	2.034176E-17	7.071184E-18
5.317674E+03	2.029645E-17	7.050840E-18
5.327577E+03	2.023947E-17	7.026453E-18
5.337479E+03	2.017114E-17	6.998141E-18
5.347382E+03	2.009149E-17	6.965922E-18
5.357284E+03	2.000124E-17	6.930051E-18
5.367187E+03	1.990101E-17	6.890752E-18
5.377089E+03	1.979113E-17	6.848149E-18
5.386992E+03	1.967284E-17	6.802674E-18
5.396895E+03	1.954688E-17	6.754587E-18
5.406797E+03	1.941329E-17	6.703914E-18
5.416700E+03	1.927359E-17	6.651180E-18
5.426602E+03	1.912840E-17	6.596604E-18
5.436505E+03	1.897841E-17	6.540429E-18
5.446407E+03	1.882456E-17	6.482984E-18
5.456310E+03	1.866766E-17	6.424546E-18
5.466212E+03	1.850852E-17	6.365400E-18
5.476115E+03	1.834837E-17	6.305971E-18
5.486018E+03	1.818809E-17	6.246558E-18
5.495920E+03	1.802907E-17	6.187641E-18
5.505823E+03	1.787250E-17	6.129630E-18
5.515725E+03	1.771938E-17	6.072862E-18
5.525628E+03	1.757100E-17	6.017779E-18
5.535530E+03	1.742841E-17	5.964735E-18
5.545433E+03	1.729259E-17	5.914062E-18
5.555335E+03	1.716462E-17	5.866125E-18
5.565238E+03	1.704529E-17	5.821190E-18
5.575141E+03	1.693533E-17	5.779494E-18
5.585043E+03	1.683548E-17	5.741291E-18
5.594946E+03	1.674626E-17	5.706745E-18
5.604848E+03	1.666823E-17	5.676037E-18
5.614751E+03	1.660165E-17	5.649254E-18
5.624653E+03	1.654671E-17	5.626451E-18
5.634556E+03	1.650368E-17	5.607706E-18
5.644459E+03	1.647256E-17	5.593015E-18
5.654361E+03	1.645328E-17	5.582342E-18
5.664264E+03	1.644590E-17	5.575701E-18
5.674166E+03	1.645024E-17	5.573019E-18
5.684069E+03	1.646626E-17	5.574279E-18
5.693971E+03	1.649359E-17	5.579340E-18
5.703874E+03	1.653233E-17	5.588234E-18
5.713776E+03	1.658211E-17	5.600821E-18
5.723679E+03	1.664270E-17	5.617021E-18
5.733582E+03	1.671430E-17	5.636885E-18
5.743484E+03	1.679638E-17	5.660236E-18
5.753387E+03	1.688919E-17	5.687138E-18
5.763289E+03	1.699262E-17	5.717554E-18
5.773192E+03	1.710660E-17	5.751453E-18
5.783094E+03	1.723092E-17	5.788748E-18
5.792997E+03	1.736591E-17	5.829548E-18
5.802899E+03	1.751138E-17	5.873778E-18
5.812802E+03	1.766753E-17	5.921495E-18
5.822705E+03	1.783434E-17	5.972691E-18
5.832607E+03	1.801165E-17	6.027294E-18
5.842510E+03	1.819965E-17	6.085363E-18
5.852412E+03	1.839854E-17	6.146957E-18
5.862315E+03	1.860789E-17	6.211924E-18
5.872217E+03	1.882789E-17	6.280313E-18
5.882120E+03	1.905847E-17	6.352098E-18
5.892022E+03	1.929977E-17	6.427316E-18
5.901925E+03	1.955128E-17	6.505784E-18
5.911828E+03	1.981331E-17	6.587598E-18
5.921730E+03	2.008524E-17	6.672547E-18
5.931633E+03	2.036713E-17	6.760640E-18
5.941535E+03	2.065876E-17	6.851792E-18
5.951438E+03	2.095964E-17	6.945836E-18
5.961340E+03	2.126974E-17	7.042751E-18
5.971243E+03	2.158823E-17	7.142257E-18
5.981146E+03	2.191526E-17	7.244397E-18
5.991048E+03	2.224966E-17	7.348776E-18
6.000951E+03	2.259152E-17	7.455414E-18
6.010853E+03	2.293982E-17	7.563973E-18
6.020756E+03	2.329432E-17	7.674366E-18
6.030658E+03	2.365392E-17	7.786222E-18
6.040561E+03	2.401799E-17	7.899337E-18
6.050463E+03	2.438563E-17	8.013402E-18
6.060366E+03	2.475613E-17	8.128188E-18
6.070269E+03	2.512820E-17	8.243264E-18
6.080171E+03	2.550076E-17	8.358280E-18
6.090074E+03	2.587306E-17	8.472983E-18
6.099976E+03	2.624397E-17	8.587008E-18
6.109879E+03	2.661175E-17	8.699785E-18
6.119781E+03	2.697556E-17	8.811042E-18
6.129684E+03	2.733427E-17	8.920416E-18
6.139586E+03	2.768710E-17	9.027657E-18
6.149489E+03	2.803368E-17	9.132644E-18
6.159392E+03	2.837369E-17	9.235286E-18
6.169294E+03	2.870727E-17	9.335626E-18
6.179197E+03	2.903538E-17	9.433990E-18
6.189099E+03	2.935802E-17	9.530378E-18
6.199002E+03	2.967487E-17	9.624691E-18
6.208904E+03	2.998720E-17	9.717346E-18
6.218807E+03	3.029524E-17	9.808426E-18
6.228709E+03	3.059848E-17	9.897763E-18
6.238612E+03	3.089845E-17	9.985860E-18
6.248515E+03	3.119431E-17	1.007245E-17
6.258417E+03	3.148732E-17	1.015794E-17
6.268320E+03	3.177710E-17	1.024221E-17
6.278222E+03	3.206416E-17	1.032543E-17
6.288125E+03	3.234857E-17	1.040761E-17
6.298027E+03	3.263044E-17	1.048881E-17
6.307930E+03	3.290987E-17	1.056906E-17
6.317833E+03	3.318652E-17	1.064823E-17
6.327735E+03	3.346001E-17	1.072623E-17
6.337638E+03	3.373090E-17	1.080322E-17
6.347540E+03	3.399833E-17	1.087894E-17
6.357443E+03	3.426288E-17	1.095357E-17
6.367345E+03	3.452412E-17	1.102699E-17
6.377248E+03	3.478214E-17	1.109921E-17
6.387150E+03	3.503754E-17	1.117044E-17
6.397053E+03	3.529148E-17	1.124104E-17
6.406956E+03	3.554410E-17	1.131107E-17
6.416858E+03	3.579610E-17	1.138074E-17
6.426761E+03	3.604822E-17	1.145029E-17
6.436663E+03	3.630010E-17	1.151962E-17
6.446566E+03	3.655305E-17	1.158912E-17
6.456468E+03	3.680732E-17	1.165889E-17
6.466371E+03	3.706254E-17	1.172880E-17
6.476273E+03	3.732009E-17	1.179929E-17
6.486176E+03	3.757963E-17	1.187025E-17
6.496079E+03	3.784077E-17	1.194156E-17
6.505981E+03	3.810491E-17	1.201365E-17
6.515884E+03	3.837166E-17	1.208641E-17
6.525786E+03	3.864122E-17	1.215988E-17
6.535689E+03	3.891439E-17	1.223433E-17
6.545591E+03	3.919008E-17	1.230940E-17
6.555494E+03	3.946844E-17	1.238515E-17
6.565396E+03	3.975088E-17	1.246200E-17
6.575299E+03	4.003622E-17	1.253960E-17
6.585202E+03	4.032454E-17	1.261796E-17
6.595104E+03	4.061657E-17	1.269731E-17
6.605007E+03	4.091169E-17	1.277745E-17
6.614909E+03	4.120993E-17	1.285839E-17
6.624812E+03	4.151198E-17	1.294035E-17
6.634714E+03	4.181643E-17	1.302287E-17
6.644617E+03	4.212320E-17	1.310595E-17
6.654520E+03	4.243367E-17	1.318999E-17
6.664422E+03	4.274632E-17	1.327454E-17
6.674325E+03	4.306101E-17	1.335954E-17
6.684227E+03	4.337839E-17	1.344520E-17
6.694130E+03	4.369754E-17	1.353123E-17
6.704032E+03	4.401831E-17	1.361758E-17
6.713935E+03	4.434051E-17	1.370420E-17
6.723837E+03	4.466395E-17	1.379102E-17
6.733740E+03	4.498762E-17	1.387774E-17
6.743643E+03	4.531211E-17	1.396453E-17
6.753545E+03	4.563719E-17	1.405134E-17
6.763448E+03	4.596180E-17	1.413783E-17
6.773350E+03	4.628655E-17	1.422420E-17
6.783253E+03	4.661034E-17	1.431010E-17
6.793155E+03	4.693292E-17	1.439546E-17
6.803058E+03	4.725403E-17	1.448022E-17
6.812960E+03	4.757255E-17	1.456402E-17
6.822863E+03	4.788998E-17	1.464733E-17
6.832766E+03	4.820521E-17	1.472983E-17
6.842668E+03	4.851709E-17	1.481114E-17
6.852571E+03	4.882630E-17	1.489150E-17
6.862473E+03	4.913167E-17	1.497055E-17
6.872376E+03	4.943297E-17	1.504823E-17
6.882278E+03	4.973093E-17	1.512476E-17
6.892181E+03	5.002439E-17	1.519979E-17
6.902083E+03	5.031314E-17	1.527328E-17
6.911986E+03	5.059701E-17	1.534517E-17
6.921889E+03	5.087580E-17	1.541542E-17
6.931791E+03	5.114838E-17	1.548368E-17
6.941694E+03	5.141659E-17	1.555052E-17
6.951596E+03	5.167834E-17	1.561532E-17
6.961499E+03	5.193350E-17	1.567805E-17
6.971401E+03	5.218304E-17	1.573901E-17
6.981304E+03	5.242590E-17	1.579788E-17
6.991207E+03	5.266207E-17	1.585468E-17
7.001109E+03	5.289158E-17	1.590942E-17
7.011012E+03	5.311449E-17	1.596212E-17
7.020914E+03	5.333197E-17	1.601316E-17
7.030817E+03	5.354205E-17	1.606194E-17
7.040719E+03	5.374489E-17	1.610852E-17
7.050622E+03	5.394179E-17	1.615331E-17
7.060524E+03	5.413301E-17	1.619638E-17
7.070427E+03	5.431777E-17	1.623752E-17
7.080330E+03	5.449750E-17	1.627715E-17
7.090232E+03	5.467033E-17	1.631474E-17
7.100135E+03	5.483888E-17	1.635107E-17
7.110037E+03	5.500244E-17	1.638593E-17
7.119940E+03	5.516142E-17	1.641946E-17
7.129842E+03	5.531511E-17	1.645145E-17
7.139745E+03	5.546622E-17	1.648271E-17
7.149647E+03	5.561285E-17	1.651269E-17
7.159550E+03	5.575655E-17	1.654186E-17
7.169453E+03	5.589650E-17	1.656998E-17
7.179355E+03	5.603420E-17	1.659750E-17
7.189258E+03	5.616871E-17	1.662414E-17
7.199160E+03	5.630026E-17	1.664999E-17
7.209063E+03	5.643016E-17	1.667544E-17
7.218965E+03	5.655731E-17	1.670016E-17
7.228868E+03	5.668294E-17	1.672452E-17
7.238770E+03	5.680458E-17	1.674782E-17
7.248673E+03	5.692334E-17	1.677037E-17
7.258576E+03	5.704029E-17	1.679250E-17
7.268478E+03	5.715284E-17	1.681346E-17
7.278381E+03	5.726199E-17	1.683354E-17
7.288283E+03	5.736631E-17	1.685233E-17
7.298186E+03	5.746683E-17	1.687015E-17
7.308088E+03	5.756215E-17	1.688659E-17
7.317991E+03	5.765210E-17	1.690160E-17
7.327894E+03	5.773659E-17	1.691518E-17
7.337796E+03	5.781431E-17	1.692693E-17
7.347699E+03	5.788526E-17	1.693688E-17
7.357601E+03	5.794953E-17	1.694506E-17
7.367504E+03	5.800725E-17	1.695151E-17
7.377406E+03	5.805994E-17	1.695669E-17
7.387309E+03	5.810661E-17	1.696031E-17
7.397211E+03	5.815019E-17	1.696324E-17
7.407114E+03	5.819108E-17	1.696559E-17
7.417017E+03	5.822968E-17	1.696750E-17
7.426919E+03	5.826638E-17	1.696908E-17
7.436822E+03	5.830151E-17	1.697043E-17
7.446724E+03	5.833796E-17	1.697240E-17
7.456627E+03	5.837308E-17	1.697422E-17
7.466529E+03	5.840818E-17	1.697627E-17
7.476432E+03	5.844315E-17	1.697852E-17
7.486334E+03	5.847927E-17	1.698132E-17
7.496237E+03	5.851368E-17	1.698386E-17
7.506140E+03	5.854763E-17	1.698650E-17
7.516042E+03	5.858103E-17	1.698919E-17
7.525945E+03	5.861519E-17	1.699232E-17
7.535847E+03	5.864729E-17	1.699508E-17
7.545750E+03	5.868009E-17	1.699826E-17
7.555652E+03	5.871221E-17	1.700146E-17
7.565555E+03	5.874231E-17	1.700428E-17
7.575457E+03	5.877320E-17	1.700754E-17
7.585360E+03	5.880358E-17	1.701086E-17
7.595263E+03	5.883353E-17	1.701427E-17
7.605165E+03	5.886311E-17	1.701777E-17
7.615068E+03	5.889242E-17	1.702139E-17
7.624970E+03	5.892150E-17	1.702515E-17
7.634873E+03	5.895186E-17	1.702947E-17
7.644775E+03	5.898064E-17	1.703353E-17
7.654678E+03	5.901072E-17	1.703817E-17
7.664581E+03	5.904063E-17	1.704294E-17
7.674483E+03	5.907029E-17	1.704782E-17
7.684386E+03	5.909961E-17	1.705280E-17
