#wls	flux	fluxerr
1.584409E+03	1.294811E-16	1.999063E-17
1.624020E+03	1.343363E-16	2.073903E-17
1.663630E+03	1.386787E-16	2.140811E-17
1.703240E+03	1.424410E-16	2.198748E-17
1.742850E+03	1.454976E-16	2.245776E-17
1.782461E+03	1.477565E-16	2.280476E-17
1.822071E+03	1.490090E-16	2.299630E-17
1.861681E+03	1.490998E-16	2.300843E-17
1.901291E+03	1.478494E-16	2.281352E-17
1.940902E+03	1.451038E-16	2.238784E-17
1.980512E+03	1.408882E-16	2.173533E-17
2.020122E+03	1.354460E-16	2.089365E-17
2.059732E+03	1.293874E-16	1.995694E-17
2.099342E+03	1.236493E-16	1.906976E-17
2.138953E+03	1.191708E-16	1.837692E-17
2.178563E+03	1.164155E-16	1.794983E-17
2.218173E+03	1.151272E-16	1.774890E-17
2.257783E+03	1.145454E-16	1.765683E-17
2.297394E+03	1.138460E-16	1.754653E-17
2.337004E+03	1.124711E-16	1.733205E-17
2.376614E+03	1.101353E-16	1.696946E-17
2.416224E+03	1.067929E-16	1.645180E-17
2.455835E+03	1.025209E-16	1.579099E-17
2.495445E+03	9.748038E-17	1.501195E-17
2.535055E+03	9.184449E-17	1.414140E-17
2.574665E+03	8.579528E-17	1.320744E-17
2.614276E+03	7.949148E-17	1.223455E-17
2.653886E+03	7.307705E-17	1.124492E-17
2.693496E+03	6.667873E-17	1.025811E-17
2.733106E+03	6.039953E-17	9.289956E-18
2.772716E+03	5.432786E-17	8.354080E-18
2.812327E+03	4.853546E-17	7.461512E-18
2.851937E+03	4.308184E-17	6.621388E-18
2.891547E+03	3.801411E-17	5.840930E-18
2.931157E+03	3.336462E-17	5.125085E-18
2.970768E+03	2.915178E-17	4.476644E-18
2.980670E+03	2.816744E-17	4.325161E-18
2.990573E+03	2.721002E-17	4.177830E-18
3.000475E+03	2.628044E-17	4.034793E-18
3.010378E+03	2.537712E-17	3.895805E-18
3.020280E+03	2.450084E-17	3.760988E-18
3.030183E+03	2.365114E-17	3.630270E-18
3.040086E+03	2.282830E-17	3.503691E-18
3.049988E+03	2.203174E-17	3.381162E-18
3.059891E+03	2.126307E-17	3.262931E-18
3.069793E+03	2.052039E-17	3.148703E-18
3.079696E+03	1.980357E-17	3.038462E-18
3.089598E+03	1.911172E-17	2.932065E-18
3.099501E+03	1.844360E-17	2.829325E-18
3.109403E+03	1.779919E-17	2.730238E-18
3.119306E+03	1.717743E-17	2.634637E-18
3.129209E+03	1.657794E-17	2.542468E-18
3.139111E+03	1.600005E-17	2.453624E-18
3.149014E+03	1.544307E-17	2.368001E-18
3.158916E+03	1.490667E-17	2.285547E-18
3.168819E+03	1.439019E-17	2.206158E-18
3.178721E+03	1.389275E-17	2.129701E-18
3.188624E+03	1.341428E-17	2.056165E-18
3.198526E+03	1.295410E-17	1.985443E-18
3.208429E+03	1.251199E-17	1.917502E-18
3.218332E+03	1.208751E-17	1.852273E-18
3.228234E+03	1.168001E-17	1.789657E-18
3.238137E+03	1.128943E-17	1.729644E-18
3.248039E+03	1.091494E-17	1.672106E-18
3.257942E+03	1.055640E-17	1.617021E-18
3.267844E+03	1.021332E-17	1.564312E-18
3.277747E+03	9.884877E-18	1.513854E-18
3.287650E+03	9.570916E-18	1.465623E-18
3.297552E+03	9.270932E-18	1.419541E-18
3.307455E+03	8.984317E-18	1.375513E-18
3.317357E+03	8.710612E-18	1.333470E-18
3.327260E+03	8.449369E-18	1.293341E-18
3.337162E+03	8.200151E-18	1.255060E-18
3.347065E+03	7.962519E-18	1.218560E-18
3.356967E+03	7.736053E-18	1.183774E-18
3.366870E+03	7.520239E-18	1.150625E-18
3.376773E+03	7.314586E-18	1.119036E-18
3.386675E+03	7.118898E-18	1.088977E-18
3.396578E+03	6.932532E-18	1.060350E-18
3.406480E+03	6.755220E-18	1.033112E-18
3.416383E+03	6.586533E-18	1.007199E-18
3.426285E+03	6.426146E-18	9.825598E-19
3.436188E+03	6.273589E-18	9.591223E-19
3.446090E+03	6.128498E-18	9.368304E-19
3.455993E+03	5.990598E-18	9.156419E-19
3.465896E+03	5.859491E-18	8.954956E-19
3.475798E+03	5.734935E-18	8.763541E-19
3.485701E+03	5.616448E-18	8.581438E-19
3.495603E+03	5.503833E-18	8.408339E-19
3.505506E+03	5.396722E-18	8.243681E-19
3.515408E+03	5.294835E-18	8.087033E-19
3.525311E+03	5.197905E-18	7.937985E-19
3.535213E+03	5.105580E-18	7.795999E-19
3.545116E+03	5.017739E-18	7.660883E-19
3.555019E+03	4.934111E-18	7.532226E-19
3.564921E+03	4.854444E-18	7.409641E-19
3.574824E+03	4.778643E-18	7.292977E-19
3.584726E+03	4.706430E-18	7.181813E-19
3.594629E+03	4.637639E-18	7.075888E-19
3.604531E+03	4.572107E-18	6.974957E-19
3.614434E+03	4.509686E-18	6.878790E-19
3.624337E+03	4.450237E-18	6.787173E-19
3.634239E+03	4.393624E-18	6.699897E-19
3.644142E+03	4.339759E-18	6.616828E-19
3.654044E+03	4.288561E-18	6.537839E-19
3.663947E+03	4.239909E-18	6.462745E-19
3.673849E+03	4.193836E-18	6.391595E-19
3.683752E+03	4.150187E-18	6.324151E-19
3.693654E+03	4.108957E-18	6.260404E-19
3.703557E+03	4.070064E-18	6.200229E-19
3.713460E+03	4.033464E-18	6.143554E-19
3.723362E+03	3.999176E-18	6.090409E-19
3.733265E+03	3.967048E-18	6.040562E-19
3.743167E+03	3.937097E-18	5.994037E-19
3.753070E+03	3.909307E-18	5.950806E-19
3.762972E+03	3.883557E-18	5.910686E-19
3.772875E+03	3.859863E-18	5.873699E-19
3.782777E+03	3.838205E-18	5.839812E-19
3.792680E+03	3.818498E-18	5.808896E-19
3.802583E+03	3.800690E-18	5.780871E-19
3.812485E+03	3.784824E-18	5.755799E-19
3.822388E+03	3.770787E-18	5.733509E-19
3.832290E+03	3.758588E-18	5.714012E-19
3.842193E+03	3.748177E-18	5.697231E-19
3.852095E+03	3.739536E-18	5.683135E-19
3.861998E+03	3.732642E-18	5.671692E-19
3.871900E+03	3.727417E-18	5.662780E-19
3.881803E+03	3.723846E-18	5.656374E-19
3.891706E+03	3.721938E-18	5.652487E-19
3.901608E+03	3.721649E-18	5.651052E-19
3.911511E+03	3.722931E-18	5.651994E-19
3.921413E+03	3.725769E-18	5.655289E-19
3.931316E+03	3.730118E-18	5.660865E-19
3.941218E+03	3.735959E-18	5.668696E-19
3.951121E+03	3.743279E-18	5.678757E-19
3.961024E+03	3.752061E-18	5.691023E-19
3.970926E+03	3.762235E-18	5.705387E-19
3.980829E+03	3.773787E-18	5.721826E-19
3.990731E+03	3.786708E-18	5.740323E-19
4.000634E+03	3.800986E-18	5.760862E-19
4.010536E+03	3.816587E-18	5.783386E-19
4.020439E+03	3.833472E-18	5.807839E-19
4.030341E+03	3.851638E-18	5.834211E-19
4.040244E+03	3.871049E-18	5.862450E-19
4.050147E+03	3.891704E-18	5.892550E-19
4.060049E+03	3.913567E-18	5.924457E-19
4.069952E+03	3.936634E-18	5.958163E-19
4.079854E+03	3.960869E-18	5.993611E-19
4.089757E+03	3.986238E-18	6.030751E-19
4.099659E+03	4.012736E-18	6.069572E-19
4.109562E+03	4.040330E-18	6.110023E-19
4.119464E+03	4.069016E-18	6.152096E-19
4.129367E+03	4.098730E-18	6.195696E-19
4.139270E+03	4.129473E-18	6.240819E-19
4.149172E+03	4.161181E-18	6.287370E-19
4.159075E+03	4.193889E-18	6.335399E-19
4.168977E+03	4.227534E-18	6.384810E-19
4.178880E+03	4.262119E-18	6.435606E-19
4.188782E+03	4.297544E-18	6.487637E-19
4.198685E+03	4.333847E-18	6.540955E-19
4.208587E+03	4.370924E-18	6.595404E-19
4.218490E+03	4.408807E-18	6.651033E-19
4.228393E+03	4.447394E-18	6.707683E-19
4.238295E+03	4.486610E-18	6.765243E-19
4.248198E+03	4.526488E-18	6.823759E-19
4.258100E+03	4.566882E-18	6.883012E-19
4.268003E+03	4.607827E-18	6.943054E-19
4.277905E+03	4.649179E-18	7.003665E-19
4.287808E+03	4.690972E-18	7.064896E-19
4.297711E+03	4.733135E-18	7.126640E-19
4.307613E+03	4.775595E-18	7.188785E-19
4.317516E+03	4.818351E-18	7.251330E-19
4.327418E+03	4.861367E-18	7.314219E-19
4.337321E+03	4.904680E-18	7.377509E-19
4.347223E+03	4.948213E-18	7.441079E-19
4.357126E+03	4.992043E-18	7.505049E-19
4.367028E+03	5.036175E-18	7.569423E-19
4.376931E+03	5.080609E-18	7.634199E-19
4.386834E+03	5.125351E-18	7.699387E-19
4.396736E+03	5.170445E-18	7.765053E-19
4.406639E+03	5.215857E-18	7.831142E-19
4.416541E+03	5.261639E-18	7.897735E-19
4.426444E+03	5.307806E-18	7.964851E-19
4.436346E+03	5.354371E-18	8.032509E-19
4.446249E+03	5.401305E-18	8.100663E-19
4.456151E+03	5.448621E-18	8.169334E-19
4.466054E+03	5.496285E-18	8.238468E-19
4.475957E+03	5.544354E-18	8.308152E-19
4.485859E+03	5.592746E-18	8.378259E-19
4.495762E+03	5.641467E-18	8.448799E-19
4.505664E+03	5.690526E-18	8.519783E-19
4.515567E+03	5.739831E-18	8.591073E-19
4.525469E+03	5.789438E-18	8.662751E-19
4.535372E+03	5.839257E-18	8.734684E-19
4.545274E+03	5.889298E-18	8.806883E-19
4.555177E+03	5.939469E-18	8.879211E-19
4.565080E+03	5.989838E-18	8.951768E-19
4.574982E+03	6.040373E-18	9.024506E-19
4.584885E+03	6.090987E-18	9.097294E-19
4.594787E+03	6.141704E-18	9.170166E-19
4.604690E+03	6.192550E-18	9.243162E-19
4.614592E+03	6.243497E-18	9.316239E-19
4.624495E+03	6.294468E-18	9.389279E-19
4.634398E+03	6.345601E-18	9.462489E-19
4.644300E+03	6.396934E-18	9.535926E-19
4.654203E+03	6.448395E-18	9.609477E-19
4.664105E+03	6.500026E-18	9.683209E-19
4.674008E+03	6.551874E-18	9.757188E-19
4.683910E+03	6.603810E-18	9.831223E-19
4.693813E+03	6.655886E-18	9.905387E-19
4.703715E+03	6.708029E-18	9.979574E-19
4.713618E+03	6.760296E-18	1.005387E-18
4.723521E+03	6.812681E-18	1.012825E-18
4.733423E+03	6.865118E-18	1.020264E-18
4.743326E+03	6.917667E-18	1.027711E-18
4.753228E+03	6.970265E-18	1.035157E-18
4.763131E+03	7.022974E-18	1.042611E-18
4.773033E+03	7.075736E-18	1.050064E-18
4.782936E+03	7.128553E-18	1.057517E-18
4.792838E+03	7.181428E-18	1.064971E-18
4.802741E+03	7.234433E-18	1.072435E-18
4.812644E+03	7.287503E-18	1.079899E-18
4.822546E+03	7.340641E-18	1.087365E-18
4.832449E+03	7.393780E-18	1.094822E-18
4.842351E+03	7.447059E-18	1.102291E-18
4.852254E+03	7.500408E-18	1.109761E-18
4.862156E+03	7.553820E-18	1.117231E-18
4.872059E+03	7.607215E-18	1.124690E-18
4.881961E+03	7.660649E-18	1.132144E-18
4.891864E+03	7.714032E-18	1.139582E-18
4.901767E+03	7.767344E-18	1.146999E-18
4.911669E+03	7.820637E-18	1.154404E-18
4.921572E+03	7.873822E-18	1.161784E-18
4.931474E+03	7.926881E-18	1.169135E-18
4.941377E+03	7.979722E-18	1.176444E-18
4.951279E+03	8.032394E-18	1.183718E-18
4.961182E+03	8.084875E-18	1.190954E-18
4.971085E+03	8.137060E-18	1.198136E-18
4.980987E+03	8.188912E-18	1.205260E-18
4.990890E+03	8.240391E-18	1.212318E-18
5.000792E+03	8.291379E-18	1.219293E-18
5.010695E+03	8.341910E-18	1.226192E-18
5.020597E+03	8.391939E-18	1.233006E-18
5.030500E+03	8.441260E-18	1.239706E-18
5.040402E+03	8.489911E-18	1.246297E-18
5.050305E+03	8.537855E-18	1.252774E-18
5.060208E+03	8.584969E-18	1.259119E-18
5.070110E+03	8.631226E-18	1.265328E-18
5.080013E+03	8.676602E-18	1.271398E-18
5.089915E+03	8.721073E-18	1.277325E-18
5.099818E+03	8.764536E-18	1.283094E-18
5.109720E+03	8.807067E-18	1.288717E-18
5.119623E+03	8.848474E-18	1.294165E-18
5.129525E+03	8.888818E-18	1.299448E-18
5.139428E+03	8.927985E-18	1.304549E-18
5.149331E+03	8.965942E-18	1.309463E-18
5.159233E+03	9.002647E-18	1.314184E-18
5.169136E+03	9.038055E-18	1.318707E-18
5.179038E+03	9.071935E-18	1.322997E-18
5.188941E+03	9.104398E-18	1.327071E-18
5.198843E+03	9.135280E-18	1.330906E-18
5.208746E+03	9.164503E-18	1.334490E-18
5.218648E+03	9.191872E-18	1.337795E-18
5.228551E+03	9.217276E-18	1.340805E-18
5.238454E+03	9.240607E-18	1.343506E-18
5.248356E+03	9.261761E-18	1.345881E-18
5.258259E+03	9.280640E-18	1.347919E-18
5.268161E+03	9.297058E-18	1.349591E-18
5.278064E+03	9.311128E-18	1.350915E-18
5.287966E+03	9.322606E-18	1.351857E-18
5.297869E+03	9.331440E-18	1.352408E-18
5.307772E+03	9.337788E-18	1.352593E-18
5.317674E+03	9.341448E-18	1.352382E-18
5.327577E+03	9.342595E-18	1.351803E-18
5.337479E+03	9.341134E-18	1.350841E-18
5.347382E+03	9.337158E-18	1.349511E-18
5.357284E+03	9.330582E-18	1.347800E-18
5.367187E+03	9.321617E-18	1.345741E-18
5.377089E+03	9.310199E-18	1.343324E-18
5.386992E+03	9.296457E-18	1.340569E-18
5.396895E+03	9.280266E-18	1.337458E-18
5.406797E+03	9.261784E-18	1.334014E-18
5.416700E+03	9.240991E-18	1.330236E-18
5.426602E+03	9.217883E-18	1.326123E-18
5.436505E+03	9.192649E-18	1.321702E-18
5.446407E+03	9.165206E-18	1.316964E-18
5.456310E+03	9.135578E-18	1.311911E-18
5.466212E+03	9.103893E-18	1.306563E-18
5.476115E+03	9.070089E-18	1.300911E-18
5.486018E+03	9.034394E-18	1.294989E-18
5.495920E+03	8.996665E-18	1.288777E-18
5.505823E+03	8.957220E-18	1.282320E-18
5.515725E+03	8.916101E-18	1.275626E-18
5.525628E+03	8.873352E-18	1.268701E-18
5.535530E+03	8.829106E-18	1.261565E-18
5.545433E+03	8.783491E-18	1.254236E-18
5.555335E+03	8.736544E-18	1.246720E-18
5.565238E+03	8.688564E-18	1.239060E-18
5.575141E+03	8.639481E-18	1.231246E-18
5.585043E+03	8.589571E-18	1.223319E-18
5.594946E+03	8.538755E-18	1.215267E-18
5.604848E+03	8.487298E-18	1.207129E-18
5.614751E+03	8.435289E-18	1.198917E-18
5.624653E+03	8.382720E-18	1.190629E-18
5.634556E+03	8.329754E-18	1.182291E-18
5.644459E+03	8.276459E-18	1.173911E-18
5.654361E+03	8.222989E-18	1.165512E-18
5.664264E+03	8.169401E-18	1.157101E-18
5.674166E+03	8.115669E-18	1.148676E-18
5.684069E+03	8.062015E-18	1.140267E-18
5.693971E+03	8.008497E-18	1.131883E-18
5.703874E+03	7.955083E-18	1.123520E-18
5.713776E+03	7.901909E-18	1.115196E-18
5.723679E+03	7.849111E-18	1.106932E-18
5.733582E+03	7.796737E-18	1.098733E-18
5.743484E+03	7.744752E-18	1.090594E-18
5.753387E+03	7.693299E-18	1.082536E-18
5.763289E+03	7.642516E-18	1.074579E-18
5.773192E+03	7.592457E-18	1.066728E-18
5.783094E+03	7.543097E-18	1.058982E-18
5.792997E+03	7.494576E-18	1.051359E-18
5.802899E+03	7.446951E-18	1.043867E-18
5.812802E+03	7.400371E-18	1.036527E-18
5.822705E+03	7.354908E-18	1.029348E-18
5.832607E+03	7.310545E-18	1.022329E-18
5.842510E+03	7.267436E-18	1.015489E-18
5.852412E+03	7.225568E-18	1.008828E-18
5.862315E+03	7.185245E-18	1.002386E-18
5.872217E+03	7.146276E-18	9.961376E-19
5.882120E+03	7.108790E-18	9.900995E-19
5.892022E+03	7.072907E-18	9.842882E-19
5.901925E+03	7.038580E-18	9.786966E-19
5.911828E+03	7.005837E-18	9.733282E-19
5.921730E+03	6.974782E-18	9.681968E-19
5.931633E+03	6.945353E-18	9.632934E-19
5.941535E+03	6.917643E-18	9.586303E-19
5.951438E+03	6.891503E-18	9.541863E-19
5.961340E+03	6.867100E-18	9.499839E-19
5.971243E+03	6.844276E-18	9.460007E-19
5.981146E+03	6.823193E-18	9.422586E-19
5.991048E+03	6.803606E-18	9.387233E-19
6.000951E+03	6.785669E-18	9.354153E-19
6.010853E+03	6.769297E-18	9.323224E-19
6.020756E+03	6.754477E-18	9.294422E-19
6.030658E+03	6.741036E-18	9.267504E-19
6.040561E+03	6.729120E-18	9.242665E-19
6.050463E+03	6.718470E-18	9.219545E-19
6.060366E+03	6.709227E-18	9.198332E-19
6.070269E+03	6.701127E-18	9.178660E-19
6.080171E+03	6.694146E-18	9.160489E-19
6.090074E+03	6.688175E-18	9.143668E-19
6.099976E+03	6.683186E-18	9.128156E-19
6.109879E+03	6.678898E-18	9.113563E-19
6.119781E+03	6.675278E-18	9.099843E-19
6.129684E+03	6.672204E-18	9.086826E-19
6.139586E+03	6.669636E-18	9.074456E-19
6.149489E+03	6.667532E-18	9.062674E-19
6.159392E+03	6.666023E-18	9.051654E-19
6.169294E+03	6.665322E-18	9.041685E-19
6.179197E+03	6.665479E-18	9.032832E-19
6.189099E+03	6.666635E-18	9.025279E-19
6.199002E+03	6.668927E-18	9.019210E-19
6.208904E+03	6.672419E-18	9.014704E-19
6.218807E+03	6.677257E-18	9.011956E-19
6.228709E+03	6.683509E-18	9.011049E-19
6.238612E+03	6.691244E-18	9.012072E-19
6.248515E+03	6.700630E-18	9.015242E-19
6.258417E+03	6.711651E-18	9.020533E-19
6.268320E+03	6.724483E-18	9.028173E-19
6.278222E+03	6.739028E-18	9.038020E-19
6.288125E+03	6.755373E-18	9.050185E-19
6.298027E+03	6.773514E-18	9.064656E-19
6.307930E+03	6.793549E-18	9.081553E-19
6.317833E+03	6.815382E-18	9.100740E-19
6.327735E+03	6.839016E-18	9.122211E-19
6.337638E+03	6.864355E-18	9.145832E-19
6.347540E+03	6.891200E-18	9.171328E-19
6.357443E+03	6.919448E-18	9.198556E-19
6.367345E+03	6.949094E-18	9.227501E-19
6.377248E+03	6.980133E-18	9.258150E-19
6.387150E+03	7.012561E-18	9.290492E-19
6.397053E+03	7.046482E-18	9.324655E-19
6.406956E+03	7.082004E-18	9.360774E-19
6.416858E+03	7.119131E-18	9.398849E-19
6.426761E+03	7.157762E-18	9.438735E-19
6.436663E+03	7.198121E-18	9.480722E-19
6.446566E+03	7.240221E-18	9.524817E-19
6.456468E+03	7.283963E-18	9.570878E-19
6.466371E+03	7.329469E-18	9.619061E-19
6.476273E+03	7.376755E-18	9.669375E-19
6.486176E+03	7.425721E-18	9.721679E-19
6.496079E+03	7.476378E-18	9.775979E-19
6.505981E+03	7.528980E-18	9.832597E-19
6.515884E+03	7.583186E-18	9.891078E-19
6.525786E+03	7.639252E-18	9.951745E-19
6.535689E+03	7.697198E-18	1.001462E-18
6.545591E+03	7.756793E-18	1.007938E-18
6.555494E+03	7.818305E-18	1.014637E-18
6.565396E+03	7.881497E-18	1.021528E-18
6.575299E+03	7.946643E-18	1.028644E-18
6.585202E+03	8.013500E-18	1.035953E-18
6.595104E+03	8.082215E-18	1.043474E-18
6.605007E+03	8.152808E-18	1.051207E-18
6.614909E+03	8.225158E-18	1.059135E-18
6.624812E+03	8.299278E-18	1.067261E-18
6.634714E+03	8.375325E-18	1.075602E-18
6.644617E+03	8.453176E-18	1.084142E-18
6.654520E+03	8.532847E-18	1.092881E-18
6.664422E+03	8.614354E-18	1.101821E-18
6.674325E+03	8.697717E-18	1.110963E-18
6.684227E+03	8.782955E-18	1.120308E-18
6.694130E+03	8.870088E-18	1.129857E-18
6.704032E+03	8.958979E-18	1.139593E-18
6.713935E+03	9.049802E-18	1.149535E-18
6.723837E+03	9.142577E-18	1.159686E-18
6.733740E+03	9.237159E-18	1.170026E-18
6.743643E+03	9.333744E-18	1.180577E-18
6.753545E+03	9.432163E-18	1.191319E-18
6.763448E+03	9.532443E-18	1.202252E-18
6.773350E+03	9.634600E-18	1.213378E-18
6.783253E+03	9.738641E-18	1.224696E-18
6.793155E+03	9.844777E-18	1.236232E-18
6.803058E+03	9.952648E-18	1.247938E-18
6.812960E+03	1.006246E-17	1.259841E-18
6.822863E+03	1.017423E-17	1.271940E-18
6.832766E+03	1.028778E-17	1.284212E-18
6.842668E+03	1.040332E-17	1.296681E-18
6.852571E+03	1.052088E-17	1.309350E-18
6.862473E+03	1.064025E-17	1.322193E-18
6.872376E+03	1.076146E-17	1.335211E-18
6.882278E+03	1.088471E-17	1.348428E-18
6.892181E+03	1.100983E-17	1.361820E-18
6.902083E+03	1.113680E-17	1.375386E-18
6.911986E+03	1.126563E-17	1.389125E-18
6.921889E+03	1.139634E-17	1.403037E-18
6.931791E+03	1.152870E-17	1.417093E-18
6.941694E+03	1.166316E-17	1.431346E-18
6.951596E+03	1.179927E-17	1.445742E-18
6.961499E+03	1.193725E-17	1.460305E-18
6.971401E+03	1.207688E-17	1.475007E-18
6.981304E+03	1.221815E-17	1.489845E-18
6.991207E+03	1.236128E-17	1.504846E-18
7.001109E+03	1.250604E-17	1.519980E-18
7.011012E+03	1.265216E-17	1.535212E-18
7.020914E+03	1.280014E-17	1.550603E-18
7.030817E+03	1.294969E-17	1.566117E-18
7.040719E+03	1.310057E-17	1.581721E-18
7.050622E+03	1.325300E-17	1.597443E-18
7.060524E+03	1.340669E-17	1.613248E-18
7.070427E+03	1.356190E-17	1.629163E-18
7.080330E+03	1.371833E-17	1.645153E-18
7.090232E+03	1.387623E-17	1.661247E-18
7.100135E+03	1.403500E-17	1.677372E-18
7.110037E+03	1.419491E-17	1.693558E-18
7.119940E+03	1.435620E-17	1.709834E-18
7.129842E+03	1.451826E-17	1.726127E-18
7.139745E+03	1.468103E-17	1.742429E-18
7.149647E+03	1.484479E-17	1.758772E-18
7.159550E+03	1.500951E-17	1.775150E-18
7.169453E+03	1.517482E-17	1.791522E-18
7.179355E+03	1.534100E-17	1.807919E-18
7.189258E+03	1.550768E-17	1.824296E-18
7.199160E+03	1.567481E-17	1.840647E-18
7.209063E+03	1.584265E-17	1.857004E-18
7.218965E+03	1.601082E-17	1.873318E-18
7.228868E+03	1.617957E-17	1.889622E-18
7.238770E+03	1.634850E-17	1.905866E-18
7.248673E+03	1.651749E-17	1.922039E-18
7.258576E+03	1.668721E-17	1.938215E-18
7.268478E+03	1.685686E-17	1.954301E-18
7.278381E+03	1.702706E-17	1.970372E-18
7.288283E+03	1.719739E-17	1.986378E-18
7.298186E+03	1.736818E-17	2.002355E-18
7.308088E+03	1.753977E-17	2.018343E-18
7.317991E+03	1.771173E-17	2.034292E-18
7.327894E+03	1.788483E-17	2.050291E-18
7.337796E+03	1.805909E-17	2.066340E-18
7.347699E+03	1.823494E-17	2.082487E-18
7.357601E+03	1.841239E-17	2.098735E-18
7.367504E+03	1.859150E-17	2.115087E-18
7.377406E+03	1.877274E-17	2.131596E-18
7.387309E+03	1.895529E-17	2.148168E-18
7.397211E+03	1.913918E-17	2.164806E-18
7.407114E+03	1.932400E-17	2.181464E-18
7.417017E+03	1.951025E-17	2.198194E-18
7.426919E+03	1.969749E-17	2.214950E-18
7.436822E+03	1.988532E-17	2.231684E-18
7.446724E+03	2.007372E-17	2.248395E-18
7.456627E+03	2.026274E-17	2.265087E-18
7.466529E+03	2.045192E-17	2.281708E-18
7.476432E+03	2.064176E-17	2.298317E-18
7.486334E+03	2.083135E-17	2.314809E-18
7.496237E+03	2.102172E-17	2.331300E-18
7.506140E+03	2.121243E-17	2.347743E-18
7.516042E+03	2.140357E-17	2.364145E-18
7.525945E+03	2.159466E-17	2.380454E-18
7.535847E+03	2.178623E-17	2.396730E-18
7.545750E+03	2.197831E-17	2.412975E-18
7.555652E+03	2.217089E-17	2.429188E-18
7.565555E+03	2.236335E-17	2.445301E-18
7.575457E+03	2.255615E-17	2.461365E-18
7.585360E+03	2.274864E-17	2.477309E-18
7.595263E+03	2.294179E-17	2.493238E-18
7.605165E+03	2.313371E-17	2.508948E-18
7.615068E+03	2.332594E-17	2.524607E-18
7.624970E+03	2.351774E-17	2.540133E-18
7.634873E+03	2.370828E-17	2.555439E-18
7.644775E+03	2.389795E-17	2.570567E-18
7.654678E+03	2.408653E-17	2.585493E-18
7.664581E+03	2.427374E-17	2.600192E-18
7.674483E+03	2.445938E-17	2.614639E-18
7.684386E+03	2.464378E-17	2.628874E-18
