#wls	flux	fluxerr
1.584409E+03	4.844028E-17	1.774175E-17
1.624020E+03	5.061267E-17	1.852275E-17
1.663630E+03	5.265868E-17	1.925592E-17
1.703240E+03	5.453777E-17	1.992652E-17
1.742850E+03	5.622735E-17	2.052639E-17
1.782461E+03	5.766270E-17	2.103207E-17
1.822071E+03	5.877292E-17	2.141792E-17
1.861681E+03	5.948678E-17	2.165830E-17
1.901291E+03	5.970912E-17	2.171895E-17
1.940902E+03	5.937332E-17	2.157616E-17
1.980512E+03	5.845158E-17	2.122042E-17
2.020122E+03	5.702836E-17	2.068299E-17
2.059732E+03	5.532994E-17	2.004644E-17
2.099342E+03	5.374398E-17	1.945141E-17
2.138953E+03	5.268915E-17	1.904916E-17
2.178563E+03	5.239765E-17	1.892296E-17
2.218173E+03	5.279725E-17	1.904583E-17
2.257783E+03	5.357798E-17	1.930524E-17
2.297394E+03	5.436232E-17	1.956481E-17
2.337004E+03	5.487087E-17	1.972407E-17
2.376614E+03	5.493870E-17	1.972414E-17
2.416224E+03	5.450523E-17	1.954388E-17
2.455835E+03	5.358556E-17	1.918937E-17
2.495445E+03	5.221823E-17	1.867511E-17
2.535055E+03	5.046473E-17	1.802370E-17
2.574665E+03	4.838812E-17	1.725825E-17
2.614276E+03	4.605358E-17	1.640251E-17
2.653886E+03	4.351877E-17	1.547743E-17
2.693496E+03	4.083902E-17	1.450304E-17
2.733106E+03	3.806542E-17	1.349777E-17
2.772716E+03	3.524500E-17	1.247851E-17
2.812327E+03	3.242172E-17	1.146094E-17
2.851937E+03	2.963733E-17	1.045991E-17
2.891547E+03	2.692961E-17	9.488743E-18
2.931157E+03	2.433237E-17	8.559291E-18
2.970768E+03	2.187332E-17	7.681175E-18
2.980670E+03	2.128333E-17	7.470763E-18
2.990573E+03	2.070308E-17	7.263933E-18
3.000475E+03	2.013364E-17	7.061057E-18
3.010378E+03	1.957466E-17	6.862009E-18
3.020280E+03	1.902666E-17	6.666966E-18
3.030183E+03	1.849010E-17	6.476085E-18
3.040086E+03	1.796444E-17	6.289173E-18
3.049988E+03	1.745155E-17	6.106882E-18
3.059891E+03	1.695129E-17	5.929158E-18
3.069793E+03	1.646401E-17	5.756117E-18
3.079696E+03	1.598905E-17	5.587523E-18
3.089598E+03	1.552614E-17	5.423278E-18
3.099501E+03	1.507568E-17	5.263514E-18
3.109403E+03	1.463683E-17	5.107938E-18
3.119306E+03	1.421027E-17	4.956780E-18
3.129209E+03	1.379501E-17	4.809688E-18
3.139111E+03	1.339168E-17	4.666880E-18
3.149014E+03	1.299965E-17	4.528129E-18
3.158916E+03	1.261926E-17	4.393551E-18
3.168819E+03	1.225014E-17	4.263010E-18
3.178721E+03	1.189239E-17	4.136540E-18
3.188624E+03	1.154587E-17	4.014081E-18
3.198526E+03	1.121045E-17	3.895587E-18
3.208429E+03	1.088580E-17	3.780939E-18
3.218332E+03	1.057215E-17	3.670213E-18
3.228234E+03	1.026918E-17	3.563290E-18
3.238137E+03	9.976883E-18	3.460163E-18
3.248039E+03	9.694938E-18	3.360717E-18
3.257942E+03	9.423164E-18	3.264885E-18
3.267844E+03	9.161538E-18	3.172655E-18
3.277747E+03	8.909713E-18	3.083900E-18
3.287650E+03	8.667632E-18	2.998597E-18
3.297552E+03	8.435080E-18	2.916668E-18
3.307455E+03	8.211597E-18	2.837948E-18
3.317357E+03	7.997219E-18	2.762445E-18
3.327260E+03	7.791605E-18	2.690039E-18
3.337162E+03	7.594538E-18	2.620648E-18
3.347065E+03	7.405795E-18	2.554194E-18
3.356967E+03	7.224968E-18	2.490530E-18
3.366870E+03	7.052035E-18	2.429645E-18
3.376773E+03	6.886694E-18	2.371432E-18
3.386675E+03	6.728642E-18	2.315782E-18
3.396578E+03	6.577674E-18	2.262622E-18
3.406480E+03	6.433600E-18	2.211883E-18
3.416383E+03	6.296064E-18	2.163437E-18
3.426285E+03	6.164962E-18	2.117248E-18
3.436188E+03	6.039971E-18	2.073200E-18
3.446090E+03	5.920924E-18	2.031233E-18
3.455993E+03	5.807592E-18	1.991266E-18
3.465896E+03	5.699757E-18	1.953220E-18
3.475798E+03	5.597214E-18	1.917023E-18
3.485701E+03	5.499766E-18	1.882606E-18
3.495603E+03	5.407169E-18	1.849880E-18
3.505506E+03	5.319195E-18	1.818766E-18
3.515408E+03	5.235686E-18	1.789208E-18
3.525311E+03	5.156438E-18	1.761133E-18
3.535213E+03	5.081311E-18	1.734492E-18
3.545116E+03	5.010072E-18	1.709202E-18
3.555019E+03	4.942600E-18	1.685220E-18
3.564921E+03	4.878732E-18	1.662490E-18
3.574824E+03	4.818412E-18	1.640988E-18
3.584726E+03	4.761440E-18	1.620647E-18
3.594629E+03	4.707722E-18	1.601431E-18
3.604531E+03	4.657033E-18	1.583263E-18
3.614434E+03	4.609291E-18	1.566113E-18
3.624337E+03	4.564378E-18	1.549939E-18
3.634239E+03	4.522178E-18	1.534701E-18
3.644142E+03	4.482623E-18	1.520373E-18
3.654044E+03	4.445645E-18	1.506931E-18
3.663947E+03	4.411138E-18	1.494338E-18
3.673849E+03	4.379079E-18	1.482585E-18
3.683752E+03	4.349365E-18	1.471634E-18
3.693654E+03	4.322010E-18	1.461491E-18
3.703557E+03	4.296951E-18	1.452131E-18
3.713460E+03	4.274126E-18	1.443533E-18
3.723362E+03	4.253509E-18	1.435687E-18
3.733265E+03	4.235111E-18	1.428594E-18
3.743167E+03	4.218869E-18	1.422233E-18
3.753070E+03	4.204792E-18	1.416605E-18
3.762972E+03	4.192818E-18	1.411688E-18
3.772875E+03	4.182919E-18	1.407471E-18
3.782777E+03	4.175106E-18	1.403956E-18
3.792680E+03	4.169384E-18	1.401145E-18
3.802583E+03	4.165694E-18	1.399015E-18
3.812485E+03	4.164076E-18	1.397580E-18
3.822388E+03	4.164436E-18	1.396805E-18
3.832290E+03	4.166851E-18	1.396716E-18
3.842193E+03	4.171223E-18	1.397279E-18
3.852095E+03	4.177629E-18	1.398517E-18
3.861998E+03	4.186008E-18	1.400410E-18
3.871900E+03	4.196367E-18	1.402958E-18
3.881803E+03	4.208677E-18	1.406151E-18
3.891706E+03	4.222946E-18	1.409989E-18
3.901608E+03	4.239146E-18	1.414462E-18
3.911511E+03	4.257316E-18	1.419582E-18
3.921413E+03	4.277395E-18	1.425327E-18
3.931316E+03	4.299390E-18	1.431698E-18
3.941218E+03	4.323270E-18	1.438684E-18
3.951121E+03	4.349078E-18	1.446297E-18
3.961024E+03	4.376785E-18	1.454526E-18
3.970926E+03	4.406364E-18	1.463362E-18
3.980829E+03	4.437786E-18	1.472793E-18
3.990731E+03	4.471093E-18	1.482832E-18
4.000634E+03	4.506223E-18	1.493457E-18
4.010536E+03	4.543220E-18	1.504681E-18
4.020439E+03	4.582023E-18	1.516483E-18
4.030341E+03	4.622639E-18	1.528864E-18
4.040244E+03	4.665082E-18	1.541826E-18
4.050147E+03	4.709323E-18	1.555360E-18
4.060049E+03	4.755341E-18	1.569457E-18
4.069952E+03	4.803109E-18	1.584106E-18
4.079854E+03	4.852679E-18	1.599324E-18
4.089757E+03	4.903989E-18	1.615089E-18
4.099659E+03	4.957056E-18	1.631405E-18
4.109562E+03	5.011817E-18	1.648250E-18
4.119464E+03	5.068288E-18	1.665628E-18
4.129367E+03	5.126485E-18	1.683543E-18
4.139270E+03	5.186346E-18	1.701974E-18
4.149172E+03	5.247889E-18	1.720924E-18
4.159075E+03	5.311051E-18	1.740373E-18
4.168977E+03	5.375849E-18	1.760324E-18
4.178880E+03	5.442218E-18	1.780754E-18
4.188782E+03	5.510176E-18	1.801670E-18
4.198685E+03	5.579655E-18	1.823046E-18
4.208587E+03	5.650630E-18	1.844874E-18
4.218490E+03	5.723026E-18	1.867128E-18
4.228393E+03	5.796860E-18	1.889812E-18
4.238295E+03	5.872055E-18	1.912901E-18
4.248198E+03	5.948577E-18	1.936382E-18
4.258100E+03	6.026343E-18	1.960227E-18
4.268003E+03	6.105263E-18	1.984405E-18
4.277905E+03	6.185293E-18	2.008903E-18
4.287808E+03	6.266384E-18	2.033702E-18
4.297711E+03	6.348437E-18	2.058769E-18
4.307613E+03	6.431393E-18	2.084086E-18
4.317516E+03	6.515140E-18	2.109614E-18
4.327418E+03	6.599666E-18	2.135350E-18
4.337321E+03	6.684903E-18	2.161270E-18
4.347223E+03	6.770943E-18	2.187404E-18
4.357126E+03	6.857719E-18	2.213729E-18
4.367028E+03	6.945271E-18	2.240258E-18
4.376931E+03	7.033585E-18	2.266986E-18
4.386834E+03	7.122764E-18	2.293944E-18
4.396736E+03	7.212741E-18	2.321111E-18
4.406639E+03	7.303508E-18	2.348484E-18
4.416541E+03	7.395117E-18	2.376079E-18
4.426444E+03	7.487575E-18	2.403896E-18
4.436346E+03	7.580864E-18	2.431930E-18
4.446249E+03	7.674931E-18	2.460162E-18
4.456151E+03	7.769836E-18	2.488613E-18
4.466054E+03	7.865516E-18	2.517260E-18
4.475957E+03	7.961990E-18	2.546109E-18
4.485859E+03	8.059243E-18	2.575154E-18
4.495762E+03	8.157160E-18	2.604359E-18
4.505664E+03	8.255808E-18	2.633743E-18
4.515567E+03	8.355129E-18	2.663289E-18
4.525469E+03	8.455147E-18	2.693002E-18
4.535372E+03	8.555722E-18	2.722838E-18
4.545274E+03	8.656943E-18	2.752825E-18
4.555177E+03	8.758698E-18	2.782925E-18
4.565080E+03	8.861078E-18	2.813169E-18
4.574982E+03	8.963963E-18	2.843516E-18
4.584885E+03	9.067383E-18	2.873977E-18
4.594787E+03	9.171300E-18	2.904538E-18
4.604690E+03	9.275836E-18	2.935238E-18
4.614592E+03	9.380892E-18	2.966045E-18
4.624495E+03	9.486589E-18	2.996997E-18
4.634398E+03	9.592922E-18	3.028092E-18
4.644300E+03	9.699860E-18	3.059318E-18
4.654203E+03	9.807580E-18	3.090732E-18
4.664105E+03	9.915984E-18	3.122301E-18
4.674008E+03	1.002516E-17	3.154056E-18
4.683910E+03	1.013501E-17	3.185960E-18
4.693813E+03	1.024564E-17	3.218048E-18
4.703715E+03	1.035686E-17	3.250261E-18
4.713618E+03	1.046878E-17	3.282632E-18
4.723521E+03	1.058131E-17	3.315130E-18
4.733423E+03	1.069454E-17	3.347789E-18
4.743326E+03	1.080840E-17	3.380579E-18
4.753228E+03	1.092288E-17	3.413503E-18
4.763131E+03	1.103801E-17	3.446565E-18
4.773033E+03	1.115378E-17	3.479763E-18
4.782936E+03	1.127021E-17	3.513104E-18
4.792838E+03	1.138719E-17	3.546551E-18
4.802741E+03	1.150485E-17	3.580144E-18
4.812644E+03	1.162317E-17	3.613879E-18
4.822546E+03	1.174206E-17	3.647725E-18
4.832449E+03	1.186152E-17	3.681682E-18
4.842351E+03	1.198165E-17	3.715783E-18
4.852254E+03	1.210223E-17	3.749953E-18
4.862156E+03	1.222347E-17	3.784265E-18
4.872059E+03	1.234525E-17	3.818677E-18
4.881961E+03	1.246743E-17	3.853144E-18
4.891864E+03	1.259010E-17	3.887695E-18
4.901767E+03	1.271322E-17	3.922320E-18
4.911669E+03	1.283663E-17	3.956967E-18
4.921572E+03	1.296041E-17	3.991658E-18
4.931474E+03	1.308426E-17	4.026303E-18
4.941377E+03	1.320833E-17	4.060949E-18
4.951279E+03	1.333243E-17	4.095539E-18
4.961182E+03	1.345635E-17	4.130004E-18
4.971085E+03	1.358010E-17	4.164349E-18
4.980987E+03	1.370344E-17	4.198502E-18
4.990890E+03	1.382623E-17	4.232422E-18
5.000792E+03	1.394835E-17	4.266069E-18
5.010695E+03	1.406965E-17	4.299399E-18
5.020597E+03	1.418981E-17	4.332318E-18
5.030500E+03	1.430883E-17	4.364821E-18
5.040402E+03	1.442635E-17	4.396808E-18
5.050305E+03	1.454222E-17	4.428226E-18
5.060208E+03	1.465607E-17	4.458972E-18
5.070110E+03	1.476786E-17	4.489029E-18
5.080013E+03	1.487708E-17	4.518246E-18
5.089915E+03	1.498380E-17	4.546648E-18
5.099818E+03	1.508751E-17	4.574084E-18
5.109720E+03	1.518816E-17	4.600536E-18
5.119623E+03	1.528535E-17	4.625891E-18
5.129525E+03	1.537872E-17	4.650040E-18
5.139428E+03	1.546816E-17	4.672957E-18
5.149331E+03	1.555333E-17	4.694537E-18
5.159233E+03	1.563396E-17	4.714708E-18
5.169136E+03	1.570984E-17	4.733404E-18
5.179038E+03	1.578056E-17	4.750513E-18
5.188941E+03	1.584588E-17	4.765964E-18
5.198843E+03	1.590544E-17	4.779651E-18
5.208746E+03	1.595912E-17	4.791548E-18
5.218648E+03	1.600657E-17	4.801551E-18
5.228551E+03	1.604756E-17	4.809597E-18
5.238454E+03	1.608187E-17	4.815625E-18
5.248356E+03	1.610914E-17	4.819535E-18
5.258259E+03	1.612919E-17	4.821279E-18
5.268161E+03	1.614185E-17	4.820813E-18
5.278064E+03	1.614698E-17	4.818097E-18
5.287966E+03	1.614431E-17	4.813062E-18
5.297869E+03	1.613392E-17	4.805732E-18
5.307772E+03	1.611574E-17	4.796101E-18
5.317674E+03	1.608979E-17	4.784173E-18
5.327577E+03	1.605594E-17	4.769923E-18
5.337479E+03	1.601460E-17	4.753474E-18
5.347382E+03	1.596576E-17	4.734830E-18
5.357284E+03	1.590992E-17	4.714148E-18
5.367187E+03	1.584719E-17	4.691462E-18
5.377089E+03	1.577802E-17	4.666915E-18
5.386992E+03	1.570279E-17	4.640621E-18
5.396895E+03	1.562223E-17	4.612804E-18
5.406797E+03	1.553666E-17	4.583558E-18
5.416700E+03	1.544644E-17	4.552999E-18
5.426602E+03	1.535185E-17	4.521208E-18
5.436505E+03	1.525351E-17	4.488374E-18
5.446407E+03	1.515176E-17	4.454598E-18
5.456310E+03	1.504717E-17	4.420052E-18
5.466212E+03	1.494028E-17	4.384896E-18
5.476115E+03	1.483171E-17	4.349312E-18
5.486018E+03	1.472206E-17	4.313477E-18
5.495920E+03	1.461207E-17	4.277614E-18
5.505823E+03	1.450236E-17	4.241901E-18
5.515725E+03	1.439382E-17	4.206597E-18
5.525628E+03	1.428688E-17	4.171827E-18
5.535530E+03	1.418252E-17	4.137877E-18
5.545433E+03	1.408112E-17	4.104854E-18
5.555335E+03	1.398346E-17	4.072984E-18
5.565238E+03	1.389023E-17	4.042467E-18
5.575141E+03	1.380169E-17	4.013375E-18
5.585043E+03	1.371876E-17	3.985969E-18
5.594946E+03	1.364171E-17	3.960329E-18
5.604848E+03	1.357080E-17	3.936519E-18
5.614751E+03	1.350675E-17	3.914751E-18
5.624653E+03	1.344959E-17	3.895022E-18
5.634556E+03	1.339967E-17	3.877434E-18
5.644459E+03	1.335733E-17	3.862079E-18
5.654361E+03	1.332275E-17	3.849000E-18
5.664264E+03	1.329602E-17	3.838223E-18
5.674166E+03	1.327725E-17	3.829775E-18
5.684069E+03	1.326668E-17	3.823714E-18
5.693971E+03	1.326448E-17	3.820092E-18
5.703874E+03	1.327047E-17	3.818845E-18
5.713776E+03	1.328511E-17	3.820101E-18
5.723679E+03	1.330814E-17	3.823786E-18
5.733582E+03	1.333994E-17	3.829998E-18
5.743484E+03	1.338042E-17	3.838709E-18
5.753387E+03	1.342978E-17	3.849967E-18
5.763289E+03	1.348809E-17	3.863795E-18
5.773192E+03	1.355560E-17	3.880250E-18
5.783094E+03	1.363223E-17	3.899312E-18
5.792997E+03	1.371807E-17	3.920999E-18
5.802899E+03	1.381336E-17	3.945374E-18
5.812802E+03	1.391834E-17	3.972500E-18
5.822705E+03	1.403280E-17	4.002314E-18
5.832607E+03	1.415714E-17	4.034925E-18
5.842510E+03	1.429126E-17	4.070300E-18
5.852412E+03	1.443540E-17	4.108503E-18
5.862315E+03	1.458964E-17	4.149548E-18
5.872217E+03	1.475384E-17	4.193399E-18
5.882120E+03	1.492820E-17	4.240101E-18
5.892022E+03	1.511273E-17	4.289658E-18
5.901925E+03	1.530725E-17	4.342009E-18
5.911828E+03	1.551206E-17	4.397241E-18
5.921730E+03	1.572674E-17	4.455230E-18
5.931633E+03	1.595136E-17	4.515992E-18
5.941535E+03	1.618580E-17	4.579491E-18
5.951438E+03	1.642968E-17	4.645612E-18
5.961340E+03	1.668298E-17	4.714351E-18
5.971243E+03	1.694503E-17	4.785517E-18
5.981146E+03	1.721592E-17	4.859131E-18
5.991048E+03	1.749487E-17	4.934972E-18
6.000951E+03	1.778164E-17	5.012974E-18
6.010853E+03	1.807558E-17	5.092947E-18
6.020756E+03	1.837611E-17	5.174733E-18
6.030658E+03	1.868241E-17	5.258101E-18
6.040561E+03	1.899359E-17	5.342797E-18
6.050463E+03	1.930914E-17	5.428683E-18
6.060366E+03	1.962756E-17	5.515337E-18
6.070269E+03	1.994822E-17	5.602585E-18
6.080171E+03	2.026974E-17	5.690043E-18
6.090074E+03	2.059116E-17	5.777442E-18
6.099976E+03	2.091047E-17	5.864227E-18
6.109879E+03	2.122690E-17	5.950183E-18
6.119781E+03	2.153864E-17	6.034807E-18
6.129684E+03	2.184438E-17	6.117743E-18
6.139586E+03	2.214267E-17	6.198588E-18
6.149489E+03	2.243337E-17	6.277307E-18
6.159392E+03	2.271674E-17	6.353983E-18
6.169294E+03	2.299320E-17	6.428737E-18
6.179197E+03	2.326326E-17	6.501721E-18
6.189099E+03	2.352666E-17	6.572866E-18
6.199002E+03	2.378474E-17	6.642552E-18
6.208904E+03	2.403708E-17	6.710668E-18
6.218807E+03	2.428456E-17	6.777463E-18
6.228709E+03	2.452782E-17	6.843124E-18
6.238612E+03	2.476657E-17	6.907574E-18
6.248515E+03	2.500155E-17	6.971018E-18
6.258417E+03	2.523318E-17	7.033581E-18
6.268320E+03	2.546195E-17	7.095399E-18
6.278222E+03	2.568765E-17	7.156417E-18
6.288125E+03	2.591079E-17	7.216778E-18
6.298027E+03	2.613154E-17	7.276531E-18
6.307930E+03	2.635008E-17	7.335728E-18
6.317833E+03	2.656620E-17	7.394313E-18
6.327735E+03	2.677970E-17	7.452230E-18
6.337638E+03	2.699035E-17	7.509420E-18
6.347540E+03	2.719831E-17	7.565925E-18
6.357443E+03	2.740332E-17	7.621678E-18
6.367345E+03	2.760432E-17	7.676381E-18
6.377248E+03	2.780260E-17	7.730400E-18
6.387150E+03	2.799832E-17	7.783775E-18
6.397053E+03	2.819203E-17	7.836661E-18
6.406956E+03	2.838471E-17	7.889334E-18
6.416858E+03	2.857612E-17	7.941727E-18
6.426761E+03	2.876729E-17	7.994124E-18
6.436663E+03	2.895840E-17	8.046581E-18
6.446566E+03	2.915009E-17	8.099274E-18
6.456468E+03	2.934166E-17	8.152005E-18
6.466371E+03	2.953461E-17	8.205200E-18
6.476273E+03	2.972825E-17	8.258659E-18
6.486176E+03	2.992317E-17	8.312551E-18
6.496079E+03	3.011956E-17	8.366931E-18
6.505981E+03	3.031711E-17	8.421709E-18
6.515884E+03	3.051645E-17	8.477063E-18
6.525786E+03	3.071771E-17	8.533031E-18
6.535689E+03	3.092057E-17	8.589521E-18
6.545591E+03	3.112514E-17	8.646568E-18
6.555494E+03	3.133153E-17	8.704200E-18
6.565396E+03	3.154039E-17	8.762597E-18
6.575299E+03	3.175077E-17	8.821500E-18
6.585202E+03	3.196329E-17	8.881081E-18
6.595104E+03	3.217802E-17	8.941360E-18
6.605007E+03	3.239451E-17	9.002209E-18
6.614909E+03	3.261334E-17	9.063795E-18
6.624812E+03	3.283405E-17	9.125986E-18
6.634714E+03	3.305722E-17	9.188947E-18
6.644617E+03	3.328177E-17	9.252377E-18
6.654520E+03	3.350828E-17	9.316440E-18
6.664422E+03	3.373737E-17	9.381306E-18
6.674325E+03	3.396788E-17	9.446658E-18
6.684227E+03	3.420043E-17	9.512664E-18
6.694130E+03	3.443444E-17	9.579165E-18
6.704032E+03	3.467049E-17	9.646327E-18
6.713935E+03	3.490802E-17	9.713987E-18
6.723837E+03	3.514698E-17	9.782140E-18
6.733740E+03	3.538803E-17	9.850966E-18
6.743643E+03	3.562990E-17	9.920112E-18
6.753545E+03	3.587383E-17	9.989927E-18
6.763448E+03	3.611852E-17	1.006004E-17
6.773350E+03	3.636523E-17	1.013082E-17
6.783253E+03	3.661263E-17	1.020189E-17
6.793155E+03	3.686062E-17	1.027321E-17
6.803058E+03	3.710981E-17	1.034497E-17
6.812960E+03	3.736012E-17	1.041714E-17
6.822863E+03	3.761007E-17	1.048930E-17
6.832766E+03	3.786094E-17	1.056182E-17
6.842668E+03	3.811188E-17	1.063446E-17
6.852571E+03	3.836347E-17	1.070738E-17
6.862473E+03	3.861414E-17	1.078014E-17
6.872376E+03	3.886443E-17	1.085289E-17
6.882278E+03	3.911415E-17	1.092559E-17
6.892181E+03	3.936240E-17	1.099798E-17
6.902083E+03	3.960975E-17	1.107022E-17
6.911986E+03	3.985600E-17	1.114226E-17
6.921889E+03	4.010023E-17	1.121383E-17
6.931791E+03	4.034225E-17	1.128488E-17
6.941694E+03	4.058187E-17	1.135537E-17
6.951596E+03	4.081974E-17	1.142547E-17
6.961499E+03	4.105411E-17	1.149469E-17
6.971401E+03	4.128645E-17	1.156345E-17
6.981304E+03	4.151502E-17	1.163125E-17
6.991207E+03	4.174050E-17	1.169828E-17
7.001109E+03	4.196201E-17	1.176431E-17
7.011012E+03	4.218026E-17	1.182952E-17
7.020914E+03	4.239522E-17	1.189391E-17
7.030817E+03	4.260600E-17	1.195724E-17
7.040719E+03	4.281170E-17	1.201923E-17
7.050622E+03	4.301404E-17	1.208038E-17
7.060524E+03	4.321215E-17	1.214044E-17
7.070427E+03	4.340605E-17	1.219942E-17
7.080330E+03	4.359578E-17	1.225732E-17
7.090232E+03	4.378050E-17	1.231391E-17
7.100135E+03	4.396114E-17	1.236946E-17
7.110037E+03	4.413687E-17	1.242371E-17
7.119940E+03	4.430776E-17	1.247670E-17
7.129842E+03	4.447479E-17	1.252869E-17
7.139745E+03	4.463712E-17	1.257946E-17
7.149647E+03	4.479576E-17	1.262928E-17
7.159550E+03	4.494891E-17	1.267764E-17
7.169453E+03	4.509754E-17	1.272482E-17
7.179355E+03	4.524172E-17	1.277083E-17
7.189258E+03	4.538148E-17	1.281568E-17
7.199160E+03	4.551683E-17	1.285938E-17
7.209063E+03	4.564779E-17	1.290193E-17
7.218965E+03	4.577336E-17	1.294304E-17
7.228868E+03	4.589449E-17	1.298298E-17
7.238770E+03	4.601115E-17	1.302174E-17
7.248673E+03	4.612329E-17	1.305930E-17
7.258576E+03	4.622987E-17	1.309537E-17
7.268478E+03	4.633182E-17	1.313022E-17
7.278381E+03	4.643012E-17	1.316411E-17
7.288283E+03	4.652271E-17	1.319646E-17
7.298186E+03	4.661055E-17	1.322754E-17
7.308088E+03	4.669363E-17	1.325735E-17
7.317991E+03	4.677300E-17	1.328619E-17
7.327894E+03	4.684763E-17	1.331375E-17
7.337796E+03	4.691860E-17	1.334035E-17
7.347699E+03	4.698706E-17	1.336630E-17
7.357601E+03	4.705204E-17	1.339134E-17
7.367504E+03	4.711580E-17	1.341611E-17
7.377406E+03	4.717635E-17	1.344004E-17
7.387309E+03	4.723493E-17	1.346347E-17
7.397211E+03	4.729062E-17	1.348616E-17
7.407114E+03	4.734470E-17	1.350845E-17
7.417017E+03	4.739516E-17	1.352979E-17
7.426919E+03	4.744328E-17	1.355052E-17
7.436822E+03	4.748922E-17	1.357071E-17
7.446724E+03	4.753206E-17	1.359007E-17
7.456627E+03	4.757418E-17	1.360930E-17
7.466529E+03	4.761353E-17	1.362780E-17
7.476432E+03	4.765137E-17	1.364593E-17
7.486334E+03	4.768671E-17	1.366342E-17
7.496237E+03	4.772080E-17	1.368061E-17
7.506140E+03	4.775262E-17	1.369720E-17
7.516042E+03	4.778341E-17	1.371356E-17
7.525945E+03	4.781211E-17	1.372938E-17
7.535847E+03	4.783877E-17	1.374467E-17
7.545750E+03	4.786459E-17	1.375977E-17
7.555652E+03	4.788844E-17	1.377436E-17
7.565555E+03	4.791032E-17	1.378844E-17
7.575457E+03	4.793139E-17	1.380233E-17
7.585360E+03	4.795043E-17	1.381569E-17
7.595263E+03	4.796856E-17	1.382883E-17
7.605165E+03	4.798335E-17	1.384105E-17
7.615068E+03	4.799706E-17	1.385301E-17
7.624970E+03	4.800957E-17	1.386466E-17
7.634873E+03	4.801958E-17	1.387564E-17
7.644775E+03	4.802814E-17	1.388623E-17
7.654678E+03	4.803389E-17	1.389606E-17
7.664581E+03	4.803666E-17	1.390505E-17
7.674483E+03	4.803747E-17	1.391352E-17
7.684386E+03	4.803615E-17	1.392140E-17
