#wls	flux	fluxerr
1.584409E+03	1.397564E-16	2.550776E-17
1.624020E+03	1.457687E-16	2.658050E-17
1.663630E+03	1.514733E-16	2.759456E-17
1.703240E+03	1.568435E-16	2.854515E-17
1.742850E+03	1.617719E-16	2.941283E-17
1.782461E+03	1.661163E-16	3.017197E-17
1.822071E+03	1.696970E-16	3.079018E-17
1.861681E+03	1.722705E-16	3.122370E-17
1.901291E+03	1.735891E-16	3.142826E-17
1.940902E+03	1.734342E-16	3.136500E-17
1.980512E+03	1.716926E-16	3.101439E-17
2.020122E+03	1.685856E-16	3.041734E-17
2.059732E+03	1.647451E-16	2.968863E-17
2.099342E+03	1.612931E-16	2.903072E-17
2.138953E+03	1.595045E-16	2.867258E-17
2.178563E+03	1.601527E-16	2.875191E-17
2.218173E+03	1.630879E-16	2.924017E-17
2.257783E+03	1.674549E-16	2.998251E-17
2.297394E+03	1.720941E-16	3.077049E-17
2.337004E+03	1.760748E-16	3.143764E-17
2.376614E+03	1.788152E-16	3.188068E-17
2.416224E+03	1.800510E-16	3.205342E-17
2.455835E+03	1.797437E-16	3.195019E-17
2.495445E+03	1.779482E-16	3.158200E-17
2.535055E+03	1.748113E-16	3.097606E-17
2.574665E+03	1.704684E-16	3.015754E-17
2.614276E+03	1.650721E-16	2.915448E-17
2.653886E+03	1.587650E-16	2.799304E-17
2.693496E+03	1.516962E-16	2.670037E-17
2.733106E+03	1.440042E-16	2.530163E-17
2.772716E+03	1.358247E-16	2.382133E-17
2.812327E+03	1.273023E-16	2.228541E-17
2.851937E+03	1.185754E-16	2.071852E-17
2.891547E+03	1.097871E-16	1.914598E-17
2.931157E+03	1.010761E-16	1.759218E-17
2.970768E+03	9.257178E-17	1.607964E-17
2.980670E+03	9.049133E-17	1.571027E-17
2.990573E+03	8.843294E-17	1.534505E-17
3.000475E+03	8.639778E-17	1.498419E-17
3.010378E+03	8.438897E-17	1.462824E-17
3.020280E+03	8.240560E-17	1.427701E-17
3.030183E+03	8.044895E-17	1.393073E-17
3.040086E+03	7.852425E-17	1.359031E-17
3.049988E+03	7.663207E-17	1.325583E-17
3.059891E+03	7.477928E-17	1.292847E-17
3.069793E+03	7.296348E-17	1.260782E-17
3.079696E+03	7.118406E-17	1.229375E-17
3.089598E+03	6.944349E-17	1.198669E-17
3.099501E+03	6.773854E-17	1.168607E-17
3.109403E+03	6.607039E-17	1.139209E-17
3.119306E+03	6.443883E-17	1.110470E-17
3.129209E+03	6.284487E-17	1.082406E-17
3.139111E+03	6.128728E-17	1.054996E-17
3.149014E+03	5.976710E-17	1.028257E-17
3.158916E+03	5.828423E-17	1.002186E-17
3.168819E+03	5.683759E-17	9.767642E-18
3.178721E+03	5.542820E-17	9.520074E-18
3.188624E+03	5.405697E-17	9.279304E-18
3.198526E+03	5.272186E-17	9.044976E-18
3.208429E+03	5.142467E-17	8.817391E-18
3.218332E+03	5.016353E-17	8.596215E-18
3.228234E+03	4.894082E-17	8.381848E-18
3.238137E+03	4.775387E-17	8.173824E-18
3.248039E+03	4.660335E-17	7.972247E-18
3.257942E+03	4.548974E-17	7.777192E-18
3.267844E+03	4.441204E-17	7.588476E-18
3.277747E+03	4.337061E-17	7.406153E-18
3.287650E+03	4.236380E-17	7.229930E-18
3.297552E+03	4.139192E-17	7.059852E-18
3.307455E+03	4.045460E-17	6.895845E-18
3.317357E+03	3.955141E-17	6.737828E-18
3.327260E+03	3.868191E-17	6.585716E-18
3.337162E+03	3.784508E-17	6.439326E-18
3.347065E+03	3.704049E-17	6.298575E-18
3.356967E+03	3.626765E-17	6.163372E-18
3.366870E+03	3.552608E-17	6.033627E-18
3.376773E+03	3.481480E-17	5.909163E-18
3.386675E+03	3.413332E-17	5.789889E-18
3.396578E+03	3.348115E-17	5.675714E-18
3.406480E+03	3.285735E-17	5.566468E-18
3.416383E+03	3.226141E-17	5.462061E-18
3.426285E+03	3.169288E-17	5.362403E-18
3.436188E+03	3.115045E-17	5.267268E-18
3.446090E+03	3.063406E-17	5.176640E-18
3.455993E+03	3.014288E-17	5.090366E-18
3.465896E+03	2.967610E-17	5.008304E-18
3.475798E+03	2.923331E-17	4.930376E-18
3.485701E+03	2.881338E-17	4.856389E-18
3.495603E+03	2.841597E-17	4.786274E-18
3.505506E+03	2.804038E-17	4.719907E-18
3.515408E+03	2.768595E-17	4.657172E-18
3.525311E+03	2.735204E-17	4.597954E-18
3.535213E+03	2.703807E-17	4.542148E-18
3.545116E+03	2.674316E-17	4.489602E-18
3.555019E+03	2.646708E-17	4.440269E-18
3.564921E+03	2.620901E-17	4.394009E-18
3.574824E+03	2.596876E-17	4.350781E-18
3.584726E+03	2.574531E-17	4.310409E-18
3.594629E+03	2.553877E-17	4.272907E-18
3.604531E+03	2.534790E-17	4.238062E-18
3.614434E+03	2.517260E-17	4.205852E-18
3.624337E+03	2.501223E-17	4.176166E-18
3.634239E+03	2.486669E-17	4.148980E-18
3.644142E+03	2.473515E-17	4.124152E-18
3.654044E+03	2.461752E-17	4.101662E-18
3.663947E+03	2.451325E-17	4.081414E-18
3.673849E+03	2.442227E-17	4.063393E-18
3.683752E+03	2.434405E-17	4.047504E-18
3.693654E+03	2.427876E-17	4.033774E-18
3.703557E+03	2.422566E-17	4.022070E-18
3.713460E+03	2.418491E-17	4.012421E-18
3.723362E+03	2.415624E-17	4.004774E-18
3.733265E+03	2.413959E-17	3.999115E-18
3.743167E+03	2.413466E-17	3.995392E-18
3.753070E+03	2.414164E-17	3.993629E-18
3.762972E+03	2.416000E-17	3.993738E-18
3.772875E+03	2.418991E-17	3.995740E-18
3.782777E+03	2.423131E-17	3.999621E-18
3.792680E+03	2.428411E-17	4.005364E-18
3.802583E+03	2.434824E-17	4.012952E-18
3.812485E+03	2.442342E-17	4.022335E-18
3.822388E+03	2.450999E-17	4.033563E-18
3.832290E+03	2.460786E-17	4.046621E-18
3.842193E+03	2.471674E-17	4.061453E-18
3.852095E+03	2.483674E-17	4.078074E-18
3.861998E+03	2.496777E-17	4.096466E-18
3.871900E+03	2.510993E-17	4.116640E-18
3.881803E+03	2.526290E-17	4.138542E-18
3.891706E+03	2.542700E-17	4.162216E-18
3.901608E+03	2.560189E-17	4.187604E-18
3.911511E+03	2.578787E-17	4.214752E-18
3.921413E+03	2.598458E-17	4.243597E-18
3.931316E+03	2.619189E-17	4.274110E-18
3.941218E+03	2.641007E-17	4.306333E-18
3.951121E+03	2.663873E-17	4.340200E-18
3.961024E+03	2.687793E-17	4.375714E-18
3.970926E+03	2.712747E-17	4.412838E-18
3.980829E+03	2.738737E-17	4.451574E-18
3.990731E+03	2.765743E-17	4.491882E-18
4.000634E+03	2.793740E-17	4.533719E-18
4.010536E+03	2.822726E-17	4.577079E-18
4.020439E+03	2.852701E-17	4.621954E-18
4.030341E+03	2.883588E-17	4.668218E-18
4.040244E+03	2.915427E-17	4.715932E-18
4.050147E+03	2.948140E-17	4.764965E-18
4.060049E+03	2.981739E-17	4.815333E-18
4.069952E+03	3.016163E-17	4.866933E-18
4.079854E+03	3.051398E-17	4.919741E-18
4.089757E+03	3.087401E-17	4.973683E-18
4.099659E+03	3.124128E-17	5.028685E-18
4.109562E+03	3.161530E-17	5.084666E-18
4.119464E+03	3.199556E-17	5.141539E-18
4.129367E+03	3.238179E-17	5.199258E-18
4.139270E+03	3.277340E-17	5.257728E-18
4.149172E+03	3.316952E-17	5.316806E-18
4.159075E+03	3.356949E-17	5.376384E-18
4.168977E+03	3.397263E-17	5.436350E-18
4.178880E+03	3.437848E-17	5.496633E-18
4.188782E+03	3.478601E-17	5.557063E-18
4.198685E+03	3.519441E-17	5.617512E-18
4.208587E+03	3.560256E-17	5.677800E-18
4.218490E+03	3.600986E-17	5.737832E-18
4.228393E+03	3.641512E-17	5.797419E-18
4.238295E+03	3.681739E-17	5.856409E-18
4.248198E+03	3.721571E-17	5.914651E-18
4.258100E+03	3.760846E-17	5.971890E-18
4.268003E+03	3.799525E-17	6.028066E-18
4.277905E+03	3.837444E-17	6.082920E-18
4.287808E+03	3.874499E-17	6.136294E-18
4.297711E+03	3.910557E-17	6.187977E-18
4.307613E+03	3.945584E-17	6.237923E-18
4.317516E+03	3.979389E-17	6.285831E-18
4.327418E+03	4.011949E-17	6.331672E-18
4.337321E+03	4.043189E-17	6.375331E-18
4.347223E+03	4.073077E-17	6.416765E-18
4.357126E+03	4.101634E-17	6.456014E-18
4.367028E+03	4.128863E-17	6.493084E-18
4.376931E+03	4.154851E-17	6.528120E-18
4.386834E+03	4.179557E-17	6.561064E-18
4.396736E+03	4.203097E-17	6.592101E-18
4.406639E+03	4.225483E-17	6.621256E-18
4.416541E+03	4.246776E-17	6.648629E-18
4.426444E+03	4.267113E-17	6.674441E-18
4.436346E+03	4.286454E-17	6.698631E-18
4.446249E+03	4.304986E-17	6.721493E-18
4.456151E+03	4.322673E-17	6.742978E-18
4.466054E+03	4.339670E-17	6.763329E-18
4.475957E+03	4.356022E-17	6.782619E-18
4.485859E+03	4.371809E-17	6.800976E-18
4.495762E+03	4.387117E-17	6.818532E-18
4.505664E+03	4.401948E-17	6.835296E-18
4.515567E+03	4.416465E-17	6.851522E-18
4.525469E+03	4.430671E-17	6.867213E-18
4.535372E+03	4.444646E-17	6.882497E-18
4.545274E+03	4.458470E-17	6.897497E-18
4.555177E+03	4.472222E-17	6.912336E-18
4.565080E+03	4.485938E-17	6.927070E-18
4.574982E+03	4.499653E-17	6.941752E-18
4.584885E+03	4.513440E-17	6.956495E-18
4.594787E+03	4.527372E-17	6.971410E-18
4.604690E+03	4.541518E-17	6.986603E-18
4.614592E+03	4.555863E-17	7.002050E-18
4.624495E+03	4.570517E-17	7.017918E-18
4.634398E+03	4.585501E-17	7.034239E-18
4.644300E+03	4.600837E-17	7.051043E-18
4.654203E+03	4.616586E-17	7.068423E-18
4.664105E+03	4.632765E-17	7.086403E-18
4.674008E+03	4.649388E-17	7.105001E-18
4.683910E+03	4.666467E-17	7.124234E-18
4.693813E+03	4.684012E-17	7.144117E-18
4.703715E+03	4.702031E-17	7.164656E-18
4.713618E+03	4.720531E-17	7.185861E-18
4.723521E+03	4.739514E-17	7.207734E-18
4.733423E+03	4.758937E-17	7.230206E-18
4.743326E+03	4.778844E-17	7.253342E-18
4.753228E+03	4.799141E-17	7.276996E-18
4.763131E+03	4.819915E-17	7.301299E-18
4.773033E+03	4.841067E-17	7.326098E-18
4.782936E+03	4.862633E-17	7.351448E-18
4.792838E+03	4.884604E-17	7.377329E-18
4.802741E+03	4.906871E-17	7.403577E-18
4.812644E+03	4.929515E-17	7.430312E-18
4.822546E+03	4.952470E-17	7.457435E-18
4.832449E+03	4.975769E-17	7.484990E-18
4.842351E+03	4.999243E-17	7.512723E-18
4.852254E+03	5.023018E-17	7.540822E-18
4.862156E+03	5.046970E-17	7.569101E-18
4.872059E+03	5.071124E-17	7.597594E-18
4.881961E+03	5.095402E-17	7.626184E-18
4.891864E+03	5.119824E-17	7.654901E-18
4.901767E+03	5.144258E-17	7.683546E-18
4.911669E+03	5.168721E-17	7.712144E-18
4.921572E+03	5.193228E-17	7.740717E-18
4.931474E+03	5.217638E-17	7.769057E-18
4.941377E+03	5.241912E-17	7.797103E-18
4.951279E+03	5.266059E-17	7.824870E-18
4.961182E+03	5.290033E-17	7.852291E-18
4.971085E+03	5.313684E-17	7.879142E-18
4.980987E+03	5.337013E-17	7.905429E-18
4.990890E+03	5.359968E-17	7.931074E-18
5.000792E+03	5.382493E-17	7.955998E-18
5.010695E+03	5.404478E-17	7.980037E-18
5.020597E+03	5.425860E-17	8.003105E-18
5.030500E+03	5.446631E-17	8.025189E-18
5.040402E+03	5.466616E-17	8.046035E-18
5.050305E+03	5.485799E-17	8.065626E-18
5.060208E+03	5.504054E-17	8.083778E-18
5.070110E+03	5.521306E-17	8.100386E-18
5.080013E+03	5.537478E-17	8.115342E-18
5.089915E+03	5.552492E-17	8.128536E-18
5.099818E+03	5.566210E-17	8.139773E-18
5.109720E+03	5.578607E-17	8.149023E-18
5.119623E+03	5.589487E-17	8.156006E-18
5.129525E+03	5.598824E-17	8.160690E-18
5.139428E+03	5.606475E-17	8.162878E-18
5.149331E+03	5.612360E-17	8.162458E-18
5.159233E+03	5.616398E-17	8.159321E-18
5.169136E+03	5.618507E-17	8.153360E-18
5.179038E+03	5.618502E-17	8.144314E-18
5.188941E+03	5.616421E-17	8.132251E-18
5.198843E+03	5.612033E-17	8.116843E-18
5.208746E+03	5.605387E-17	8.098176E-18
5.218648E+03	5.596321E-17	8.076027E-18
5.228551E+03	5.584848E-17	8.050424E-18
5.238454E+03	5.570878E-17	8.021253E-18
5.248356E+03	5.554334E-17	7.988414E-18
5.258259E+03	5.535262E-17	7.951986E-18
5.268161E+03	5.513557E-17	7.911831E-18
5.278064E+03	5.489291E-17	7.868067E-18
5.287966E+03	5.462446E-17	7.820679E-18
5.297869E+03	5.433018E-17	7.769675E-18
5.307772E+03	5.401075E-17	7.715166E-18
5.317674E+03	5.366703E-17	7.657287E-18
5.327577E+03	5.330006E-17	7.596198E-18
5.337479E+03	5.290997E-17	7.531932E-18
5.347382E+03	5.249871E-17	7.464775E-18
5.357284E+03	5.206729E-17	7.394884E-18
5.367187E+03	5.161796E-17	7.322586E-18
5.377089E+03	5.115155E-17	7.248010E-18
5.386992E+03	5.067160E-17	7.171666E-18
5.396895E+03	5.018070E-17	7.093926E-18
5.406797E+03	4.968400E-17	7.015524E-18
5.416700E+03	4.918266E-17	6.936626E-18
5.426602E+03	4.867547E-17	6.857066E-18
5.436505E+03	4.816232E-17	6.776829E-18
5.446407E+03	4.764458E-17	6.696112E-18
5.456310E+03	4.712549E-17	6.615373E-18
5.466212E+03	4.660586E-17	6.534723E-18
5.476115E+03	4.608925E-17	6.454663E-18
5.486018E+03	4.557681E-17	6.375352E-18
5.495920E+03	4.507099E-17	6.297130E-18
5.505823E+03	4.457416E-17	6.220325E-18
5.515725E+03	4.408859E-17	6.145248E-18
5.525628E+03	4.361551E-17	6.072066E-18
5.535530E+03	4.315696E-17	6.001056E-18
5.545433E+03	4.271483E-17	5.932472E-18
5.555335E+03	4.229043E-17	5.866489E-18
5.565238E+03	4.188494E-17	5.803262E-18
5.575141E+03	4.150025E-17	5.743042E-18
5.585043E+03	4.113681E-17	5.685883E-18
5.594946E+03	4.079582E-17	5.631937E-18
5.604848E+03	4.047789E-17	5.581277E-18
5.614751E+03	4.018390E-17	5.534017E-18
5.624653E+03	3.991423E-17	5.490193E-18
5.634556E+03	3.966910E-17	5.449825E-18
5.644459E+03	3.944907E-17	5.412977E-18
5.654361E+03	3.925457E-17	5.379695E-18
5.664264E+03	3.908512E-17	5.349901E-18
5.674166E+03	3.894099E-17	5.323620E-18
5.684069E+03	3.882196E-17	5.300809E-18
5.693971E+03	3.872776E-17	5.281417E-18
5.703874E+03	3.865886E-17	5.265498E-18
5.713776E+03	3.861408E-17	5.252876E-18
5.723679E+03	3.859381E-17	5.243595E-18
5.733582E+03	3.859720E-17	5.237524E-18
5.743484E+03	3.862420E-17	5.234646E-18
5.753387E+03	3.867432E-17	5.234883E-18
5.763289E+03	3.874706E-17	5.238155E-18
5.773192E+03	3.884234E-17	5.244439E-18
5.783094E+03	3.895922E-17	5.253599E-18
5.792997E+03	3.909762E-17	5.265611E-18
5.802899E+03	3.925702E-17	5.280396E-18
5.812802E+03	3.943648E-17	5.297816E-18
5.822705E+03	3.963635E-17	5.317907E-18
5.832607E+03	3.985525E-17	5.340475E-18
5.842510E+03	4.009354E-17	5.365558E-18
5.852412E+03	4.035028E-17	5.393021E-18
5.862315E+03	4.062496E-17	5.422787E-18
5.872217E+03	4.091753E-17	5.454838E-18
5.882120E+03	4.122656E-17	5.488976E-18
5.892022E+03	4.155200E-17	5.525187E-18
5.901925E+03	4.189382E-17	5.563457E-18
5.911828E+03	4.225056E-17	5.603585E-18
5.921730E+03	4.262219E-17	5.645560E-18
5.931633E+03	4.300821E-17	5.689307E-18
5.941535E+03	4.340763E-17	5.734689E-18
5.951438E+03	4.381995E-17	5.781633E-18
5.961340E+03	4.424468E-17	5.830067E-18
5.971243E+03	4.468084E-17	5.879858E-18
5.981146E+03	4.512795E-17	5.930936E-18
5.991048E+03	4.558613E-17	5.983311E-18
6.000951E+03	4.605336E-17	6.036715E-18
6.010853E+03	4.653036E-17	6.091234E-18
6.020756E+03	4.701514E-17	6.146608E-18
6.030658E+03	4.750854E-17	6.202939E-18
6.040561E+03	4.800864E-17	6.259976E-18
6.050463E+03	4.851583E-17	6.317764E-18
6.060366E+03	4.902886E-17	6.376139E-18
6.070269E+03	4.954827E-17	6.435169E-18
6.080171E+03	5.007292E-17	6.494702E-18
6.090074E+03	5.060224E-17	6.554664E-18
6.099976E+03	5.113695E-17	6.615143E-18
6.109879E+03	5.167582E-17	6.675982E-18
6.119781E+03	5.221938E-17	6.737246E-18
6.129684E+03	5.276733E-17	6.798895E-18
6.139586E+03	5.331905E-17	6.860847E-18
6.149489E+03	5.387359E-17	6.922980E-18
6.159392E+03	5.443112E-17	6.985316E-18
6.169294E+03	5.499015E-17	7.047663E-18
6.179197E+03	5.555000E-17	7.109932E-18
6.189099E+03	5.610983E-17	7.172019E-18
6.199002E+03	5.667029E-17	7.234008E-18
6.208904E+03	5.722932E-17	7.295635E-18
6.218807E+03	5.778629E-17	7.356825E-18
6.228709E+03	5.834155E-17	7.417619E-18
6.238612E+03	5.889473E-17	7.477975E-18
6.248515E+03	5.944482E-17	7.537766E-18
6.258417E+03	5.999091E-17	7.596876E-18
6.268320E+03	6.053373E-17	7.655403E-18
6.278222E+03	6.107177E-17	7.713157E-18
6.288125E+03	6.160510E-17	7.770150E-18
6.298027E+03	6.213316E-17	7.826314E-18
6.307930E+03	6.265538E-17	7.881581E-18
6.317833E+03	6.317119E-17	7.935883E-18
6.327735E+03	6.368015E-17	7.989168E-18
6.337638E+03	6.418185E-17	8.041389E-18
6.347540E+03	6.467489E-17	8.092374E-18
6.357443E+03	6.515993E-17	8.142212E-18
6.367345E+03	6.563651E-17	8.190850E-18
6.377248E+03	6.610533E-17	8.238381E-18
6.387150E+03	6.656711E-17	8.284896E-18
6.397053E+03	6.702075E-17	8.330267E-18
6.406956E+03	6.746802E-17	8.374714E-18
6.416858E+03	6.790881E-17	8.418231E-18
6.426761E+03	6.834410E-17	8.460942E-18
6.436663E+03	6.877285E-17	8.502722E-18
6.446566E+03	6.919702E-17	8.543817E-18
6.456468E+03	6.961568E-17	8.584116E-18
6.466371E+03	7.002993E-17	8.623759E-18
6.476273E+03	7.043866E-17	8.662610E-18
6.486176E+03	7.084301E-17	8.700816E-18
6.496079E+03	7.124421E-17	8.738529E-18
6.505981E+03	7.164007E-17	8.775485E-18
6.515884E+03	7.203175E-17	8.811830E-18
6.525786E+03	7.242053E-17	8.847721E-18
6.535689E+03	7.280406E-17	8.882877E-18
6.545591E+03	7.318481E-17	8.917601E-18
6.555494E+03	7.356044E-17	8.951612E-18
6.565396E+03	7.393332E-17	8.985201E-18
6.575299E+03	7.430110E-17	9.018088E-18
6.585202E+03	7.466490E-17	9.050410E-18
6.595104E+03	7.502483E-17	9.082185E-18
6.605007E+03	7.537945E-17	9.113243E-18
6.614909E+03	7.573001E-17	9.143739E-18
6.624812E+03	7.607519E-17	9.173517E-18
6.634714E+03	7.641483E-17	9.202563E-18
6.644617E+03	7.675004E-17	9.231014E-18
6.654520E+03	7.707949E-17	9.258714E-18
6.664422E+03	7.740152E-17	9.285471E-18
6.674325E+03	7.771870E-17	9.311597E-18
6.684227E+03	7.802804E-17	9.336737E-18
6.694130E+03	7.833073E-17	9.361041E-18
6.704032E+03	7.862643E-17	9.384474E-18
6.713935E+03	7.891361E-17	9.406858E-18
6.723837E+03	7.919182E-17	9.428145E-18
6.733740E+03	7.946086E-17	9.448320E-18
6.743643E+03	7.972179E-17	9.467513E-18
6.753545E+03	7.997286E-17	9.485525E-18
6.763448E+03	8.021235E-17	9.502156E-18
6.773350E+03	8.044129E-17	9.517539E-18
6.783253E+03	8.065940E-17	9.531647E-18
6.793155E+03	8.086634E-17	9.544446E-18
6.803058E+03	8.106036E-17	9.555739E-18
6.812960E+03	8.124103E-17	9.565483E-18
6.822863E+03	8.140961E-17	9.573833E-18
6.832766E+03	8.156425E-17	9.580582E-18
6.842668E+03	8.170471E-17	9.585711E-18
6.852571E+03	8.183072E-17	9.589194E-18
6.862473E+03	8.194203E-17	9.591013E-18
6.872376E+03	8.203840E-17	9.591149E-18
6.882278E+03	8.211970E-17	9.589595E-18
6.892181E+03	8.218410E-17	9.586146E-18
6.902083E+03	8.223152E-17	9.580802E-18
6.911986E+03	8.226345E-17	9.573749E-18
6.921889E+03	8.227983E-17	9.564985E-18
6.931791E+03	8.227737E-17	9.554141E-18
6.941694E+03	8.225939E-17	9.541609E-18
6.951596E+03	8.222431E-17	9.527215E-18
6.961499E+03	8.217220E-17	9.510977E-18
6.971401E+03	8.210159E-17	9.492735E-18
6.981304E+03	8.201435E-17	9.472712E-18
6.991207E+03	8.191068E-17	9.450942E-18
7.001109E+03	8.179086E-17	9.427465E-18
7.011012E+03	8.165357E-17	9.402138E-18
7.020914E+03	8.149930E-17	9.375024E-18
7.030817E+03	8.132998E-17	9.346355E-18
7.040719E+03	8.114452E-17	9.316013E-18
7.050622E+03	8.094185E-17	9.283881E-18
7.060524E+03	8.072571E-17	9.250398E-18
7.070427E+03	8.049508E-17	9.215452E-18
7.080330E+03	8.025065E-17	9.179129E-18
7.090232E+03	7.999139E-17	9.141318E-18
7.100135E+03	7.971976E-17	9.102306E-18
7.110037E+03	7.943639E-17	9.062170E-18
7.119940E+03	7.914046E-17	9.020822E-18
7.129842E+03	7.883279E-17	8.978360E-18
7.139745E+03	7.851583E-17	8.935069E-18
7.149647E+03	7.818878E-17	8.890860E-18
7.159550E+03	7.785249E-17	8.845835E-18
7.169453E+03	7.750784E-17	8.800098E-18
7.179355E+03	7.715580E-17	8.753760E-18
7.189258E+03	7.679565E-17	8.706744E-18
7.199160E+03	7.643157E-17	8.659526E-18
7.209063E+03	7.606284E-17	8.612026E-18
7.218965E+03	7.568738E-17	8.564011E-18
7.228868E+03	7.531088E-17	8.516126E-18
7.238770E+03	7.492968E-17	8.467959E-18
7.248673E+03	7.454799E-17	8.419986E-18
7.258576E+03	7.416541E-17	8.372163E-18
7.268478E+03	7.378310E-17	8.324620E-18
7.278381E+03	7.340074E-17	8.277324E-18
7.288283E+03	7.301956E-17	8.230412E-18
7.298186E+03	7.264098E-17	8.184043E-18
7.308088E+03	7.226646E-17	8.138382E-18
7.317991E+03	7.189436E-17	8.093246E-18
7.327894E+03	7.152790E-17	8.048994E-18
7.337796E+03	7.116567E-17	8.005469E-18
7.347699E+03	7.080800E-17	7.962706E-18
7.357601E+03	7.045522E-17	7.920743E-18
7.367504E+03	7.011089E-17	7.879978E-18
7.377406E+03	6.977719E-17	7.840655E-18
7.387309E+03	6.945917E-17	7.803343E-18
7.397211E+03	6.916208E-17	7.768628E-18
7.407114E+03	6.888640E-17	7.736565E-18
7.417017E+03	6.863543E-17	7.707521E-18
7.426919E+03	6.841368E-17	7.681998E-18
7.436822E+03	6.821891E-17	7.659738E-18
7.446724E+03	6.805419E-17	7.641081E-18
7.456627E+03	6.791887E-17	7.625948E-18
7.466529E+03	6.781181E-17	7.614208E-18
7.476432E+03	6.773129E-17	7.605664E-18
7.486334E+03	6.767546E-17	7.600105E-18
7.496237E+03	6.764393E-17	7.597484E-18
7.506140E+03	6.763318E-17	7.597405E-18
7.516042E+03	6.764306E-17	7.599847E-18
7.525945E+03	6.767016E-17	7.604426E-18
7.535847E+03	6.771443E-17	7.611137E-18
7.545750E+03	6.777440E-17	7.619810E-18
7.555652E+03	6.784707E-17	7.630109E-18
7.565555E+03	6.793275E-17	7.642067E-18
7.575457E+03	6.803012E-17	7.655534E-18
7.585360E+03	6.813653E-17	7.670213E-18
7.595263E+03	6.825250E-17	7.686158E-18
7.605165E+03	6.837538E-17	7.703074E-18
7.615068E+03	6.850752E-17	7.721220E-18
7.624970E+03	6.864474E-17	7.740129E-18
7.634873E+03	6.878786E-17	7.759890E-18
7.644775E+03	6.893445E-17	7.780228E-18
7.654678E+03	6.908542E-17	7.801245E-18
7.664581E+03	6.924000E-17	7.822853E-18
7.674483E+03	6.939760E-17	7.844984E-18
7.684386E+03	6.955577E-17	7.867359E-18
