#wls	flux	fluxerr
1.584409E+03	7.070432E-17	1.248044E-17
1.624020E+03	7.360129E-17	1.299169E-17
1.663630E+03	7.626252E-17	1.346131E-17
1.703240E+03	7.862762E-17	1.387865E-17
1.742850E+03	8.066380E-17	1.423791E-17
1.782461E+03	8.227941E-17	1.452293E-17
1.822071E+03	8.337694E-17	1.471650E-17
1.861681E+03	8.386193E-17	1.480193E-17
1.901291E+03	8.361055E-17	1.475739E-17
1.940902E+03	8.254400E-17	1.456896E-17
1.980512E+03	8.064177E-17	1.423303E-17
2.020122E+03	7.804046E-17	1.377373E-17
2.059732E+03	7.506716E-17	1.324877E-17
2.099342E+03	7.225663E-17	1.275255E-17
2.138953E+03	7.016615E-17	1.238341E-17
2.178563E+03	6.908461E-17	1.219234E-17
2.218173E+03	6.888963E-17	1.215773E-17
2.257783E+03	6.915437E-17	1.220424E-17
2.297394E+03	6.938224E-17	1.224424E-17
2.337004E+03	6.922238E-17	1.221580E-17
2.376614E+03	6.848353E-17	1.208518E-17
2.416224E+03	6.711375E-17	1.184323E-17
2.455835E+03	6.515741E-17	1.149776E-17
2.495445E+03	6.268660E-17	1.106152E-17
2.535055E+03	5.979820E-17	1.055161E-17
2.574665E+03	5.658676E-17	9.984709E-18
2.614276E+03	5.314502E-17	9.377193E-18
2.653886E+03	4.955231E-17	8.743060E-18
2.693496E+03	4.588109E-17	8.095100E-18
2.733106E+03	4.219501E-17	7.444544E-18
2.772716E+03	3.854947E-17	6.801168E-18
2.812327E+03	3.499320E-17	6.173572E-18
2.851937E+03	3.156969E-17	5.569426E-18
2.891547E+03	2.831576E-17	4.995226E-18
2.931157E+03	2.526199E-17	4.456367E-18
2.970768E+03	2.243110E-17	3.956853E-18
2.980670E+03	2.176066E-17	3.838557E-18
2.990573E+03	2.110474E-17	3.722821E-18
3.000475E+03	2.046429E-17	3.609818E-18
3.010378E+03	1.983884E-17	3.499461E-18
3.020280E+03	1.922878E-17	3.391821E-18
3.030183E+03	1.863444E-17	3.286955E-18
3.040086E+03	1.805513E-17	3.184743E-18
3.049988E+03	1.749259E-17	3.085490E-18
3.059891E+03	1.694653E-17	2.989145E-18
3.069793E+03	1.641712E-17	2.895738E-18
3.079696E+03	1.590353E-17	2.805123E-18
3.089598E+03	1.540534E-17	2.717226E-18
3.099501E+03	1.492273E-17	2.632079E-18
3.109403E+03	1.445473E-17	2.549509E-18
3.119306E+03	1.400181E-17	2.469601E-18
3.129209E+03	1.356281E-17	2.392149E-18
3.139111E+03	1.313818E-17	2.317233E-18
3.149014E+03	1.272711E-17	2.244709E-18
3.158916E+03	1.232976E-17	2.174607E-18
3.168819E+03	1.194559E-17	2.106830E-18
3.178721E+03	1.157453E-17	2.041369E-18
3.188624E+03	1.121628E-17	1.978166E-18
3.198526E+03	1.087055E-17	1.917172E-18
3.208429E+03	1.053689E-17	1.858308E-18
3.218332E+03	1.021536E-17	1.801584E-18
3.228234E+03	9.905512E-18	1.746922E-18
3.238137E+03	9.607232E-18	1.694300E-18
3.248039E+03	9.320075E-18	1.643641E-18
3.257942E+03	9.043774E-18	1.594898E-18
3.267844E+03	8.778205E-18	1.548048E-18
3.277747E+03	8.522951E-18	1.503018E-18
3.287650E+03	8.277870E-18	1.459783E-18
3.297552E+03	8.042681E-18	1.418293E-18
3.307455E+03	7.816890E-18	1.378461E-18
3.317357E+03	7.600464E-18	1.340281E-18
3.327260E+03	7.393025E-18	1.303687E-18
3.337162E+03	7.194325E-18	1.268634E-18
3.347065E+03	7.004096E-18	1.235076E-18
3.356967E+03	6.821912E-18	1.202937E-18
3.366870E+03	6.647727E-18	1.172209E-18
3.376773E+03	6.481201E-18	1.142833E-18
3.386675E+03	6.322025E-18	1.114752E-18
3.396578E+03	6.169985E-18	1.087931E-18
3.406480E+03	6.024859E-18	1.062329E-18
3.416383E+03	5.886292E-18	1.037885E-18
3.426285E+03	5.754161E-18	1.014575E-18
3.436188E+03	5.628135E-18	9.923425E-19
3.446090E+03	5.508034E-18	9.711550E-19
3.455993E+03	5.393620E-18	9.509707E-19
3.465896E+03	5.284667E-18	9.317496E-19
3.475798E+03	5.180959E-18	9.134536E-19
3.485701E+03	5.082291E-18	8.960466E-19
3.495603E+03	4.988414E-18	8.794846E-19
3.505506E+03	4.899096E-18	8.637266E-19
3.515408E+03	4.814168E-18	8.487430E-19
3.525311E+03	4.733422E-18	8.344969E-19
3.535213E+03	4.656710E-18	8.209624E-19
3.545116E+03	4.583796E-18	8.080976E-19
3.555019E+03	4.514553E-18	7.958804E-19
3.564921E+03	4.448814E-18	7.842810E-19
3.574824E+03	4.386509E-18	7.732872E-19
3.584726E+03	4.327439E-18	7.628639E-19
3.594629E+03	4.271502E-18	7.529931E-19
3.604531E+03	4.218477E-18	7.436359E-19
3.614434E+03	4.168277E-18	7.347768E-19
3.624337E+03	4.120779E-18	7.263942E-19
3.634239E+03	4.075865E-18	7.184673E-19
3.644142E+03	4.033460E-18	7.109827E-19
3.654044E+03	3.993490E-18	7.039275E-19
3.663947E+03	3.955847E-18	6.972826E-19
3.673849E+03	3.920499E-18	6.910422E-19
3.683752E+03	3.887341E-18	6.851881E-19
3.693654E+03	3.856376E-18	6.797205E-19
3.703557E+03	3.827536E-18	6.746277E-19
3.713460E+03	3.800755E-18	6.698978E-19
3.723362E+03	3.776001E-18	6.655253E-19
3.733265E+03	3.753273E-18	6.615098E-19
3.743167E+03	3.732505E-18	6.578398E-19
3.753070E+03	3.713695E-18	6.545151E-19
3.762972E+03	3.696779E-18	6.515240E-19
3.772875E+03	3.681721E-18	6.488606E-19
3.782777E+03	3.668521E-18	6.465246E-19
3.792680E+03	3.657174E-18	6.445151E-19
3.802583E+03	3.647617E-18	6.428210E-19
3.812485E+03	3.639875E-18	6.414469E-19
3.822388E+03	3.633856E-18	6.403763E-19
3.832290E+03	3.629616E-18	6.396191E-19
3.842193E+03	3.627062E-18	6.391591E-19
3.852095E+03	3.626250E-18	6.390059E-19
3.861998E+03	3.627117E-18	6.391487E-19
3.871900E+03	3.629663E-18	6.395871E-19
3.881803E+03	3.633853E-18	6.403151E-19
3.891706E+03	3.639687E-18	6.413328E-19
3.901608E+03	3.647133E-18	6.426345E-19
3.911511E+03	3.656220E-18	6.442250E-19
3.921413E+03	3.666887E-18	6.460939E-19
3.931316E+03	3.679135E-18	6.482412E-19
3.941218E+03	3.692933E-18	6.506616E-19
3.951121E+03	3.708312E-18	6.533602E-19
3.961024E+03	3.725244E-18	6.563322E-19
3.970926E+03	3.743700E-18	6.595728E-19
3.980829E+03	3.763653E-18	6.630768E-19
3.990731E+03	3.785135E-18	6.668499E-19
4.000634E+03	3.808090E-18	6.708824E-19
4.010536E+03	3.832550E-18	6.751799E-19
4.020439E+03	3.858461E-18	6.797327E-19
4.030341E+03	3.885826E-18	6.845414E-19
4.040244E+03	3.914650E-18	6.896069E-19
4.050147E+03	3.944910E-18	6.949249E-19
4.060049E+03	3.976578E-18	7.004908E-19
4.069952E+03	4.009630E-18	7.063004E-19
4.079854E+03	4.044106E-18	7.123603E-19
4.089757E+03	4.079948E-18	7.186606E-19
4.099659E+03	4.117164E-18	7.252026E-19
4.109562E+03	4.155697E-18	7.319762E-19
4.119464E+03	4.195554E-18	7.389828E-19
4.129367E+03	4.236745E-18	7.462238E-19
4.139270E+03	4.279209E-18	7.536888E-19
4.149172E+03	4.322955E-18	7.613791E-19
4.159075E+03	4.367923E-18	7.692844E-19
4.168977E+03	4.414121E-18	7.774058E-19
4.178880E+03	4.461485E-18	7.857323E-19
4.188782E+03	4.510024E-18	7.942651E-19
4.198685E+03	4.559670E-18	8.029926E-19
4.208587E+03	4.610395E-18	8.119095E-19
4.218490E+03	4.662128E-18	8.210035E-19
4.228393E+03	4.714873E-18	8.302752E-19
4.238295E+03	4.768555E-18	8.397116E-19
4.248198E+03	4.823139E-18	8.493062E-19
4.258100E+03	4.878546E-18	8.590453E-19
4.268003E+03	4.934695E-18	8.689145E-19
4.277905E+03	4.991541E-18	8.789059E-19
4.287808E+03	5.049036E-18	8.890111E-19
4.297711E+03	5.107090E-18	8.992141E-19
4.307613E+03	5.165650E-18	9.095058E-19
4.317516E+03	5.224622E-18	9.198694E-19
4.327418E+03	5.283987E-18	9.303017E-19
4.337321E+03	5.343689E-18	9.407925E-19
4.347223E+03	5.403797E-18	9.513545E-19
4.357126E+03	5.464255E-18	9.619774E-19
4.367028E+03	5.525095E-18	9.726671E-19
4.376931E+03	5.586308E-18	9.834217E-19
4.386834E+03	5.647976E-18	9.942558E-19
4.396736E+03	5.710049E-18	1.005161E-18
4.406639E+03	5.772522E-18	1.016135E-18
4.416541E+03	5.835440E-18	1.027188E-18
4.426444E+03	5.898803E-18	1.038318E-18
4.436346E+03	5.962613E-18	1.049526E-18
4.446249E+03	6.026824E-18	1.060804E-18
4.456151E+03	6.091489E-18	1.072161E-18
4.466054E+03	6.156566E-18	1.083590E-18
4.475957E+03	6.222061E-18	1.095092E-18
4.485859E+03	6.287985E-18	1.106669E-18
4.495762E+03	6.354241E-18	1.118303E-18
4.505664E+03	6.420897E-18	1.130007E-18
4.515567E+03	6.487911E-18	1.141774E-18
4.525469E+03	6.555301E-18	1.153606E-18
4.535372E+03	6.622971E-18	1.165486E-18
4.545274E+03	6.690998E-18	1.177429E-18
4.555177E+03	6.759289E-18	1.189417E-18
4.565080E+03	6.827926E-18	1.201465E-18
4.574982E+03	6.896817E-18	1.213557E-18
4.584885E+03	6.965990E-18	1.225698E-18
4.594787E+03	7.035415E-18	1.237883E-18
4.604690E+03	7.105193E-18	1.250129E-18
4.614592E+03	7.175233E-18	1.262420E-18
4.624495E+03	7.245639E-18	1.274775E-18
4.634398E+03	7.316403E-18	1.287192E-18
4.644300E+03	7.387490E-18	1.299664E-18
4.654203E+03	7.459038E-18	1.312217E-18
4.664105E+03	7.530956E-18	1.324835E-18
4.674008E+03	7.603307E-18	1.337527E-18
4.683910E+03	7.676013E-18	1.350281E-18
4.693813E+03	7.749136E-18	1.363108E-18
4.703715E+03	7.822528E-18	1.375980E-18
4.713618E+03	7.896253E-18	1.388911E-18
4.723521E+03	7.970223E-18	1.401884E-18
4.733423E+03	8.044517E-18	1.414912E-18
4.743326E+03	8.119055E-18	1.427983E-18
4.753228E+03	8.193816E-18	1.441092E-18
4.763131E+03	8.268806E-18	1.454239E-18
4.773033E+03	8.344008E-18	1.467424E-18
4.782936E+03	8.419430E-18	1.480646E-18
4.792838E+03	8.494964E-18	1.493886E-18
4.802741E+03	8.570701E-18	1.507162E-18
4.812644E+03	8.646618E-18	1.520468E-18
4.822546E+03	8.722629E-18	1.533789E-18
4.832449E+03	8.798719E-18	1.547123E-18
4.842351E+03	8.874964E-18	1.560483E-18
4.852254E+03	8.951164E-18	1.573834E-18
4.862156E+03	9.027481E-18	1.587205E-18
4.872059E+03	9.103800E-18	1.600575E-18
4.881961E+03	9.180027E-18	1.613928E-18
4.891864E+03	9.256202E-18	1.627270E-18
4.901767E+03	9.332311E-18	1.640599E-18
4.911669E+03	9.408221E-18	1.653893E-18
4.921572E+03	9.483997E-18	1.667161E-18
4.931474E+03	9.559408E-18	1.680364E-18
4.941377E+03	9.634586E-18	1.693525E-18
4.951279E+03	9.709409E-18	1.706623E-18
4.961182E+03	9.783716E-18	1.719628E-18
4.971085E+03	9.857548E-18	1.732549E-18
4.980987E+03	9.930759E-18	1.745360E-18
4.990890E+03	1.000327E-17	1.758045E-18
5.000792E+03	1.007501E-17	1.770595E-18
5.010695E+03	1.014592E-17	1.782997E-18
5.020597E+03	1.021581E-17	1.795219E-18
5.030500E+03	1.028471E-17	1.807265E-18
5.040402E+03	1.035242E-17	1.819102E-18
5.050305E+03	1.041886E-17	1.830714E-18
5.060208E+03	1.048384E-17	1.842067E-18
5.070110E+03	1.054734E-17	1.853161E-18
5.080013E+03	1.060909E-17	1.863945E-18
5.089915E+03	1.066917E-17	1.874434E-18
5.099818E+03	1.072726E-17	1.884574E-18
5.109720E+03	1.078338E-17	1.894364E-18
5.119623E+03	1.083730E-17	1.903769E-18
5.129525E+03	1.088881E-17	1.912748E-18
5.139428E+03	1.093790E-17	1.921301E-18
5.149331E+03	1.098436E-17	1.929390E-18
5.159233E+03	1.102805E-17	1.936993E-18
5.169136E+03	1.106890E-17	1.944095E-18
5.179038E+03	1.110666E-17	1.950654E-18
5.188941E+03	1.114123E-17	1.956652E-18
5.198843E+03	1.117242E-17	1.962055E-18
5.208746E+03	1.120022E-17	1.966861E-18
5.218648E+03	1.122445E-17	1.971039E-18
5.228551E+03	1.124500E-17	1.974571E-18
5.238454E+03	1.126180E-17	1.977445E-18
5.248356E+03	1.127470E-17	1.979631E-18
5.258259E+03	1.128362E-17	1.981119E-18
5.268161E+03	1.128854E-17	1.981902E-18
5.278064E+03	1.128940E-17	1.981975E-18
5.287966E+03	1.128610E-17	1.981314E-18
5.297869E+03	1.127874E-17	1.979942E-18
5.307772E+03	1.126734E-17	1.977859E-18
5.317674E+03	1.125193E-17	1.975073E-18
5.327577E+03	1.123246E-17	1.971572E-18
5.337479E+03	1.120920E-17	1.967408E-18
5.347382E+03	1.118216E-17	1.962578E-18
5.357284E+03	1.115163E-17	1.957137E-18
5.367187E+03	1.111765E-17	1.951090E-18
5.377089E+03	1.108044E-17	1.944477E-18
5.386992E+03	1.104019E-17	1.937329E-18
5.396895E+03	1.099727E-17	1.929713E-18
5.406797E+03	1.095176E-17	1.921643E-18
5.416700E+03	1.090375E-17	1.913133E-18
5.426602E+03	1.085323E-17	1.904184E-18
5.436505E+03	1.080044E-17	1.894837E-18
5.446407E+03	1.074539E-17	1.885094E-18
5.456310E+03	1.068822E-17	1.874979E-18
5.466212E+03	1.062909E-17	1.864521E-18
5.476115E+03	1.056814E-17	1.853744E-18
5.486018E+03	1.050556E-17	1.842681E-18
5.495920E+03	1.044159E-17	1.831376E-18
5.505823E+03	1.037642E-17	1.819860E-18
5.515725E+03	1.031041E-17	1.808197E-18
5.525628E+03	1.024363E-17	1.796399E-18
5.535530E+03	1.017654E-17	1.784548E-18
5.545433E+03	1.010918E-17	1.772651E-18
5.555335E+03	1.004191E-17	1.760769E-18
5.565238E+03	9.975060E-18	1.748963E-18
5.575141E+03	9.908667E-18	1.737236E-18
5.585043E+03	9.843230E-18	1.725678E-18
5.594946E+03	9.778858E-18	1.714307E-18
5.604848E+03	9.715633E-18	1.703138E-18
5.614751E+03	9.654038E-18	1.692255E-18
5.624653E+03	9.594023E-18	1.681649E-18
5.634556E+03	9.535854E-18	1.671368E-18
5.644459E+03	9.479758E-18	1.661450E-18
5.654361E+03	9.425852E-18	1.651917E-18
5.664264E+03	9.374266E-18	1.642791E-18
5.674166E+03	9.325088E-18	1.634087E-18
5.684069E+03	9.278509E-18	1.625839E-18
5.693971E+03	9.234707E-18	1.618077E-18
5.703874E+03	9.193564E-18	1.610782E-18
5.713776E+03	9.155439E-18	1.604016E-18
5.723679E+03	9.120179E-18	1.597752E-18
5.733582E+03	9.088037E-18	1.592034E-18
5.743484E+03	9.058956E-18	1.586853E-18
5.753387E+03	9.033069E-18	1.582231E-18
5.763289E+03	9.010397E-18	1.578172E-18
5.773192E+03	8.991079E-18	1.574701E-18
5.783094E+03	8.975015E-18	1.571799E-18
5.792997E+03	8.962232E-18	1.569472E-18
5.802899E+03	8.952840E-18	1.567738E-18
5.812802E+03	8.946943E-18	1.566616E-18
5.822705E+03	8.944333E-18	1.566068E-18
5.832607E+03	8.945220E-18	1.566133E-18
5.842510E+03	8.949486E-18	1.566789E-18
5.852412E+03	8.957228E-18	1.568052E-18
5.862315E+03	8.968427E-18	1.569920E-18
5.872217E+03	8.982966E-18	1.572372E-18
5.882120E+03	9.000919E-18	1.575420E-18
5.892022E+03	9.022259E-18	1.579061E-18
5.901925E+03	9.046847E-18	1.583269E-18
5.911828E+03	9.074853E-18	1.588074E-18
5.921730E+03	9.106025E-18	1.593431E-18
5.931633E+03	9.140420E-18	1.599352E-18
5.941535E+03	9.177980E-18	1.605825E-18
5.951438E+03	9.218551E-18	1.612823E-18
5.961340E+03	9.262159E-18	1.620351E-18
5.971243E+03	9.308534E-18	1.628362E-18
5.981146E+03	9.357802E-18	1.636877E-18
5.991048E+03	9.409677E-18	1.645846E-18
6.000951E+03	9.464171E-18	1.655272E-18
6.010853E+03	9.521096E-18	1.665121E-18
6.020756E+03	9.580341E-18	1.675374E-18
6.030658E+03	9.641697E-18	1.685994E-18
6.040561E+03	9.704937E-18	1.696942E-18
6.050463E+03	9.770079E-18	1.708220E-18
6.060366E+03	9.836639E-18	1.719744E-18
6.070269E+03	9.904617E-18	1.731513E-18
6.080171E+03	9.973651E-18	1.743465E-18
6.090074E+03	1.004360E-17	1.755576E-18
6.099976E+03	1.011385E-17	1.767736E-18
6.109879E+03	1.018437E-17	1.779940E-18
6.119781E+03	1.025464E-17	1.792099E-18
6.129684E+03	1.032436E-17	1.804160E-18
6.139586E+03	1.039313E-17	1.816051E-18
6.149489E+03	1.046102E-17	1.827788E-18
6.159392E+03	1.052830E-17	1.839416E-18
6.169294E+03	1.059523E-17	1.850978E-18
6.179197E+03	1.066209E-17	1.862528E-18
6.189099E+03	1.072878E-17	1.874046E-18
6.199002E+03	1.079593E-17	1.885641E-18
6.208904E+03	1.086332E-17	1.897275E-18
6.218807E+03	1.093131E-17	1.909012E-18
6.228709E+03	1.100016E-17	1.920897E-18
6.238612E+03	1.106969E-17	1.932899E-18
6.248515E+03	1.114019E-17	1.945067E-18
6.258417E+03	1.121177E-17	1.957422E-18
6.268320E+03	1.128463E-17	1.969996E-18
6.278222E+03	1.135858E-17	1.982760E-18
6.288125E+03	1.143382E-17	1.995745E-18
6.298027E+03	1.151037E-17	2.008956E-18
6.307930E+03	1.158823E-17	2.022393E-18
6.317833E+03	1.166728E-17	2.036036E-18
6.327735E+03	1.174738E-17	2.049859E-18
6.337638E+03	1.182839E-17	2.063837E-18
6.347540E+03	1.191031E-17	2.077971E-18
6.357443E+03	1.199298E-17	2.092234E-18
6.367345E+03	1.207591E-17	2.106540E-18
6.377248E+03	1.215961E-17	2.120975E-18
6.387150E+03	1.224410E-17	2.135545E-18
6.397053E+03	1.232957E-17	2.150285E-18
6.406956E+03	1.241644E-17	2.165263E-18
6.416858E+03	1.250453E-17	2.180453E-18
6.426761E+03	1.259427E-17	2.195927E-18
6.436663E+03	1.268570E-17	2.211692E-18
6.446566E+03	1.277906E-17	2.227792E-18
6.456468E+03	1.287403E-17	2.244167E-18
6.466371E+03	1.297124E-17	2.260930E-18
6.476273E+03	1.307035E-17	2.278020E-18
6.486176E+03	1.317161E-17	2.295482E-18
6.496079E+03	1.327510E-17	2.313328E-18
6.505981E+03	1.338065E-17	2.331528E-18
6.515884E+03	1.348853E-17	2.350132E-18
6.525786E+03	1.359879E-17	2.369146E-18
6.535689E+03	1.371128E-17	2.388547E-18
6.545591E+03	1.382605E-17	2.408338E-18
6.555494E+03	1.394314E-17	2.428530E-18
6.565396E+03	1.406285E-17	2.449174E-18
6.575299E+03	1.418475E-17	2.470196E-18
6.585202E+03	1.430914E-17	2.491645E-18
6.595104E+03	1.443605E-17	2.513530E-18
6.605007E+03	1.456529E-17	2.535817E-18
6.614909E+03	1.469717E-17	2.558556E-18
6.624812E+03	1.483146E-17	2.581712E-18
6.634714E+03	1.496847E-17	2.605335E-18
6.644617E+03	1.510772E-17	2.629343E-18
6.654520E+03	1.524951E-17	2.653790E-18
6.664422E+03	1.539414E-17	2.678725E-18
6.674325E+03	1.554112E-17	2.704063E-18
6.684227E+03	1.569074E-17	2.729856E-18
6.694130E+03	1.584278E-17	2.756063E-18
6.704032E+03	1.599753E-17	2.782737E-18
6.713935E+03	1.615474E-17	2.809833E-18
6.723837E+03	1.631444E-17	2.837356E-18
6.733740E+03	1.647693E-17	2.865361E-18
6.743643E+03	1.664167E-17	2.893748E-18
6.753545E+03	1.680925E-17	2.922623E-18
6.763448E+03	1.697910E-17	2.951888E-18
6.773350E+03	1.715185E-17	2.981650E-18
6.783253E+03	1.732688E-17	3.011803E-18
6.793155E+03	1.750421E-17	3.042348E-18
6.803058E+03	1.768414E-17	3.073341E-18
6.812960E+03	1.786672E-17	3.104785E-18
6.822863E+03	1.805126E-17	3.136564E-18
6.832766E+03	1.823842E-17	3.168792E-18
6.842668E+03	1.842788E-17	3.201412E-18
6.852571E+03	1.861997E-17	3.234482E-18
6.862473E+03	1.881398E-17	3.267878E-18
6.872376E+03	1.901025E-17	3.301661E-18
6.882278E+03	1.920878E-17	3.335828E-18
6.892181E+03	1.940916E-17	3.370309E-18
6.902083E+03	1.961176E-17	3.405168E-18
6.911986E+03	1.981655E-17	3.440399E-18
6.921889E+03	2.002312E-17	3.475933E-18
6.931791E+03	2.023146E-17	3.511765E-18
6.941694E+03	2.044151E-17	3.547889E-18
6.951596E+03	2.065367E-17	3.584368E-18
6.961499E+03	2.086708E-17	3.621059E-18
6.971401E+03	2.108253E-17	3.658094E-18
6.981304E+03	2.129917E-17	3.695328E-18
6.991207E+03	2.151737E-17	3.732825E-18
7.001109E+03	2.173666E-17	3.770502E-18
7.011012E+03	2.195744E-17	3.808430E-18
7.020914E+03	2.217967E-17	3.846603E-18
7.030817E+03	2.240289E-17	3.884937E-18
7.040719E+03	2.262658E-17	3.923346E-18
7.050622E+03	2.285161E-17	3.961978E-18
7.060524E+03	2.307750E-17	4.000750E-18
7.070427E+03	2.330417E-17	4.039651E-18
7.080330E+03	2.353161E-17	4.078676E-18
7.090232E+03	2.375929E-17	4.117733E-18
7.100135E+03	2.398763E-17	4.156898E-18
7.110037E+03	2.421609E-17	4.196075E-18
7.119940E+03	2.444463E-17	4.235256E-18
7.129842E+03	2.467370E-17	4.274520E-18
7.139745E+03	2.490272E-17	4.313768E-18
7.149647E+03	2.513218E-17	4.353084E-18
7.159550E+03	2.536097E-17	4.392276E-18
7.169453E+03	2.558954E-17	4.431422E-18
7.179355E+03	2.581786E-17	4.470514E-18
7.189258E+03	2.604585E-17	4.509542E-18
7.199160E+03	2.627345E-17	4.548493E-18
7.209063E+03	2.650061E-17	4.587362E-18
7.218965E+03	2.672671E-17	4.626037E-18
7.228868E+03	2.695223E-17	4.664604E-18
7.238770E+03	2.717713E-17	4.703056E-18
7.248673E+03	2.740135E-17	4.741382E-18
7.258576E+03	2.762424E-17	4.779469E-18
7.268478E+03	2.784634E-17	4.817413E-18
7.278381E+03	2.806821E-17	4.855308E-18
7.288283E+03	2.828858E-17	4.892937E-18
7.298186E+03	2.850804E-17	4.930398E-18
7.308088E+03	2.872652E-17	4.967685E-18
7.317991E+03	2.894465E-17	5.004901E-18
7.327894E+03	2.916177E-17	5.041935E-18
7.337796E+03	2.937850E-17	5.078896E-18
7.347699E+03	2.959552E-17	5.115898E-18
7.357601E+03	2.981217E-17	5.152830E-18
7.367504E+03	3.002984E-17	5.189928E-18
7.377406E+03	3.024719E-17	5.226966E-18
7.387309E+03	3.046494E-17	5.264065E-18
7.397211E+03	3.068244E-17	5.301112E-18
7.407114E+03	3.090039E-17	5.338232E-18
7.417017E+03	3.111743E-17	5.375185E-18
7.426919E+03	3.133427E-17	5.412097E-18
7.436822E+03	3.155092E-17	5.448970E-18
7.446724E+03	3.176667E-17	5.485679E-18
7.456627E+03	3.198299E-17	5.522481E-18
7.466529E+03	3.219839E-17	5.559117E-18
7.476432E+03	3.241363E-17	5.595718E-18
7.486334E+03	3.262791E-17	5.632147E-18
7.496237E+03	3.284199E-17	5.668533E-18
7.506140E+03	3.305505E-17	5.704738E-18
7.516042E+03	3.326783E-17	5.740887E-18
7.525945E+03	3.347948E-17	5.776836E-18
7.535847E+03	3.368994E-17	5.812572E-18
7.545750E+03	3.389994E-17	5.848223E-18
7.555652E+03	3.410858E-17	5.883633E-18
7.565555E+03	3.431576E-17	5.918785E-18
7.575457E+03	3.452218E-17	5.953800E-18
7.585360E+03	3.472691E-17	5.988518E-18
7.595263E+03	3.493065E-17	6.023059E-18
7.605165E+03	3.513154E-17	6.057102E-18
7.615068E+03	3.533111E-17	6.090914E-18
7.624970E+03	3.552924E-17	6.124470E-18
7.634873E+03	3.572483E-17	6.157584E-18
7.644775E+03	3.591859E-17	6.190378E-18
7.654678E+03	3.610941E-17	6.222659E-18
7.664581E+03	3.629707E-17	6.254391E-18
7.674483E+03	3.648225E-17	6.285691E-18
7.684386E+03	3.666472E-17	6.316519E-18
