#wls	flux	fluxerr
1.584409E+03	7.623987E-17	9.838710E-18
1.624020E+03	7.959117E-17	1.027085E-17
1.663630E+03	8.272378E-17	1.067474E-17
1.703240E+03	8.558336E-17	1.104335E-17
1.742850E+03	8.812059E-17	1.137034E-17
1.782461E+03	9.024464E-17	1.164398E-17
1.822071E+03	9.184778E-17	1.185038E-17
1.861681E+03	9.280727E-17	1.197372E-17
1.901291E+03	9.298736E-17	1.199647E-17
1.940902E+03	9.228294E-17	1.190511E-17
1.980512E+03	9.066502E-17	1.169590E-17
2.020122E+03	8.826427E-17	1.138571E-17
2.059732E+03	8.544764E-17	1.102189E-17
2.099342E+03	8.282434E-17	1.068303E-17
2.138953E+03	8.103676E-17	1.045197E-17
2.178563E+03	8.045860E-17	1.037691E-17
2.218173E+03	8.097455E-17	1.044294E-17
2.257783E+03	8.208813E-17	1.058603E-17
2.297394E+03	8.323801E-17	1.073376E-17
2.337004E+03	8.398288E-17	1.082924E-17
2.376614E+03	8.405507E-17	1.083797E-17
2.416224E+03	8.334169E-17	1.074538E-17
2.455835E+03	8.183591E-17	1.055064E-17
2.495445E+03	7.959688E-17	1.026137E-17
2.535055E+03	7.670616E-17	9.888119E-18
2.574665E+03	7.326454E-17	9.443882E-18
2.614276E+03	6.936900E-17	8.941177E-18
2.653886E+03	6.511139E-17	8.391856E-18
2.693496E+03	6.058777E-17	7.808311E-18
2.733106E+03	5.588503E-17	7.201749E-18
2.772716E+03	5.108664E-17	6.582933E-18
2.812327E+03	4.627088E-17	5.961954E-18
2.851937E+03	4.151321E-17	5.348538E-18
2.891547E+03	3.688978E-17	4.752499E-18
2.931157E+03	3.247443E-17	4.183346E-18
2.970768E+03	2.832578E-17	3.648628E-18
2.980670E+03	2.733531E-17	3.520975E-18
2.990573E+03	2.636569E-17	3.396012E-18
3.000475E+03	2.541589E-17	3.273607E-18
3.010378E+03	2.448680E-17	3.153873E-18
3.020280E+03	2.357972E-17	3.036979E-18
3.030183E+03	2.269371E-17	2.922804E-18
3.040086E+03	2.183026E-17	2.811537E-18
3.049988E+03	2.099025E-17	2.703295E-18
3.059891E+03	2.017451E-17	2.598182E-18
3.069793E+03	1.938268E-17	2.496152E-18
3.079696E+03	1.861528E-17	2.397273E-18
3.089598E+03	1.787167E-17	2.301460E-18
3.099501E+03	1.715198E-17	2.208733E-18
3.109403E+03	1.645602E-17	2.119064E-18
3.119306E+03	1.578357E-17	2.032427E-18
3.129209E+03	1.513471E-17	1.948831E-18
3.139111E+03	1.450942E-17	1.868273E-18
3.149014E+03	1.390684E-17	1.790643E-18
3.158916E+03	1.332739E-17	1.715994E-18
3.168819E+03	1.277040E-17	1.644241E-18
3.178721E+03	1.223565E-17	1.575353E-18
3.188624E+03	1.172263E-17	1.509267E-18
3.198526E+03	1.123065E-17	1.445891E-18
3.208429E+03	1.075975E-17	1.385232E-18
3.218332E+03	1.030880E-17	1.327145E-18
3.228234E+03	9.877763E-18	1.271624E-18
3.238137E+03	9.466015E-18	1.218588E-18
3.248039E+03	9.072624E-18	1.167917E-18
3.257942E+03	8.697413E-18	1.119589E-18
3.267844E+03	8.339479E-18	1.073488E-18
3.277747E+03	7.998311E-18	1.029546E-18
3.287650E+03	7.673290E-18	9.876850E-19
3.297552E+03	7.363893E-18	9.478367E-19
3.307455E+03	7.069379E-18	9.099059E-19
3.317357E+03	6.789149E-18	8.738153E-19
3.327260E+03	6.522604E-18	8.394876E-19
3.337162E+03	6.269248E-18	8.068591E-19
3.347065E+03	6.028421E-18	7.758445E-19
3.356967E+03	5.799574E-18	7.463733E-19
3.366870E+03	5.582176E-18	7.183767E-19
3.376773E+03	5.375642E-18	6.917796E-19
3.386675E+03	5.179487E-18	6.665193E-19
3.396578E+03	4.993241E-18	6.425353E-19
3.406480E+03	4.816394E-18	6.197620E-19
3.416383E+03	4.648520E-18	5.981444E-19
3.426285E+03	4.489157E-18	5.776230E-19
3.436188E+03	4.337870E-18	5.581417E-19
3.446090E+03	4.194250E-18	5.396477E-19
3.455993E+03	4.057864E-18	5.220855E-19
3.465896E+03	3.928399E-18	5.054145E-19
3.475798E+03	3.805469E-18	4.895852E-19
3.485701E+03	3.688677E-18	4.745463E-19
3.495603E+03	3.577619E-18	4.602458E-19
3.505506E+03	3.472034E-18	4.466501E-19
3.515408E+03	3.371569E-18	4.337136E-19
3.525311E+03	3.275833E-18	4.213863E-19
3.535213E+03	3.184569E-18	4.096347E-19
3.545116E+03	3.097504E-18	3.984239E-19
3.555019E+03	3.014355E-18	3.877173E-19
3.564921E+03	2.934835E-18	3.774781E-19
3.574824E+03	2.858788E-18	3.676860E-19
3.584726E+03	2.786008E-18	3.583147E-19
3.594629E+03	2.716307E-18	3.493398E-19
3.604531E+03	2.649623E-18	3.407535E-19
3.614434E+03	2.585821E-18	3.325381E-19
3.624337E+03	2.524790E-18	3.246795E-19
3.634239E+03	2.466441E-18	3.171663E-19
3.644142E+03	2.410687E-18	3.099873E-19
3.654044E+03	2.357417E-18	3.031279E-19
3.663947E+03	2.306582E-18	2.965820E-19
3.673849E+03	2.258052E-18	2.903328E-19
3.683752E+03	2.211757E-18	2.843714E-19
3.693654E+03	2.167645E-18	2.786909E-19
3.703557E+03	2.125575E-18	2.732733E-19
3.713460E+03	2.085531E-18	2.681163E-19
3.723362E+03	2.047377E-18	2.632027E-19
3.733265E+03	2.011081E-18	2.585282E-19
3.743167E+03	1.976565E-18	2.540827E-19
3.753070E+03	1.943750E-18	2.498561E-19
3.762972E+03	1.912578E-18	2.458410E-19
3.772875E+03	1.882976E-18	2.420279E-19
3.782777E+03	1.854891E-18	2.384100E-19
3.792680E+03	1.828273E-18	2.349808E-19
3.802583E+03	1.803056E-18	2.317318E-19
3.812485E+03	1.779196E-18	2.286574E-19
3.822388E+03	1.756648E-18	2.257518E-19
3.832290E+03	1.735357E-18	2.230079E-19
3.842193E+03	1.715283E-18	2.204205E-19
3.852095E+03	1.696390E-18	2.179849E-19
3.861998E+03	1.678627E-18	2.156949E-19
3.871900E+03	1.661962E-18	2.135459E-19
3.881803E+03	1.646350E-18	2.115323E-19
3.891706E+03	1.631771E-18	2.096515E-19
3.901608E+03	1.618184E-18	2.078983E-19
3.911511E+03	1.605559E-18	2.062687E-19
3.921413E+03	1.593844E-18	2.047562E-19
3.931316E+03	1.583036E-18	2.033601E-19
3.941218E+03	1.573084E-18	2.020742E-19
3.951121E+03	1.563965E-18	2.008953E-19
3.961024E+03	1.555642E-18	1.998186E-19
3.970926E+03	1.548103E-18	1.988427E-19
3.980829E+03	1.541302E-18	1.979617E-19
3.990731E+03	1.535231E-18	1.971743E-19
4.000634E+03	1.529845E-18	1.964750E-19
4.010536E+03	1.525138E-18	1.958629E-19
4.020439E+03	1.521066E-18	1.953323E-19
4.030341E+03	1.517614E-18	1.948813E-19
4.040244E+03	1.514764E-18	1.945076E-19
4.050147E+03	1.512500E-18	1.942092E-19
4.060049E+03	1.510785E-18	1.939812E-19
4.069952E+03	1.509605E-18	1.938219E-19
4.079854E+03	1.508935E-18	1.937280E-19
4.089757E+03	1.508763E-18	1.936980E-19
4.099659E+03	1.509077E-18	1.937304E-19
4.109562E+03	1.509844E-18	1.938209E-19
4.119464E+03	1.511066E-18	1.939697E-19
4.129367E+03	1.512709E-18	1.941725E-19
4.139270E+03	1.514767E-18	1.944284E-19
4.149172E+03	1.517230E-18	1.947363E-19
4.159075E+03	1.520069E-18	1.950925E-19
4.168977E+03	1.523278E-18	1.954959E-19
4.178880E+03	1.526839E-18	1.959445E-19
4.188782E+03	1.530759E-18	1.964390E-19
4.198685E+03	1.535000E-18	1.969746E-19
4.208587E+03	1.539568E-18	1.975522E-19
4.218490E+03	1.544438E-18	1.981683E-19
4.228393E+03	1.549618E-18	1.988242E-19
4.238295E+03	1.555072E-18	1.995150E-19
4.248198E+03	1.560796E-18	2.002404E-19
4.258100E+03	1.566791E-18	2.010004E-19
4.268003E+03	1.573018E-18	2.017900E-19
4.277905E+03	1.579488E-18	2.026108E-19
4.287808E+03	1.586151E-18	2.034561E-19
4.297711E+03	1.593018E-18	2.043275E-19
4.307613E+03	1.600025E-18	2.052166E-19
4.317516E+03	1.607169E-18	2.061233E-19
4.327418E+03	1.614489E-18	2.070522E-19
4.337321E+03	1.621981E-18	2.080032E-19
4.347223E+03	1.629657E-18	2.089777E-19
4.357126E+03	1.637519E-18	2.099757E-19
4.367028E+03	1.645540E-18	2.109940E-19
4.376931E+03	1.653747E-18	2.120360E-19
4.386834E+03	1.662114E-18	2.130984E-19
4.396736E+03	1.670643E-18	2.141814E-19
4.406639E+03	1.679323E-18	2.152835E-19
4.416541E+03	1.688155E-18	2.164049E-19
4.426444E+03	1.697113E-18	2.175424E-19
4.436346E+03	1.706217E-18	2.186983E-19
4.446249E+03	1.715441E-18	2.198695E-19
4.456151E+03	1.724775E-18	2.210546E-19
4.466054E+03	1.734241E-18	2.222564E-19
4.475957E+03	1.743802E-18	2.234702E-19
4.485859E+03	1.753467E-18	2.246970E-19
4.495762E+03	1.763243E-18	2.259380E-19
4.505664E+03	1.773116E-18	2.271912E-19
4.515567E+03	1.783098E-18	2.284581E-19
4.525469E+03	1.793172E-18	2.297365E-19
4.535372E+03	1.803354E-18	2.310287E-19
4.545274E+03	1.813646E-18	2.323347E-19
4.555177E+03	1.824050E-18	2.336548E-19
4.565080E+03	1.834553E-18	2.349875E-19
4.574982E+03	1.845190E-18	2.363369E-19
4.584885E+03	1.855930E-18	2.376995E-19
4.594787E+03	1.866795E-18	2.390778E-19
4.604690E+03	1.877785E-18	2.404719E-19
4.614592E+03	1.888890E-18	2.418803E-19
4.624495E+03	1.900143E-18	2.433076E-19
4.634398E+03	1.911515E-18	2.447499E-19
4.644300E+03	1.923025E-18	2.462096E-19
4.654203E+03	1.934712E-18	2.476916E-19
4.664105E+03	1.946562E-18	2.491943E-19
4.674008E+03	1.958597E-18	2.507203E-19
4.683910E+03	1.970837E-18	2.522724E-19
4.693813E+03	1.983289E-18	2.538514E-19
4.703715E+03	1.995958E-18	2.554578E-19
4.713618E+03	2.008884E-18	2.570969E-19
4.723521E+03	2.022039E-18	2.587650E-19
4.733423E+03	2.035464E-18	2.604673E-19
4.743326E+03	2.049166E-18	2.622048E-19
4.753228E+03	2.063133E-18	2.639758E-19
4.763131E+03	2.077410E-18	2.657861E-19
4.773033E+03	2.091985E-18	2.676344E-19
4.782936E+03	2.106867E-18	2.695216E-19
4.792838E+03	2.122066E-18	2.714489E-19
4.802741E+03	2.137590E-18	2.734176E-19
4.812644E+03	2.153491E-18	2.754340E-19
4.822546E+03	2.169719E-18	2.774920E-19
4.832449E+03	2.186326E-18	2.795979E-19
4.842351E+03	2.203304E-18	2.817510E-19
4.852254E+03	2.220686E-18	2.839554E-19
4.862156E+03	2.238462E-18	2.862098E-19
4.872059E+03	2.256648E-18	2.885161E-19
4.881961E+03	2.275275E-18	2.908784E-19
4.891864E+03	2.294313E-18	2.932929E-19
4.901767E+03	2.313798E-18	2.957640E-19
4.911669E+03	2.333740E-18	2.982931E-19
4.921572E+03	2.354151E-18	3.008816E-19
4.931474E+03	2.375020E-18	3.035283E-19
4.941377E+03	2.396358E-18	3.062344E-19
4.951279E+03	2.418197E-18	3.090039E-19
4.961182E+03	2.440502E-18	3.118326E-19
4.971085E+03	2.463327E-18	3.147271E-19
4.980987E+03	2.486634E-18	3.176827E-19
4.990890E+03	2.510431E-18	3.207004E-19
5.000792E+03	2.534749E-18	3.237840E-19
5.010695E+03	2.559570E-18	3.269313E-19
5.020597E+03	2.584900E-18	3.301431E-19
5.030500E+03	2.610720E-18	3.334169E-19
5.040402E+03	2.637059E-18	3.367562E-19
5.050305E+03	2.663920E-18	3.401617E-19
5.060208E+03	2.691256E-18	3.436271E-19
5.070110E+03	2.719096E-18	3.471561E-19
5.080013E+03	2.747439E-18	3.507488E-19
5.089915E+03	2.776290E-18	3.544055E-19
5.099818E+03	2.805623E-18	3.581232E-19
5.109720E+03	2.835440E-18	3.619020E-19
5.119623E+03	2.865718E-18	3.657387E-19
5.129525E+03	2.896513E-18	3.696407E-19
5.139428E+03	2.927773E-18	3.736012E-19
5.149331E+03	2.959502E-18	3.776209E-19
5.159233E+03	2.991702E-18	3.817000E-19
5.169136E+03	3.024408E-18	3.858427E-19
5.179038E+03	3.057564E-18	3.900419E-19
5.188941E+03	3.091171E-18	3.942979E-19
5.198843E+03	3.125292E-18	3.986185E-19
5.208746E+03	3.159836E-18	4.029923E-19
5.218648E+03	3.194864E-18	4.074269E-19
5.228551E+03	3.230343E-18	4.119181E-19
5.238454E+03	3.266271E-18	4.164656E-19
5.248356E+03	3.302678E-18	4.210732E-19
5.258259E+03	3.339491E-18	4.257316E-19
5.268161E+03	3.376737E-18	4.304443E-19
5.278064E+03	3.414409E-18	4.352102E-19
5.287966E+03	3.452496E-18	4.400281E-19
5.297869E+03	3.491022E-18	4.449009E-19
5.307772E+03	3.529904E-18	4.498181E-19
5.317674E+03	3.569160E-18	4.547818E-19
5.327577E+03	3.608770E-18	4.597896E-19
5.337479E+03	3.648676E-18	4.648340E-19
5.347382E+03	3.688923E-18	4.699206E-19
5.357284E+03	3.729444E-18	4.750412E-19
5.367187E+03	3.770171E-18	4.801867E-19
5.377089E+03	3.811065E-18	4.853525E-19
5.386992E+03	3.852125E-18	4.905383E-19
5.396895E+03	3.893232E-18	4.957289E-19
5.406797E+03	3.934378E-18	5.009232E-19
5.416700E+03	3.975515E-18	5.061151E-19
5.426602E+03	4.016511E-18	5.112880E-19
5.436505E+03	4.057309E-18	5.164345E-19
5.446407E+03	4.097890E-18	5.215520E-19
5.456310E+03	4.138147E-18	5.266273E-19
5.466212E+03	4.177971E-18	5.316461E-19
5.476115E+03	4.217244E-18	5.365937E-19
5.486018E+03	4.255974E-18	5.414710E-19
5.495920E+03	4.293950E-18	5.462512E-19
5.505823E+03	4.331128E-18	5.509286E-19
5.515725E+03	4.367374E-18	5.554863E-19
5.525628E+03	4.402594E-18	5.599123E-19
5.535530E+03	4.436690E-18	5.641945E-19
5.545433E+03	4.469522E-18	5.683146E-19
5.555335E+03	4.501032E-18	5.722656E-19
5.565238E+03	4.531075E-18	5.760290E-19
5.575141E+03	4.559503E-18	5.795860E-19
5.585043E+03	4.586310E-18	5.829360E-19
5.594946E+03	4.611353E-18	5.860609E-19
5.604848E+03	4.634495E-18	5.889432E-19
5.614751E+03	4.655698E-18	5.915782E-19
5.624653E+03	4.674933E-18	5.939623E-19
5.634556E+03	4.692033E-18	5.960745E-19
5.644459E+03	4.706986E-18	5.979131E-19
5.654361E+03	4.719789E-18	5.994779E-19
5.664264E+03	4.730348E-18	6.007570E-19
5.674166E+03	4.738679E-18	6.017528E-19
5.684069E+03	4.744706E-18	6.024552E-19
5.693971E+03	4.748458E-18	6.028686E-19
5.703874E+03	4.749926E-18	6.029914E-19
5.713776E+03	4.749157E-18	6.028299E-19
5.723679E+03	4.746050E-18	6.023714E-19
5.733582E+03	4.740767E-18	6.016365E-19
5.743484E+03	4.733221E-18	6.006142E-19
5.753387E+03	4.723485E-18	5.993140E-19
5.763289E+03	4.711589E-18	5.977397E-19
5.773192E+03	4.697569E-18	5.958959E-19
5.783094E+03	4.681521E-18	5.937949E-19
5.792997E+03	4.663497E-18	5.914435E-19
5.802899E+03	4.643560E-18	5.888496E-19
5.812802E+03	4.621728E-18	5.860158E-19
5.822705E+03	4.598186E-18	5.829654E-19
5.832607E+03	4.572970E-18	5.797031E-19
5.842510E+03	4.546224E-18	5.762472E-19
5.852412E+03	4.517998E-18	5.726043E-19
5.862315E+03	4.488446E-18	5.687938E-19
5.872217E+03	4.457673E-18	5.648292E-19
5.882120E+03	4.425782E-18	5.607234E-19
5.892022E+03	4.392877E-18	5.564899E-19
5.901925E+03	4.359060E-18	5.521414E-19
5.911828E+03	4.324478E-18	5.476968E-19
5.921730E+03	4.289128E-18	5.431556E-19
5.931633E+03	4.253202E-18	5.385423E-19
5.941535E+03	4.216739E-18	5.338617E-19
5.951438E+03	4.179825E-18	5.291249E-19
5.961340E+03	4.142593E-18	5.243484E-19
5.971243E+03	4.105019E-18	5.195298E-19
5.981146E+03	4.067280E-18	5.146910E-19
5.991048E+03	4.029347E-18	5.098285E-19
6.000951E+03	3.991337E-18	5.049571E-19
6.010853E+03	3.953314E-18	5.000849E-19
6.020756E+03	3.915290E-18	4.952137E-19
6.030658E+03	3.877322E-18	4.903504E-19
6.040561E+03	3.839465E-18	4.855018E-19
6.050463E+03	3.801767E-18	4.806745E-19
6.060366E+03	3.764277E-18	4.758744E-19
6.070269E+03	3.727038E-18	4.711068E-19
6.080171E+03	3.690091E-18	4.663771E-19
6.090074E+03	3.653473E-18	4.616899E-19
6.099976E+03	3.617265E-18	4.570554E-19
6.109879E+03	3.581544E-18	4.524833E-19
6.119781E+03	3.546384E-18	4.479830E-19
6.129684E+03	3.511809E-18	4.435575E-19
6.139586E+03	3.477842E-18	4.392096E-19
6.149489E+03	3.444458E-18	4.349362E-19
6.159392E+03	3.411675E-18	4.307396E-19
6.169294E+03	3.379509E-18	4.266217E-19
6.179197E+03	3.347931E-18	4.225788E-19
6.189099E+03	3.316997E-18	4.186181E-19
6.199002E+03	3.286809E-18	4.147522E-19
6.208904E+03	3.257328E-18	4.109764E-19
6.218807E+03	3.228607E-18	4.072971E-19
6.228709E+03	3.200740E-18	4.037264E-19
6.238612E+03	3.173686E-18	4.002590E-19
6.248515E+03	3.147580E-18	3.969116E-19
6.258417E+03	3.122467E-18	3.936902E-19
6.268320E+03	3.098302E-18	3.905891E-19
6.278222E+03	3.075218E-18	3.876247E-19
6.288125E+03	3.053256E-18	3.848023E-19
6.298027E+03	3.032414E-18	3.821216E-19
6.307930E+03	3.012735E-18	3.795880E-19
6.317833E+03	2.994347E-18	3.772174E-19
6.327735E+03	2.977203E-18	3.750040E-19
6.337638E+03	2.961347E-18	3.729531E-19
6.347540E+03	2.946864E-18	3.710756E-19
6.357443E+03	2.933621E-18	3.693545E-19
6.367345E+03	2.921531E-18	3.677787E-19
6.377248E+03	2.910548E-18	3.663426E-19
6.387150E+03	2.900630E-18	3.650406E-19
6.397053E+03	2.891688E-18	3.638615E-19
6.406956E+03	2.883720E-18	3.628052E-19
6.416858E+03	2.876682E-18	3.618660E-19
6.426761E+03	2.870575E-18	3.610437E-19
6.436663E+03	2.865354E-18	3.603330E-19
6.446566E+03	2.861018E-18	3.597336E-19
6.456468E+03	2.857567E-18	3.592454E-19
6.466371E+03	2.854957E-18	3.588627E-19
6.476273E+03	2.853233E-18	3.585913E-19
6.486176E+03	2.852394E-18	3.584310E-19
6.496079E+03	2.852395E-18	3.583761E-19
6.505981E+03	2.853283E-18	3.584323E-19
6.515884E+03	2.855014E-18	3.585942E-19
6.525786E+03	2.857586E-18	3.588614E-19
6.535689E+03	2.861049E-18	3.592401E-19
6.545591E+03	2.865308E-18	3.597184E-19
6.555494E+03	2.870506E-18	3.603144E-19
6.565396E+03	2.876504E-18	3.610101E-19
6.575299E+03	2.883398E-18	3.618180E-19
6.585202E+03	2.891142E-18	3.627319E-19
6.595104E+03	2.899738E-18	3.637522E-19
6.605007E+03	2.909238E-18	3.648853E-19
6.614909E+03	2.919594E-18	3.661253E-19
6.624812E+03	2.930810E-18	3.674724E-19
6.634714E+03	2.942889E-18	3.689269E-19
6.644617E+03	2.955883E-18	3.704955E-19
6.654520E+03	2.969695E-18	3.721659E-19
6.664422E+03	2.984431E-18	3.739513E-19
6.674325E+03	3.000043E-18	3.758455E-19
6.684227E+03	3.016535E-18	3.778492E-19
6.694130E+03	3.033913E-18	3.799628E-19
6.704032E+03	3.052177E-18	3.821866E-19
6.713935E+03	3.071390E-18	3.845282E-19
6.723837E+03	3.091447E-18	3.869743E-19
6.733740E+03	3.112405E-18	3.895323E-19
6.743643E+03	3.134272E-18	3.922027E-19
6.753545E+03	3.157050E-18	3.949861E-19
6.763448E+03	3.180747E-18	3.978833E-19
6.773350E+03	3.205367E-18	4.008945E-19
6.783253E+03	3.230914E-18	4.040206E-19
6.793155E+03	3.257335E-18	4.072546E-19
6.803058E+03	3.284694E-18	4.106044E-19
6.812960E+03	3.312994E-18	4.140705E-19
6.822863E+03	3.342181E-18	4.176459E-19
6.832766E+03	3.372317E-18	4.213384E-19
6.842668E+03	3.403409E-18	4.251489E-19
6.852571E+03	3.435397E-18	4.290696E-19
6.862473E+03	3.468282E-18	4.331008E-19
6.872376E+03	3.502133E-18	4.372509E-19
6.882278E+03	3.536887E-18	4.415120E-19
6.892181E+03	3.572546E-18	4.458842E-19
6.902083E+03	3.609181E-18	4.503765E-19
6.911986E+03	3.646727E-18	4.549805E-19
6.921889E+03	3.685184E-18	4.596964E-19
6.931791E+03	3.724484E-18	4.645154E-19
6.941694E+03	3.764771E-18	4.694556E-19
6.951596E+03	3.805977E-18	4.745081E-19
6.961499E+03	3.848104E-18	4.796735E-19
6.971401E+03	3.891076E-18	4.849421E-19
6.981304E+03	3.934971E-18	4.903235E-19
6.991207E+03	3.979712E-18	4.958081E-19
7.001109E+03	4.025458E-18	5.014156E-19
7.011012E+03	4.071970E-18	5.071161E-19
7.020914E+03	4.119408E-18	5.129296E-19
7.030817E+03	4.167689E-18	5.188457E-19
7.040719E+03	4.216898E-18	5.248748E-19
7.050622E+03	4.266863E-18	5.309955E-19
7.060524E+03	4.317752E-18	5.372287E-19
7.070427E+03	4.369390E-18	5.435524E-19
7.080330E+03	4.421860E-18	5.499770E-19
7.090232E+03	4.475159E-18	5.565020E-19
7.100135E+03	4.529285E-18	5.631271E-19
7.110037E+03	4.584137E-18	5.698398E-19
7.119940E+03	4.639709E-18	5.766391E-19
7.129842E+03	4.696090E-18	5.835361E-19
7.139745E+03	4.753177E-18	5.905180E-19
7.149647E+03	4.811061E-18	5.975960E-19
7.159550E+03	4.869530E-18	6.047436E-19
7.169453E+03	4.928781E-18	6.119855E-19
7.179355E+03	4.988701E-18	6.193072E-19
7.189258E+03	5.049277E-18	6.267075E-19
7.199160E+03	5.110500E-18	6.341849E-19
7.209063E+03	5.172355E-18	6.417376E-19
7.218965E+03	5.234832E-18	6.493642E-19
7.228868E+03	5.298030E-18	6.570772E-19
7.238770E+03	5.361704E-18	6.648460E-19
7.248673E+03	5.426196E-18	6.727127E-19
7.258576E+03	5.491376E-18	6.806617E-19
7.268478E+03	5.557107E-18	6.886755E-19
7.278381E+03	5.623752E-18	6.967993E-19
7.288283E+03	5.691052E-18	7.050007E-19
7.298186E+03	5.759385E-18	7.133268E-19
7.308088E+03	5.828621E-18	7.217612E-19
7.317991E+03	5.898893E-18	7.303202E-19
7.327894E+03	5.970342E-18	7.390215E-19
7.337796E+03	6.042978E-18	7.478660E-19
7.347699E+03	6.117096E-18	7.568902E-19
7.357601E+03	6.192866E-18	7.661150E-19
7.367504E+03	6.270172E-18	7.755260E-19
7.377406E+03	6.349040E-18	7.851262E-19
7.387309E+03	6.429495E-18	7.949188E-19
7.397211E+03	6.511410E-18	8.048877E-19
7.407114E+03	6.594645E-18	8.150156E-19
7.417017E+03	6.679052E-18	8.252841E-19
7.426919E+03	6.764633E-18	8.356936E-19
7.436822E+03	6.851227E-18	8.462238E-19
7.446724E+03	6.938660E-18	8.568533E-19
7.456627E+03	7.027090E-18	8.676016E-19
7.466529E+03	7.116163E-18	8.784248E-19
7.476432E+03	7.205858E-18	8.893203E-19
7.486334E+03	7.296152E-18	9.002853E-19
7.496237E+03	7.387022E-18	9.113170E-19
7.506140E+03	7.478449E-18	9.224129E-19
7.516042E+03	7.570216E-18	9.335462E-19
7.525945E+03	7.662292E-18	9.447130E-19
7.535847E+03	7.754834E-18	9.559328E-19
7.545750E+03	7.847614E-18	9.671776E-19
7.555652E+03	7.940793E-18	9.784668E-19
7.565555E+03	8.033925E-18	9.897458E-19
7.575457E+03	8.127365E-18	1.001058E-18
7.585360E+03	8.220862E-18	1.012373E-18
7.595263E+03	8.314357E-18	1.023683E-18
7.605165E+03	8.407790E-18	1.034982E-18
7.615068E+03	8.501318E-18	1.046287E-18
7.624970E+03	8.594655E-18	1.057564E-18
7.634873E+03	8.687731E-18	1.068805E-18
7.644775E+03	8.780699E-18	1.080028E-18
7.654678E+03	8.873488E-18	1.091225E-18
7.664581E+03	8.965787E-18	1.102358E-18
7.674483E+03	9.057751E-18	1.113444E-18
7.684386E+03	9.149298E-18	1.124476E-18
