#wls	flux	fluxerr
1.584409E+03	-3.174649E-12	-6.820353E-12
1.624020E+03	-3.111254E-12	-6.686677E-12
1.663630E+03	-3.031234E-12	-6.517157E-12
1.703240E+03	-2.935411E-12	-6.313523E-12
1.742850E+03	-2.824484E-12	-6.077241E-12
1.782461E+03	-2.696405E-12	-5.803872E-12
1.822071E+03	-2.553546E-12	-5.498473E-12
1.861681E+03	-2.396495E-12	-5.162273E-12
1.901291E+03	-2.226074E-12	-4.797006E-12
1.940902E+03	-2.042512E-12	-4.403141E-12
1.980512E+03	-1.851445E-12	-3.992789E-12
2.020122E+03	-1.659209E-12	-3.579599E-12
2.059732E+03	-1.475132E-12	-3.183701E-12
2.099342E+03	-1.309292E-12	-2.826878E-12
2.138953E+03	-1.169901E-12	-2.526909E-12
2.178563E+03	-1.057718E-12	-2.285494E-12
2.218173E+03	-9.663971E-13	-2.088989E-12
2.257783E+03	-8.860510E-13	-1.916068E-12
2.297394E+03	-8.098393E-13	-1.751955E-12
2.337004E+03	-7.340095E-13	-1.588539E-12
2.376614E+03	-6.576928E-13	-1.423941E-12
2.416224E+03	-5.819282E-13	-1.260412E-12
2.455835E+03	-5.081718E-13	-1.101104E-12
2.495445E+03	-4.380138E-13	-9.494683E-13
2.535055E+03	-3.727110E-13	-8.082399E-13
2.574665E+03	-3.134266E-13	-6.799567E-13
2.614276E+03	-2.603129E-13	-5.649617E-13
2.653886E+03	-2.135332E-13	-4.636250E-13
2.693496E+03	-1.729910E-13	-3.757541E-13
2.733106E+03	-1.386540E-13	-3.012964E-13
2.772716E+03	-1.097533E-13	-2.385947E-13
2.812327E+03	-8.578714E-14	-1.865725E-13
2.851937E+03	-6.621400E-14	-1.440648E-13
2.891547E+03	-5.061472E-14	-1.101719E-13
2.931157E+03	-3.823803E-14	-8.326751E-14
2.970768E+03	-2.856558E-14	-6.223143E-14
2.980670E+03	-2.651212E-14	-5.776409E-14
2.990573E+03	-2.460428E-14	-5.361316E-14
3.000475E+03	-2.281964E-14	-4.972982E-14
3.010378E+03	-2.115145E-14	-4.609944E-14
3.020280E+03	-1.959323E-14	-4.270795E-14
3.030183E+03	-1.814502E-14	-3.955558E-14
3.040086E+03	-1.679405E-14	-3.661454E-14
3.049988E+03	-1.553595E-14	-3.387534E-14
3.059891E+03	-1.436529E-14	-3.132621E-14
3.069793E+03	-1.328153E-14	-2.896607E-14
3.079696E+03	-1.227388E-14	-2.677141E-14
3.089598E+03	-1.133758E-14	-2.473193E-14
3.099501E+03	-1.046795E-14	-2.283744E-14
3.109403E+03	-9.664607E-15	-2.108718E-14
3.119306E+03	-8.919128E-15	-1.946279E-14
3.129209E+03	-8.227510E-15	-1.795559E-14
3.139111E+03	-7.586469E-15	-1.655844E-14
3.149014E+03	-6.995743E-15	-1.527082E-14
3.158916E+03	-6.448587E-15	-1.407804E-14
3.168819E+03	-5.942014E-15	-1.297359E-14
3.178721E+03	-5.473233E-15	-1.195142E-14
3.188624E+03	-5.042392E-15	-1.101188E-14
3.198526E+03	-4.643988E-15	-1.014297E-14
3.208429E+03	-4.275657E-15	-9.339562E-15
3.218332E+03	-3.935467E-15	-8.597443E-15
3.228234E+03	-3.623387E-15	-7.916579E-15
3.238137E+03	-3.335253E-15	-7.287885E-15
3.248039E+03	-3.069210E-15	-6.707324E-15
3.257942E+03	-2.823682E-15	-6.171466E-15
3.267844E+03	-2.598977E-15	-5.681007E-15
3.277747E+03	-2.391587E-15	-5.228287E-15
3.287650E+03	-2.200285E-15	-4.810637E-15
3.297552E+03	-2.023853E-15	-4.425405E-15
3.307455E+03	-1.862600E-15	-4.073283E-15
3.317357E+03	-1.713840E-15	-3.748403E-15
3.327260E+03	-1.576622E-15	-3.448692E-15
3.337162E+03	-1.450082E-15	-3.172273E-15
3.347065E+03	-1.334567E-15	-2.919911E-15
3.356967E+03	-1.228007E-15	-2.687086E-15
3.366870E+03	-1.129680E-15	-2.472222E-15
3.376773E+03	-1.038950E-15	-2.273937E-15
3.386675E+03	-9.562398E-16	-2.093161E-15
3.396578E+03	-8.798597E-16	-1.926200E-15
3.406480E+03	-8.093437E-16	-1.772038E-15
3.416383E+03	-7.442273E-16	-1.629663E-15
3.426285E+03	-6.848977E-16	-1.499928E-15
3.436188E+03	-6.300697E-16	-1.380022E-15
3.446090E+03	-5.793765E-16	-1.269145E-15
3.455993E+03	-5.325030E-16	-1.166608E-15
3.465896E+03	-4.898460E-16	-1.073287E-15
3.475798E+03	-4.503498E-16	-9.868694E-16
3.485701E+03	-4.137787E-16	-9.068411E-16
3.495603E+03	-3.799012E-16	-8.326974E-16
3.505506E+03	-3.490913E-16	-7.652608E-16
3.515408E+03	-3.205158E-16	-7.027064E-16
3.525311E+03	-2.940004E-16	-6.446536E-16
3.535213E+03	-2.693894E-16	-5.907628E-16
3.545116E+03	-2.470327E-16	-5.418034E-16
3.555019E+03	-2.262581E-16	-4.963023E-16
3.564921E+03	-2.069496E-16	-4.540058E-16
3.574824E+03	-1.889989E-16	-4.146780E-16
3.584726E+03	-1.727315E-16	-3.790345E-16
3.594629E+03	-1.575963E-16	-3.458667E-16
3.604531E+03	-1.435117E-16	-3.149964E-16
3.614434E+03	-1.304091E-16	-2.862739E-16
3.624337E+03	-1.185779E-16	-2.603356E-16
3.634239E+03	-1.075633E-16	-2.361839E-16
3.644142E+03	-9.731018E-17	-2.136982E-16
3.654044E+03	-8.776717E-17	-1.927663E-16
3.663947E+03	-7.919560E-17	-1.739631E-16
3.673849E+03	-7.121454E-17	-1.564523E-16
3.683752E+03	-6.378287E-17	-1.401440E-16
3.693654E+03	-5.686567E-17	-1.249619E-16
3.703557E+03	-5.069324E-17	-1.114129E-16
3.713460E+03	-4.494427E-17	-9.879109E-17
3.723362E+03	-3.959098E-17	-8.703576E-17
3.733265E+03	-3.460649E-17	-7.608817E-17
3.743167E+03	-3.019687E-17	-6.640188E-17
3.753070E+03	-2.608904E-17	-5.737667E-17
3.762972E+03	-2.226344E-17	-4.896982E-17
3.772875E+03	-1.870166E-17	-4.114104E-17
3.782777E+03	-1.558591E-17	-3.429155E-17
3.792680E+03	-1.268376E-17	-2.791018E-17
3.802583E+03	-9.981601E-18	-2.196720E-17
3.812485E+03	-7.466691E-18	-1.643473E-17
3.822388E+03	-5.300896E-18	-1.166929E-17
3.832290E+03	-3.284862E-18	-7.232246E-18
3.842193E+03	-1.409238E-18	-3.103139E-18
3.852095E+03	3.346458E-19	7.369925E-19
3.861998E+03	1.802962E-18	3.971240E-18
3.871900E+03	3.167667E-18	6.978159E-18
3.881803E+03	4.434997E-18	9.771394E-18
3.891706E+03	5.610778E-18	1.236369E-17
3.901608E+03	6.566952E-18	1.447277E-17
3.911511E+03	7.452634E-18	1.642709E-17
3.921413E+03	8.272005E-18	1.823579E-17
3.931316E+03	9.028658E-18	1.990673E-17
3.941218E+03	9.608511E-18	2.118833E-17
3.951121E+03	1.014163E-17	2.236724E-17
3.961024E+03	1.063054E-17	2.344899E-17
3.970926E+03	1.107762E-17	2.443876E-17
3.980829E+03	1.138076E-17	2.511129E-17
3.990731E+03	1.165417E-17	2.571843E-17
4.000634E+03	1.189926E-17	2.626323E-17
4.010536E+03	1.211741E-17	2.674873E-17
4.020439E+03	1.221755E-17	2.697391E-17
4.030341E+03	1.229997E-17	2.716002E-17
4.040244E+03	1.236554E-17	2.730899E-17
4.050147E+03	1.241485E-17	2.742209E-17
4.060049E+03	1.236994E-17	2.732712E-17
4.069952E+03	1.231591E-17	2.721199E-17
4.079854E+03	1.225295E-17	2.707710E-17
4.089757E+03	1.218152E-17	2.692346E-17
4.099659E+03	1.203702E-17	2.660829E-17
4.109562E+03	1.188921E-17	2.628572E-17
4.119464E+03	1.173822E-17	2.595602E-17
4.129367E+03	1.158397E-17	2.561901E-17
4.139270E+03	1.137307E-17	2.515664E-17
4.149172E+03	1.116275E-17	2.469543E-17
4.159075E+03	1.095315E-17	2.423564E-17
4.168977E+03	1.074397E-17	2.377666E-17
4.178880E+03	1.049081E-17	2.322023E-17
4.188782E+03	1.024105E-17	2.267114E-17
4.198685E+03	9.994587E-18	2.212919E-17
4.208587E+03	9.751107E-18	2.159366E-17
4.218490E+03	9.473775E-18	2.098304E-17
4.228393E+03	9.201718E-18	2.038390E-17
4.238295E+03	8.934679E-18	1.979568E-17
4.248198E+03	8.672545E-18	1.921813E-17
4.258100E+03	8.384575E-18	1.858318E-17
4.268003E+03	8.103105E-18	1.796242E-17
4.277905E+03	7.827941E-18	1.735544E-17
4.287808E+03	7.558921E-18	1.676187E-17
4.297711E+03	7.270487E-18	1.612509E-17
4.307613E+03	6.989528E-18	1.550467E-17
4.317516E+03	6.715920E-18	1.490034E-17
4.327418E+03	6.449483E-18	1.431172E-17
4.337321E+03	6.168950E-18	1.369165E-17
4.347223E+03	5.896733E-18	1.308981E-17
4.357126E+03	5.632638E-18	1.250580E-17
4.367028E+03	5.376518E-18	1.193929E-17
4.376931E+03	5.110653E-18	1.135097E-17
4.386834E+03	4.853595E-18	1.078199E-17
4.396736E+03	4.605136E-18	1.023192E-17
4.406639E+03	4.365158E-18	9.700497E-18
4.416541E+03	4.118617E-18	9.154319E-18
4.426444E+03	3.881085E-18	8.627966E-18
4.436346E+03	3.652407E-18	8.121104E-18
4.446249E+03	3.432363E-18	7.633256E-18
4.456151E+03	3.208269E-18	7.136239E-18
4.466054E+03	2.993226E-18	6.659171E-18
4.475957E+03	2.787057E-18	6.201669E-18
4.485859E+03	2.589616E-18	5.763420E-18
4.495762E+03	2.390042E-18	5.320271E-18
4.505664E+03	2.199436E-18	4.896920E-18
4.515567E+03	2.017646E-18	4.493037E-18
4.525469E+03	1.844498E-18	4.108250E-18
4.535372E+03	1.670743E-18	3.721970E-18
4.545274E+03	1.505772E-18	3.355114E-18
4.555177E+03	1.349418E-18	3.007317E-18
4.565080E+03	1.201511E-18	2.678214E-18
4.574982E+03	1.054175E-18	2.350262E-18
4.584885E+03	9.153436E-19	2.041144E-18
4.594787E+03	7.848551E-19	1.750512E-18
4.604690E+03	6.625383E-19	1.477994E-18
4.614592E+03	5.416552E-19	1.208569E-18
4.624495E+03	4.289320E-19	9.572475E-19
4.634398E+03	3.241971E-19	7.236558E-19
4.644300E+03	2.272775E-19	5.074191E-19
4.654203E+03	1.324300E-19	2.957228E-19
4.664105E+03	4.533531E-20	1.012566E-19
4.674008E+03	-3.418135E-20	-7.635972E-20
4.683910E+03	-1.062970E-19	-2.375114E-19
4.693813E+03	-1.758976E-19	-3.931087E-19
4.703715E+03	-2.381976E-19	-5.324508E-19
4.713618E+03	-2.933704E-19	-6.559154E-19
4.723521E+03	-3.415875E-19	-7.638761E-19
4.733423E+03	-3.869689E-19	-8.655404E-19
4.743326E+03	-4.255081E-19	-9.519396E-19
4.753228E+03	-4.573685E-19	-1.023430E-18
4.763131E+03	-4.827074E-19	-1.080355E-18
4.773033E+03	-5.049723E-19	-1.130424E-18
4.782936E+03	-5.208331E-19	-1.166175E-18
4.792838E+03	-5.304413E-19	-1.187938E-18
4.802741E+03	-5.339471E-19	-1.196041E-18
4.812644E+03	-5.341783E-19	-1.196813E-18
4.822546E+03	-5.284132E-19	-1.184147E-18
4.832449E+03	-5.167802E-19	-1.158325E-18
4.842351E+03	-4.994159E-19	-1.119642E-18
4.852254E+03	-4.786050E-19	-1.073215E-18
4.862156E+03	-4.521492E-19	-1.014109E-18
4.872059E+03	-4.201703E-19	-9.425864E-19
4.881961E+03	-3.827811E-19	-8.588940E-19
4.891864E+03	-3.417673E-19	-7.670316E-19
4.901767E+03	-2.954022E-19	-6.631171E-19
4.911669E+03	-2.437908E-19	-5.473784E-19
4.921572E+03	-1.870360E-19	-4.200388E-19
4.931474E+03	-1.264618E-19	-2.840651E-19
4.941377E+03	-6.076753E-20	-1.365290E-19
4.951279E+03	9.958231E-21	2.237845E-20
4.961182E+03	8.563017E-20	1.924728E-19
4.971085E+03	1.653324E-19	3.717026E-19
4.980987E+03	2.499825E-19	5.621373E-19
4.990890E+03	3.395112E-19	7.636285E-19
5.000792E+03	4.338376E-19	9.760015E-19
5.010695E+03	5.324105E-19	1.198024E-18
5.020597E+03	6.358116E-19	1.431012E-18
5.030500E+03	7.439587E-19	1.674786E-18
5.040402E+03	8.568067E-19	1.929254E-18
5.050305E+03	9.740957E-19	2.193837E-18
5.060208E+03	1.096104E-18	2.469168E-18
5.070110E+03	1.222782E-18	2.755145E-18
5.080013E+03	1.354051E-18	3.051595E-18
5.089915E+03	1.489922E-18	3.358553E-18
5.099818E+03	1.630427E-18	3.676095E-18
5.109720E+03	1.775494E-18	4.004066E-18
5.119623E+03	1.925062E-18	4.342340E-18
5.129525E+03	2.079337E-18	4.691386E-18
5.139428E+03	2.238140E-18	5.050805E-18
5.149331E+03	2.401364E-18	5.420367E-18
5.159233E+03	2.568991E-18	5.800035E-18
5.169136E+03	2.741380E-18	6.190630E-18
5.179038E+03	2.918130E-18	6.591251E-18
5.188941E+03	3.099167E-18	7.001738E-18
5.198843E+03	3.284448E-18	7.422001E-18
5.208746E+03	3.474385E-18	7.852976E-18
5.218648E+03	3.668499E-18	8.293593E-18
5.228551E+03	3.866745E-18	8.743750E-18
5.238454E+03	4.068917E-18	9.202994E-18
5.248356E+03	4.275634E-18	9.672726E-18
5.258259E+03	4.486180E-18	1.015134E-17
5.268161E+03	4.700570E-18	1.063887E-17
5.278064E+03	4.918542E-18	1.113472E-17
5.285807E+03	1.278239E-16	2.894223E-16
5.286401E+03	1.277390E-16	2.892341E-16
5.286797E+03	1.275532E-16	2.888159E-16
5.286995E+03	1.272671E-16	2.881694E-16
5.287589E+03	1.271674E-16	2.879476E-16
5.288975E+03	1.274322E-16	2.885563E-16
5.289769E+03	1.274275E-16	2.885510E-16
5.290363E+03	1.273090E-16	2.882866E-16
5.290759E+03	1.271000E-16	2.878159E-16
5.291155E+03	1.268956E-16	2.873557E-16
5.291353E+03	1.265925E-16	2.866705E-16
5.291749E+03	1.263694E-16	2.861679E-16
5.292145E+03	1.261433E-16	2.856586E-16
5.293532E+03	1.263766E-16	2.861958E-16
5.293928E+03	1.261525E-16	2.856910E-16
5.294324E+03	1.259273E-16	2.851836E-16
5.294721E+03	1.256883E-16	2.846449E-16
5.295909E+03	1.258148E-16	2.849391E-16
5.297098E+03	1.259456E-16	2.852430E-16
5.297493E+03	1.257057E-16	2.847023E-16
5.297691E+03	1.253775E-16	2.839603E-16
5.298087E+03	1.251495E-16	2.834465E-16
5.299671E+03	1.254435E-16	2.841227E-16
5.300464E+03	1.253648E-16	2.839496E-16
5.300662E+03	1.250081E-16	2.831429E-16
5.300861E+03	1.246527E-16	2.823393E-16
5.301059E+03	1.243006E-16	2.815430E-16
5.303039E+03	1.247375E-16	2.825454E-16
5.303237E+03	1.243853E-16	2.817489E-16
5.303435E+03	1.240403E-16	2.809687E-16
5.304425E+03	1.240289E-16	2.809493E-16
5.304822E+03	1.237409E-16	2.802994E-16
5.305020E+03	1.233731E-16	2.794675E-16
5.306407E+03	1.235140E-16	2.797956E-16
5.307001E+03	1.232991E-16	2.793125E-16
5.307199E+03	1.229230E-16	2.784618E-16
5.307397E+03	1.225404E-16	2.775963E-16
5.307595E+03	1.221493E-16	2.767117E-16
5.307793E+03	1.217635E-16	2.758389E-16
5.308586E+03	1.216359E-16	2.755549E-16
5.309378E+03	1.215039E-16	2.752607E-16
5.309575E+03	1.211138E-16	2.743784E-16
5.310566E+03	1.210558E-16	2.742532E-16
5.310764E+03	1.206557E-16	2.733479E-16
5.311358E+03	1.204185E-16	2.728144E-16
5.311754E+03	1.200951E-16	2.720840E-16
5.311952E+03	1.196860E-16	2.711585E-16
5.312547E+03	1.194381E-16	2.706005E-16
5.313537E+03	1.193475E-16	2.704014E-16
5.314527E+03	1.192520E-16	2.701912E-16
5.315319E+03	1.190682E-16	2.697795E-16
5.316112E+03	1.188820E-16	2.693626E-16
5.317697E+03	1.190167E-16	2.696776E-16
5.317895E+03	1.185832E-16	2.686966E-16
5.318093E+03	1.181490E-16	2.677140E-16
5.318291E+03	1.177162E-16	2.667345E-16
5.318885E+03	1.174411E-16	2.661147E-16
5.319083E+03	1.170063E-16	2.651306E-16
5.320073E+03	1.168850E-16	2.648619E-16
5.320272E+03	1.164454E-16	2.638669E-16
5.320865E+03	1.161626E-16	2.632296E-16
5.321658E+03	1.159563E-16	2.627670E-16
5.322450E+03	1.157449E-16	2.622927E-16
5.323044E+03	1.154539E-16	2.616366E-16
5.323242E+03	1.150116E-16	2.606355E-16
5.323440E+03	1.145541E-16	2.596000E-16
5.323638E+03	1.140980E-16	2.585676E-16
5.323836E+03	1.136287E-16	2.575052E-16
5.324233E+03	1.132361E-16	2.566178E-16
5.324629E+03	1.128400E-16	2.557226E-16
5.324827E+03	1.123679E-16	2.546538E-16
5.325421E+03	1.120458E-16	2.539272E-16
5.327798E+03	1.123856E-16	2.547113E-16
5.327997E+03	1.119089E-16	2.536319E-16
5.328195E+03	1.114293E-16	2.525461E-16
5.328393E+03	1.109489E-16	2.514586E-16
5.328789E+03	1.105384E-16	2.505305E-16
5.328987E+03	1.100564E-16	2.494391E-16
5.329185E+03	1.095736E-16	2.483459E-16
5.330373E+03	1.094439E-16	2.480588E-16
5.331561E+03	1.093164E-16	2.477766E-16
5.331760E+03	1.088304E-16	2.466761E-16
5.332553E+03	1.085531E-16	2.460521E-16
5.332751E+03	1.080578E-16	2.449304E-16
5.333741E+03	1.078351E-16	2.444312E-16
5.334136E+03	1.073975E-16	2.434416E-16
5.334334E+03	1.069004E-16	2.423158E-16
5.335126E+03	1.066071E-16	2.416554E-16
5.335324E+03	1.060944E-16	2.404944E-16
5.335919E+03	1.057370E-16	2.396873E-16
5.336117E+03	1.052330E-16	2.385459E-16
5.336315E+03	1.047282E-16	2.374028E-16
5.336513E+03	1.042292E-16	2.362728E-16
5.336909E+03	1.037834E-16	2.352641E-16
5.337504E+03	1.033941E-16	2.343849E-16
5.337702E+03	1.028918E-16	2.332474E-16
5.337900E+03	1.023693E-16	2.320638E-16
5.338098E+03	1.018460E-16	2.308787E-16
5.338692E+03	1.014563E-16	2.299984E-16
5.339286E+03	1.010710E-16	2.291281E-16
5.339484E+03	1.005440E-16	2.279343E-16
5.340079E+03	1.001463E-16	2.270359E-16
5.340277E+03	9.962584E-17	2.258570E-16
5.340673E+03	9.917005E-17	2.248258E-16
5.340871E+03	9.864554E-17	2.236377E-16
5.341069E+03	9.811371E-17	2.224330E-16
5.341861E+03	9.777634E-17	2.216721E-16
5.342059E+03	9.726176E-17	2.205065E-16
5.342258E+03	9.673793E-17	2.193199E-16
5.342654E+03	9.626311E-17	2.182454E-16
5.343645E+03	9.596447E-17	2.175733E-16
5.344437E+03	9.561735E-17	2.167902E-16
5.344635E+03	9.508063E-17	2.155743E-16
5.345031E+03	9.461625E-17	2.145234E-16
5.345624E+03	9.420944E-17	2.136039E-16
5.345823E+03	9.366075E-17	2.123608E-16
5.346218E+03	9.317152E-17	2.112535E-16
5.346416E+03	9.262740E-17	2.100207E-16
5.347010E+03	9.218925E-17	2.090301E-16
5.347208E+03	9.163615E-17	2.077770E-16
5.348398E+03	9.137030E-17	2.071798E-16
5.348596E+03	9.081380E-17	2.059189E-16
5.348992E+03	9.032873E-17	2.048209E-16
5.349586E+03	8.988235E-17	2.038115E-16
5.349784E+03	8.932923E-17	2.025582E-16
5.350972E+03	8.905193E-17	2.019349E-16
5.351170E+03	8.850224E-17	2.006893E-16
5.351369E+03	8.795409E-17	1.994472E-16
5.351567E+03	8.739154E-17	1.981725E-16
5.351765E+03	8.683281E-17	1.969064E-16
5.351963E+03	8.626874E-17	1.956282E-16
5.352161E+03	8.572446E-17	1.943948E-16
5.352359E+03	8.517945E-17	1.931598E-16
5.352557E+03	8.462456E-17	1.919023E-16
5.352954E+03	8.411206E-17	1.907419E-16
5.353350E+03	8.360694E-17	1.895981E-16
5.353548E+03	8.305593E-17	1.883494E-16
5.353746E+03	8.249045E-17	1.870679E-16
5.354538E+03	8.208271E-17	1.861467E-16
5.354736E+03	8.152148E-17	1.848747E-16
5.354934E+03	8.095950E-17	1.836011E-16
5.355132E+03	8.039910E-17	1.823310E-16
5.355727E+03	7.994073E-17	1.812940E-16
5.356321E+03	7.947783E-17	1.802467E-16
5.356519E+03	7.891139E-17	1.789629E-16
5.356717E+03	7.834885E-17	1.776879E-16
5.356915E+03	7.778787E-17	1.764165E-16
5.357706E+03	7.736075E-17	1.754510E-16
5.357905E+03	7.679510E-17	1.741689E-16
5.358104E+03	7.624964E-17	1.729326E-16
5.359490E+03	7.597325E-17	1.723112E-16
5.360282E+03	7.554516E-17	1.713434E-16
5.360480E+03	7.498234E-17	1.700676E-16
5.360678E+03	7.440946E-17	1.687691E-16
5.362658E+03	7.424601E-17	1.684060E-16
5.362856E+03	7.368243E-17	1.671284E-16
5.363055E+03	7.311577E-17	1.658439E-16
5.364046E+03	7.272599E-17	1.649635E-16
5.364244E+03	7.216117E-17	1.636831E-16
5.364838E+03	7.167455E-17	1.625815E-16
5.365432E+03	7.118811E-17	1.614803E-16
5.365630E+03	7.061489E-17	1.601807E-16
5.366026E+03	7.009718E-17	1.590078E-16
5.366422E+03	6.957805E-17	1.578317E-16
5.366620E+03	6.901861E-17	1.565633E-16
5.366819E+03	6.844653E-17	1.552663E-16
5.367611E+03	6.799299E-17	1.542403E-16
5.367809E+03	6.743032E-17	1.529646E-16
5.368007E+03	6.686453E-17	1.516818E-16
5.368205E+03	6.629328E-17	1.503866E-16
5.369789E+03	6.599771E-17	1.497215E-16
5.369987E+03	6.543932E-17	1.484554E-16
5.370780E+03	6.498350E-17	1.474241E-16
5.370978E+03	6.442027E-17	1.461470E-16
5.371572E+03	6.392941E-17	1.450354E-16
5.371770E+03	6.335676E-17	1.437368E-16
5.372562E+03	6.289698E-17	1.426963E-16
5.372760E+03	6.233157E-17	1.414142E-16
5.372958E+03	6.176545E-17	1.401305E-16
5.373156E+03	6.120346E-17	1.388561E-16
5.373354E+03	6.064808E-17	1.375967E-16
5.373552E+03	6.009203E-17	1.363358E-16
5.373750E+03	5.953041E-17	1.350622E-16
5.373949E+03	5.897070E-17	1.337929E-16
5.374147E+03	5.841498E-17	1.325327E-16
5.375138E+03	5.799933E-17	1.315927E-16
5.375336E+03	5.743843E-17	1.303206E-16
5.375534E+03	5.688416E-17	1.290637E-16
5.375732E+03	5.632924E-17	1.278052E-16
5.376128E+03	5.581114E-17	1.266308E-16
5.376722E+03	5.532644E-17	1.255328E-16
5.377316E+03	5.484218E-17	1.244357E-16
5.377514E+03	5.428773E-17	1.231782E-16
5.378306E+03	5.383389E-17	1.221507E-16
5.378901E+03	5.335137E-17	1.210575E-16
5.379099E+03	5.280311E-17	1.198140E-16
5.379298E+03	5.225186E-17	1.185637E-16
5.379892E+03	5.176472E-17	1.174600E-16
5.380882E+03	5.134483E-17	1.165099E-16
5.381080E+03	5.080436E-17	1.152839E-16
5.381278E+03	5.027070E-17	1.140735E-16
5.381476E+03	4.973142E-17	1.128503E-16
5.381674E+03	4.919149E-17	1.116256E-16
5.382268E+03	4.871447E-17	1.105446E-16
5.382664E+03	4.821267E-17	1.094069E-16
5.383852E+03	4.781447E-17	1.085063E-16
5.384050E+03	4.727685E-17	1.072867E-16
5.384248E+03	4.675116E-17	1.060942E-16
5.384446E+03	4.621983E-17	1.048890E-16
5.385239E+03	4.576648E-17	1.038620E-16
5.385437E+03	4.524301E-17	1.026745E-16
5.386031E+03	4.476494E-17	1.015910E-16
5.386230E+03	4.423704E-17	1.003934E-16
5.386626E+03	4.373852E-17	9.926294E-17
5.387616E+03	4.331771E-17	9.831018E-17
5.387814E+03	4.279907E-17	9.713355E-17
5.388012E+03	4.227981E-17	9.595551E-17
5.388210E+03	4.176501E-17	9.478759E-17
5.388408E+03	4.125217E-17	9.362411E-17
5.388804E+03	4.075674E-17	9.250053E-17
5.389002E+03	4.024236E-17	9.133352E-17
5.389200E+03	3.973249E-17	9.017674E-17
5.390588E+03	3.935542E-17	8.932379E-17
5.391182E+03	3.889150E-17	8.827204E-17
5.391380E+03	3.838509E-17	8.712305E-17
5.391578E+03	3.788069E-17	8.597859E-17
5.392172E+03	3.742035E-17	8.493491E-17
5.392370E+03	3.691931E-17	8.379804E-17
5.392568E+03	3.642284E-17	8.267155E-17
5.392964E+03	3.594596E-17	8.158988E-17
5.393162E+03	3.545319E-17	8.047177E-17
5.393558E+03	3.498722E-17	7.941482E-17
5.393756E+03	3.450334E-17	7.831685E-17
5.393953E+03	3.402139E-17	7.722327E-17
5.394152E+03	3.353640E-17	7.612277E-17
