#wls	flux	fluxerr
1.584409E+03	1.725246E-16	5.858970E-17
1.624020E+03	1.792448E-16	6.087091E-17
1.663630E+03	1.852929E-16	6.292373E-17
1.703240E+03	1.905560E-16	6.470991E-17
1.742850E+03	1.948978E-16	6.618313E-17
1.782461E+03	1.981344E-16	6.728099E-17
1.822071E+03	2.000159E-16	6.791862E-17
1.861681E+03	2.003090E-16	6.801683E-17
1.901291E+03	1.987663E-16	6.749166E-17
1.940902E+03	1.951889E-16	6.627558E-17
1.980512E+03	1.895884E-16	6.437261E-17
2.020122E+03	1.822887E-16	6.189277E-17
2.059732E+03	1.741086E-16	5.911406E-17
2.099342E+03	1.663315E-16	5.647226E-17
2.138953E+03	1.602018E-16	5.438987E-17
2.178563E+03	1.563622E-16	5.308500E-17
2.218173E+03	1.544759E-16	5.244332E-17
2.257783E+03	1.534364E-16	5.208911E-17
2.297394E+03	1.521968E-16	5.166695E-17
2.337004E+03	1.499903E-16	5.091656E-17
2.376614E+03	1.464226E-16	4.970411E-17
2.416224E+03	1.414146E-16	4.800275E-17
2.455835E+03	1.350943E-16	4.585603E-17
2.495445E+03	1.276861E-16	4.334014E-17
2.535055E+03	1.194418E-16	4.054059E-17
2.574665E+03	1.106238E-16	3.754644E-17
2.614276E+03	1.014751E-16	3.444020E-17
2.653886E+03	9.221378E-17	3.129594E-17
2.693496E+03	8.303139E-17	2.817863E-17
2.733106E+03	7.409705E-17	2.514569E-17
2.772716E+03	6.554149E-17	2.224148E-17
2.812327E+03	5.747347E-17	1.950289E-17
2.851937E+03	4.998158E-17	1.695998E-17
2.891547E+03	4.312949E-17	1.463434E-17
2.931157E+03	3.695873E-17	1.254004E-17
2.970768E+03	3.148289E-17	1.068167E-17
2.980670E+03	3.022122E-17	1.025350E-17
2.990573E+03	2.900175E-17	9.839655E-18
3.000475E+03	2.782439E-17	9.440105E-18
3.010378E+03	2.668835E-17	9.054580E-18
3.020280E+03	2.559277E-17	8.682789E-18
3.030183E+03	2.453735E-17	8.324632E-18
3.040086E+03	2.352089E-17	7.979703E-18
3.049988E+03	2.254440E-17	7.648334E-18
3.059891E+03	2.160707E-17	7.330263E-18
3.069793E+03	2.070786E-17	7.025125E-18
3.079696E+03	1.984531E-17	6.732434E-18
3.089598E+03	1.901843E-17	6.451848E-18
3.099501E+03	1.822588E-17	6.182915E-18
3.109403E+03	1.746642E-17	5.925212E-18
3.119306E+03	1.673918E-17	5.678442E-18
3.129209E+03	1.604267E-17	5.442102E-18
3.139111E+03	1.537639E-17	5.216025E-18
3.149014E+03	1.473895E-17	4.999735E-18
3.158916E+03	1.412959E-17	4.792971E-18
3.168819E+03	1.354726E-17	4.595384E-18
3.178721E+03	1.299097E-17	4.406632E-18
3.188624E+03	1.245995E-17	4.226457E-18
3.198526E+03	1.195324E-17	4.054532E-18
3.208429E+03	1.146970E-17	3.890469E-18
3.218332E+03	1.100899E-17	3.734154E-18
3.228234E+03	1.056965E-17	3.585091E-18
3.238137E+03	1.015133E-17	3.443160E-18
3.248039E+03	9.752828E-18	3.307956E-18
3.257942E+03	9.373483E-18	3.179252E-18
3.267844E+03	9.012616E-18	3.056817E-18
3.277747E+03	8.669158E-18	2.940290E-18
3.287650E+03	8.342612E-18	2.829501E-18
3.297552E+03	8.032222E-18	2.724194E-18
3.307455E+03	7.737148E-18	2.624085E-18
3.317357E+03	7.456709E-18	2.528941E-18
3.327260E+03	7.190242E-18	2.438537E-18
3.337162E+03	6.937208E-18	2.352692E-18
3.347065E+03	6.696806E-18	2.271132E-18
3.356967E+03	6.468630E-18	2.193721E-18
3.366870E+03	6.251947E-18	2.120209E-18
3.376773E+03	6.046227E-18	2.050417E-18
3.386675E+03	5.851038E-18	1.984198E-18
3.396578E+03	5.665676E-18	1.921312E-18
3.406480E+03	5.489831E-18	1.861656E-18
3.416383E+03	5.322994E-18	1.805056E-18
3.426285E+03	5.164568E-18	1.751309E-18
3.436188E+03	5.014297E-18	1.700328E-18
3.446090E+03	4.871640E-18	1.651932E-18
3.455993E+03	4.736266E-18	1.606005E-18
3.465896E+03	4.607801E-18	1.562423E-18
3.475798E+03	4.485752E-18	1.521017E-18
3.485701E+03	4.369854E-18	1.481697E-18
3.495603E+03	4.259717E-18	1.444333E-18
3.505506E+03	4.154986E-18	1.408802E-18
3.515408E+03	4.055370E-18	1.375006E-18
3.525311E+03	3.960519E-18	1.342826E-18
3.535213E+03	3.870149E-18	1.312167E-18
3.545116E+03	3.783961E-18	1.282927E-18
3.555019E+03	3.701750E-18	1.255035E-18
3.564921E+03	3.623289E-18	1.228415E-18
3.574824E+03	3.548328E-18	1.202983E-18
3.584726E+03	3.476704E-18	1.178683E-18
3.594629E+03	3.408263E-18	1.155463E-18
3.604531E+03	3.342791E-18	1.133249E-18
3.614434E+03	3.280244E-18	1.112028E-18
3.624337E+03	3.220422E-18	1.091731E-18
3.634239E+03	3.163256E-18	1.072335E-18
3.644142E+03	3.108644E-18	1.053805E-18
3.654044E+03	3.056488E-18	1.036109E-18
3.663947E+03	3.006717E-18	1.019221E-18
3.673849E+03	2.959286E-18	1.003127E-18
3.683752E+03	2.914048E-18	9.877766E-19
3.693654E+03	2.871007E-18	9.731714E-19
3.703557E+03	2.830043E-18	9.592705E-19
3.713460E+03	2.791110E-18	9.460587E-19
3.723362E+03	2.754161E-18	9.335194E-19
3.733265E+03	2.719082E-18	9.216141E-19
3.743167E+03	2.685870E-18	9.103423E-19
3.753070E+03	2.654437E-18	8.996733E-19
3.762972E+03	2.624739E-18	8.895928E-19
3.772875E+03	2.596712E-18	8.800789E-19
3.782777E+03	2.570315E-18	8.711177E-19
3.792680E+03	2.545487E-18	8.626884E-19
3.802583E+03	2.522191E-18	8.547786E-19
3.812485E+03	2.500371E-18	8.473691E-19
3.822388E+03	2.480012E-18	8.404550E-19
3.832290E+03	2.461061E-18	8.340180E-19
3.842193E+03	2.443464E-18	8.280403E-19
3.852095E+03	2.427195E-18	8.225125E-19
3.861998E+03	2.412203E-18	8.174176E-19
3.871900E+03	2.398481E-18	8.127529E-19
3.881803E+03	2.385980E-18	8.085023E-19
3.891706E+03	2.374672E-18	8.046561E-19
3.901608E+03	2.364517E-18	8.012002E-19
3.911511E+03	2.355469E-18	7.981199E-19
3.921413E+03	2.347542E-18	7.954191E-19
3.931316E+03	2.340654E-18	7.930709E-19
3.941218E+03	2.334807E-18	7.910749E-19
3.951121E+03	2.329957E-18	7.894168E-19
3.961024E+03	2.326086E-18	7.880903E-19
3.970926E+03	2.323171E-18	7.870878E-19
3.980829E+03	2.321160E-18	7.863912E-19
3.990731E+03	2.320051E-18	7.860007E-19
4.000634E+03	2.319809E-18	7.859035E-19
4.010536E+03	2.320419E-18	7.860946E-19
4.020439E+03	2.321844E-18	7.865622E-19
4.030341E+03	2.324053E-18	7.872950E-19
4.040244E+03	2.327052E-18	7.882951E-19
4.050147E+03	2.330789E-18	7.895452E-19
4.060049E+03	2.335255E-18	7.910422E-19
4.069952E+03	2.340437E-18	7.927818E-19
4.079854E+03	2.346290E-18	7.947483E-19
4.089757E+03	2.352826E-18	7.969459E-19
4.099659E+03	2.359997E-18	7.993583E-19
4.109562E+03	2.367797E-18	8.019837E-19
4.119464E+03	2.376220E-18	8.048200E-19
4.129367E+03	2.385220E-18	8.078514E-19
4.139270E+03	2.394813E-18	8.110832E-19
4.149172E+03	2.404935E-18	8.144943E-19
4.159075E+03	2.415619E-18	8.180951E-19
4.168977E+03	2.426802E-18	8.218649E-19
4.178880E+03	2.438482E-18	8.258027E-19
4.188782E+03	2.450637E-18	8.299011E-19
4.198685E+03	2.463263E-18	8.341585E-19
4.208587E+03	2.476299E-18	8.385546E-19
4.218490E+03	2.489764E-18	8.430957E-19
4.228393E+03	2.503618E-18	8.477683E-19
4.238295E+03	2.517822E-18	8.525590E-19
4.248198E+03	2.532375E-18	8.574674E-19
4.258100E+03	2.547255E-18	8.624865E-19
4.268003E+03	2.562406E-18	8.675967E-19
4.277905E+03	2.577804E-18	8.727903E-19
4.287808E+03	2.593427E-18	8.780599E-19
4.297711E+03	2.609256E-18	8.833988E-19
4.307613E+03	2.625267E-18	8.887986E-19
4.317516E+03	2.641455E-18	8.942583E-19
4.327418E+03	2.657799E-18	8.997705E-19
4.337321E+03	2.674272E-18	9.053258E-19
4.347223E+03	2.690914E-18	9.109379E-19
4.357126E+03	2.707697E-18	9.165975E-19
4.367028E+03	2.724619E-18	9.223036E-19
4.376931E+03	2.741698E-18	9.280624E-19
4.386834E+03	2.758928E-18	9.338721E-19
4.396736E+03	2.776283E-18	9.397235E-19
4.406639E+03	2.793785E-18	9.456242E-19
4.416541E+03	2.811406E-18	9.515651E-19
4.426444E+03	2.829145E-18	9.575450E-19
4.436346E+03	2.847001E-18	9.635646E-19
4.446249E+03	2.864931E-18	9.696085E-19
4.456151E+03	2.882957E-18	9.756842E-19
4.466054E+03	2.901061E-18	9.817862E-19
4.475957E+03	2.919224E-18	9.879077E-19
4.485859E+03	2.937452E-18	9.940506E-19
4.495762E+03	2.955707E-18	1.000202E-18
4.505664E+03	2.973994E-18	1.006364E-18
4.515567E+03	2.992327E-18	1.012541E-18
4.525469E+03	3.010694E-18	1.018729E-18
4.535372E+03	3.029059E-18	1.024916E-18
4.545274E+03	3.047435E-18	1.031106E-18
4.555177E+03	3.065815E-18	1.037297E-18
4.565080E+03	3.084188E-18	1.043485E-18
4.574982E+03	3.102578E-18	1.049678E-18
4.584885E+03	3.120948E-18	1.055865E-18
4.594787E+03	3.139324E-18	1.062052E-18
4.604690E+03	3.157703E-18	1.068240E-18
4.614592E+03	3.176078E-18	1.074427E-18
4.624495E+03	3.194452E-18	1.080612E-18
4.634398E+03	3.212821E-18	1.086795E-18
4.644300E+03	3.231187E-18	1.092977E-18
4.654203E+03	3.249604E-18	1.099175E-18
4.664105E+03	3.268074E-18	1.105391E-18
4.674008E+03	3.286601E-18	1.111625E-18
4.683910E+03	3.305245E-18	1.117898E-18
4.693813E+03	3.323982E-18	1.124203E-18
4.703715E+03	3.342815E-18	1.130539E-18
4.713618E+03	3.361781E-18	1.136920E-18
4.723521E+03	3.380887E-18	1.143347E-18
4.733423E+03	3.400110E-18	1.149813E-18
4.743326E+03	3.419487E-18	1.156331E-18
4.753228E+03	3.439029E-18	1.162904E-18
4.763131E+03	3.458713E-18	1.169524E-18
4.773033E+03	3.478579E-18	1.176206E-18
4.782936E+03	3.498642E-18	1.182953E-18
4.792838E+03	3.518911E-18	1.189770E-18
4.802741E+03	3.539398E-18	1.196659E-18
4.812644E+03	3.560084E-18	1.203615E-18
4.822546E+03	3.581049E-18	1.210665E-18
4.832449E+03	3.602242E-18	1.217791E-18
4.842351E+03	3.623676E-18	1.224998E-18
4.852254E+03	3.645401E-18	1.232302E-18
4.862156E+03	3.667432E-18	1.239710E-18
4.872059E+03	3.689790E-18	1.247227E-18
4.881961E+03	3.712417E-18	1.254834E-18
4.891864E+03	3.735404E-18	1.262562E-18
4.901767E+03	3.758731E-18	1.270404E-18
4.911669E+03	3.782414E-18	1.278366E-18
4.921572E+03	3.806473E-18	1.286454E-18
4.931474E+03	3.830919E-18	1.294673E-18
4.941377E+03	3.855735E-18	1.303015E-18
4.951279E+03	3.880932E-18	1.311485E-18
4.961182E+03	3.906560E-18	1.320100E-18
4.971085E+03	3.932593E-18	1.328851E-18
4.980987E+03	3.959003E-18	1.337729E-18
4.990890E+03	3.985870E-18	1.346760E-18
5.000792E+03	4.013088E-18	1.355909E-18
5.010695E+03	4.040738E-18	1.365203E-18
5.020597E+03	4.068824E-18	1.374643E-18
5.030500E+03	4.097234E-18	1.384191E-18
5.040402E+03	4.126084E-18	1.393888E-18
5.050305E+03	4.155303E-18	1.403708E-18
5.060208E+03	4.184887E-18	1.413650E-18
5.070110E+03	4.214878E-18	1.423729E-18
5.080013E+03	4.245196E-18	1.433917E-18
5.089915E+03	4.275839E-18	1.444213E-18
5.099818E+03	4.306844E-18	1.454631E-18
5.109720E+03	4.338168E-18	1.465156E-18
5.119623E+03	4.369812E-18	1.475788E-18
5.129525E+03	4.401725E-18	1.486509E-18
5.139428E+03	4.433947E-18	1.497333E-18
5.149331E+03	4.466386E-18	1.508230E-18
5.159233E+03	4.499125E-18	1.519227E-18
5.169136E+03	4.532111E-18	1.530306E-18
5.179038E+03	4.565294E-18	1.541450E-18
5.188941E+03	4.598662E-18	1.552655E-18
5.198843E+03	4.632247E-18	1.563932E-18
5.208746E+03	4.665948E-18	1.575248E-18
5.218648E+03	4.699791E-18	1.586610E-18
5.228551E+03	4.733811E-18	1.598030E-18
5.238454E+03	4.767841E-18	1.609453E-18
5.248356E+03	4.802006E-18	1.620920E-18
5.258259E+03	4.836136E-18	1.632373E-18
5.268161E+03	4.870347E-18	1.643853E-18
5.278064E+03	4.904468E-18	1.655301E-18
5.287966E+03	4.938560E-18	1.666737E-18
5.297869E+03	4.972594E-18	1.678153E-18
5.307772E+03	5.006492E-18	1.689522E-18
5.317674E+03	5.040317E-18	1.700864E-18
5.327577E+03	5.073890E-18	1.712121E-18
5.337479E+03	5.107331E-18	1.723331E-18
5.347382E+03	5.140560E-18	1.734468E-18
5.357284E+03	5.173551E-18	1.745524E-18
5.367187E+03	5.206276E-18	1.756488E-18
5.377089E+03	5.238709E-18	1.767353E-18
5.386992E+03	5.270775E-18	1.778092E-18
5.396895E+03	5.302448E-18	1.788697E-18
5.406797E+03	5.333701E-18	1.799160E-18
5.416700E+03	5.364507E-18	1.809470E-18
5.426602E+03	5.394789E-18	1.819602E-18
5.436505E+03	5.424458E-18	1.829526E-18
5.446407E+03	5.453537E-18	1.839249E-18
5.456310E+03	5.481940E-18	1.848743E-18
5.466212E+03	5.509573E-18	1.857976E-18
5.476115E+03	5.536343E-18	1.866917E-18
5.486018E+03	5.562269E-18	1.875572E-18
5.495920E+03	5.587198E-18	1.883889E-18
5.505823E+03	5.611143E-18	1.891874E-18
5.515725E+03	5.633953E-18	1.899474E-18
5.525628E+03	5.655584E-18	1.906676E-18
5.535530E+03	5.676052E-18	1.913484E-18
5.545433E+03	5.695196E-18	1.919845E-18
5.555335E+03	5.713035E-18	1.925765E-18
5.565238E+03	5.729525E-18	1.931229E-18
5.575141E+03	5.744565E-18	1.936204E-18
5.585043E+03	5.758116E-18	1.940675E-18
5.594946E+03	5.770196E-18	1.944650E-18
5.604848E+03	5.780770E-18	1.948116E-18
5.614751E+03	5.789747E-18	1.951043E-18
5.624653E+03	5.797158E-18	1.953442E-18
5.634556E+03	5.803039E-18	1.955324E-18
5.644459E+03	5.807249E-18	1.956643E-18
5.654361E+03	5.809834E-18	1.957413E-18
5.664264E+03	5.810843E-18	1.957653E-18
5.674166E+03	5.810273E-18	1.957359E-18
5.684069E+03	5.808117E-18	1.956530E-18
5.693971E+03	5.804381E-18	1.955169E-18
5.703874E+03	5.799065E-18	1.953276E-18
5.713776E+03	5.792242E-18	1.950874E-18
5.723679E+03	5.783858E-18	1.947946E-18
5.733582E+03	5.774050E-18	1.944539E-18
5.743484E+03	5.762774E-18	1.940637E-18
5.753387E+03	5.750048E-18	1.936246E-18
5.763289E+03	5.736018E-18	1.931417E-18
5.773192E+03	5.720589E-18	1.926117E-18
5.783094E+03	5.703852E-18	1.920375E-18
5.792997E+03	5.685906E-18	1.914228E-18
5.802899E+03	5.666730E-18	1.907666E-18
5.812802E+03	5.646436E-18	1.900727E-18
5.822705E+03	5.625010E-18	1.893409E-18
5.832607E+03	5.602642E-18	1.885773E-18
5.842510E+03	5.579332E-18	1.877820E-18
5.852412E+03	5.555153E-18	1.869576E-18
5.862315E+03	5.530236E-18	1.861084E-18
5.872217E+03	5.504599E-18	1.852349E-18
5.882120E+03	5.478376E-18	1.843418E-18
5.892022E+03	5.451581E-18	1.834295E-18
5.901925E+03	5.424349E-18	1.825025E-18
5.911828E+03	5.396751E-18	1.815633E-18
5.921730E+03	5.368859E-18	1.806143E-18
5.931633E+03	5.340676E-18	1.796555E-18
5.941535E+03	5.312333E-18	1.786914E-18
5.951438E+03	5.283890E-18	1.777240E-18
5.961340E+03	5.255347E-18	1.767533E-18
5.971243E+03	5.226827E-18	1.757834E-18
5.981146E+03	5.198322E-18	1.748141E-18
5.991048E+03	5.169823E-18	1.738451E-18
6.000951E+03	5.141505E-18	1.728822E-18
6.010853E+03	5.113296E-18	1.719230E-18
6.020756E+03	5.085301E-18	1.709711E-18
6.030658E+03	5.057440E-18	1.700238E-18
6.040561E+03	5.029819E-18	1.690846E-18
6.050463E+03	5.002410E-18	1.681526E-18
6.060366E+03	4.975252E-18	1.672291E-18
6.070269E+03	4.948378E-18	1.663152E-18
6.080171E+03	4.921758E-18	1.654100E-18
6.090074E+03	4.895419E-18	1.645142E-18
6.099976E+03	4.869388E-18	1.636288E-18
6.109879E+03	4.843691E-18	1.627548E-18
6.119781E+03	4.818348E-18	1.618926E-18
6.129684E+03	4.793317E-18	1.610411E-18
6.139586E+03	4.768679E-18	1.602028E-18
6.149489E+03	4.744446E-18	1.593781E-18
6.159392E+03	4.720635E-18	1.585677E-18
6.169294E+03	4.697319E-18	1.577740E-18
6.179197E+03	4.674567E-18	1.569993E-18
6.189099E+03	4.652453E-18	1.562460E-18
6.199002E+03	4.631044E-18	1.555165E-18
6.208904E+03	4.610411E-18	1.548131E-18
6.218807E+03	4.590679E-18	1.541400E-18
6.228709E+03	4.571794E-18	1.534954E-18
6.238612E+03	4.554010E-18	1.528877E-18
6.248515E+03	4.537266E-18	1.523150E-18
6.258417E+03	4.521693E-18	1.517817E-18
6.268320E+03	4.507356E-18	1.512899E-18
6.278222E+03	4.494323E-18	1.508419E-18
6.288125E+03	4.482598E-18	1.504377E-18
6.298027E+03	4.472251E-18	1.500799E-18
6.307930E+03	4.463348E-18	1.497705E-18
6.317833E+03	4.455896E-18	1.495097E-18
6.327735E+03	4.449902E-18	1.492979E-18
6.337638E+03	4.445437E-18	1.491373E-18
6.347540E+03	4.442380E-18	1.490240E-18
6.357443E+03	4.440735E-18	1.489580E-18
6.367345E+03	4.440445E-18	1.489374E-18
6.377248E+03	4.441384E-18	1.489580E-18
6.387150E+03	4.443621E-18	1.490220E-18
6.397053E+03	4.447032E-18	1.491254E-18
6.406956E+03	4.451683E-18	1.492703E-18
6.416858E+03	4.457584E-18	1.494570E-18
6.426761E+03	4.464669E-18	1.496834E-18
6.436663E+03	4.472946E-18	1.499496E-18
6.446566E+03	4.482418E-18	1.502558E-18
6.456468E+03	4.493088E-18	1.506021E-18
6.466371E+03	4.504966E-18	1.509887E-18
6.476273E+03	4.518126E-18	1.514182E-18
6.486176E+03	4.532504E-18	1.518884E-18
6.496079E+03	4.548035E-18	1.523972E-18
6.505981E+03	4.564867E-18	1.529494E-18
6.515884E+03	4.582865E-18	1.535405E-18
6.525786E+03	4.602106E-18	1.541731E-18
6.535689E+03	4.622597E-18	1.548475E-18
6.545591E+03	4.644346E-18	1.555638E-18
6.555494E+03	4.667361E-18	1.563224E-18
6.565396E+03	4.691571E-18	1.571208E-18
6.575299E+03	4.717062E-18	1.579620E-18
6.585202E+03	4.743763E-18	1.588435E-18
6.595104E+03	4.771761E-18	1.597682E-18
6.605007E+03	4.800983E-18	1.607337E-18
6.614909E+03	4.831437E-18	1.617402E-18
6.624812E+03	4.863213E-18	1.627908E-18
6.634714E+03	4.896320E-18	1.638857E-18
6.644617E+03	4.930603E-18	1.650198E-18
6.654520E+03	4.966235E-18	1.661987E-18
6.664422E+03	5.003058E-18	1.674173E-18
6.674325E+03	5.041252E-18	1.686815E-18
6.684227E+03	5.080741E-18	1.699887E-18
6.694130E+03	5.121448E-18	1.713365E-18
6.704032E+03	5.163557E-18	1.727309E-18
6.713935E+03	5.206905E-18	1.741664E-18
6.723837E+03	5.251587E-18	1.756463E-18
6.733740E+03	5.297620E-18	1.771710E-18
6.743643E+03	5.345012E-18	1.787409E-18
6.753545E+03	5.393680E-18	1.803531E-18
6.763448E+03	5.443729E-18	1.820112E-18
6.773350E+03	5.495074E-18	1.837122E-18
6.783253E+03	5.547824E-18	1.854599E-18
6.793155E+03	5.601887E-18	1.872512E-18
6.803058E+03	5.657272E-18	1.890862E-18
6.812960E+03	5.714095E-18	1.909690E-18
6.822863E+03	5.772152E-18	1.928926E-18
6.832766E+03	5.831663E-18	1.948644E-18
6.842668E+03	5.892532E-18	1.968812E-18
6.852571E+03	5.954766E-18	1.989432E-18
6.862473E+03	6.018372E-18	2.010505E-18
6.872376E+03	6.083356E-18	2.032036E-18
6.882278E+03	6.149612E-18	2.053986E-18
6.892181E+03	6.217256E-18	2.076396E-18
6.902083E+03	6.286297E-18	2.099268E-18
6.911986E+03	6.356741E-18	2.122603E-18
6.921889E+03	6.428346E-18	2.146322E-18
6.931791E+03	6.501484E-18	2.170548E-18
6.941694E+03	6.575784E-18	2.195156E-18
6.951596E+03	6.651498E-18	2.220232E-18
6.961499E+03	6.728499E-18	2.245732E-18
6.971401E+03	6.806786E-18	2.271656E-18
6.981304E+03	6.886357E-18	2.298003E-18
6.991207E+03	6.967209E-18	2.324773E-18
7.001109E+03	7.049202E-18	2.351918E-18
7.011012E+03	7.132465E-18	2.379481E-18
7.020914E+03	7.216996E-18	2.407461E-18
7.030817E+03	7.302645E-18	2.435809E-18
7.040719E+03	7.389546E-18	2.464568E-18
7.050622E+03	7.477546E-18	2.493688E-18
7.060524E+03	7.566629E-18	2.523163E-18
7.070427E+03	7.656780E-18	2.552989E-18
7.080330E+03	7.748144E-18	2.583213E-18
7.090232E+03	7.840390E-18	2.613724E-18
7.100135E+03	7.933492E-18	2.644515E-18
7.110037E+03	8.027759E-18	2.675688E-18
7.119940E+03	8.122841E-18	2.707126E-18
7.129842E+03	8.218709E-18	2.738819E-18
7.139745E+03	8.315508E-18	2.770816E-18
7.149647E+03	8.413041E-18	2.803051E-18
7.159550E+03	8.511275E-18	2.835514E-18
7.169453E+03	8.610177E-18	2.868191E-18
7.179355E+03	8.709713E-18	2.901074E-18
7.189258E+03	8.810039E-18	2.934213E-18
7.199160E+03	8.910738E-18	2.967469E-18
7.209063E+03	9.012158E-18	3.000959E-18
7.218965E+03	9.114068E-18	3.034605E-18
7.228868E+03	9.216426E-18	3.068393E-18
7.238770E+03	9.319392E-18	3.102376E-18
7.248673E+03	9.422728E-18	3.136476E-18
7.258576E+03	9.526597E-18	3.170746E-18
7.268478E+03	9.630961E-18	3.205174E-18
7.278381E+03	9.736002E-18	3.239820E-18
7.288283E+03	9.841689E-18	3.274674E-18
7.298186E+03	9.948218E-18	3.309801E-18
7.308088E+03	1.005534E-17	3.345117E-18
7.317991E+03	1.016371E-17	3.380843E-18
7.327894E+03	1.027334E-17	3.416980E-18
7.337796E+03	1.038398E-17	3.453446E-18
7.347699E+03	1.049636E-17	3.490480E-18
7.357601E+03	1.061023E-17	3.528006E-18
7.367504E+03	1.072587E-17	3.566110E-18
7.377406E+03	1.084303E-17	3.604713E-18
7.387309E+03	1.096198E-17	3.643904E-18
7.397211E+03	1.108196E-17	3.683428E-18
7.407114E+03	1.120348E-17	3.723455E-18
7.417017E+03	1.132573E-17	3.763720E-18
7.426919E+03	1.144897E-17	3.804304E-18
7.436822E+03	1.157290E-17	3.845107E-18
7.446724E+03	1.169720E-17	3.886028E-18
7.456627E+03	1.182213E-17	3.927146E-18
7.466529E+03	1.194676E-17	3.968160E-18
7.476432E+03	1.207163E-17	4.009245E-18
7.486334E+03	1.219639E-17	4.050284E-18
7.496237E+03	1.232098E-17	4.091258E-18
7.506140E+03	1.244502E-17	4.132044E-18
7.516042E+03	1.256876E-17	4.172721E-18
7.525945E+03	1.269182E-17	4.213164E-18
7.535847E+03	1.281412E-17	4.253345E-18
7.545750E+03	1.293589E-17	4.293347E-18
7.555652E+03	1.305676E-17	4.333039E-18
7.565555E+03	1.317697E-17	4.372504E-18
7.575457E+03	1.329577E-17	4.411496E-18
7.585360E+03	1.341376E-17	4.450211E-18
7.595263E+03	1.353052E-17	4.488510E-18
7.605165E+03	1.364632E-17	4.526482E-18
7.615068E+03	1.376072E-17	4.563986E-18
7.624970E+03	1.387365E-17	4.600994E-18
7.634873E+03	1.398503E-17	4.637478E-18
7.644775E+03	1.409549E-17	4.673652E-18
7.654678E+03	1.420386E-17	4.709130E-18
7.664581E+03	1.431118E-17	4.744249E-18
7.674483E+03	1.441662E-17	4.778741E-18
7.684386E+03	1.452048E-17	4.812704E-18
