#wls	flux	fluxerr
1.584409E+03	1.454791E-16	4.347480E-17
1.624020E+03	1.510538E-16	4.514016E-17
1.663630E+03	1.560474E-16	4.663182E-17
1.703240E+03	1.603799E-16	4.792583E-17
1.742850E+03	1.639053E-16	4.897860E-17
1.782461E+03	1.665153E-16	4.975774E-17
1.822071E+03	1.679700E-16	5.019163E-17
1.861681E+03	1.680899E-16	5.022657E-17
1.901291E+03	1.666693E-16	4.980116E-17
1.940902E+03	1.635320E-16	4.886279E-17
1.980512E+03	1.587060E-16	4.741983E-17
2.020122E+03	1.524672E-16	4.555476E-17
2.059732E+03	1.455049E-16	4.347359E-17
2.099342E+03	1.388756E-16	4.149193E-17
2.138953E+03	1.336324E-16	3.992442E-17
2.178563E+03	1.302882E-16	3.892429E-17
2.218173E+03	1.285448E-16	3.840241E-17
2.257783E+03	1.275413E-16	3.810154E-17
2.297394E+03	1.263530E-16	3.774543E-17
2.337004E+03	1.243612E-16	3.714926E-17
2.376614E+03	1.212581E-16	3.622112E-17
2.416224E+03	1.170078E-16	3.495032E-17
2.455835E+03	1.117132E-16	3.336764E-17
2.495445E+03	1.055708E-16	3.153181E-17
2.535055E+03	9.879086E-17	2.950564E-17
2.574665E+03	9.159102E-17	2.735418E-17
2.614276E+03	8.416184E-17	2.513436E-17
2.653886E+03	7.667494E-17	2.289745E-17
2.693496E+03	6.927992E-17	2.068814E-17
2.733106E+03	6.209735E-17	1.854242E-17
2.772716E+03	5.522821E-17	1.649047E-17
2.812327E+03	4.875181E-17	1.455595E-17
2.851937E+03	4.273035E-17	1.275742E-17
2.891547E+03	3.720909E-17	1.110840E-17
2.931157E+03	3.221454E-17	9.616770E-18
2.970768E+03	2.775610E-17	8.285325E-18
2.980670E+03	2.672462E-17	7.977302E-18
2.990573E+03	2.572543E-17	7.678925E-18
3.000475E+03	2.475916E-17	7.390382E-18
3.010378E+03	2.382414E-17	7.111175E-18
3.020280E+03	2.292087E-17	6.841451E-18
3.030183E+03	2.204868E-17	6.581013E-18
3.040086E+03	2.120761E-17	6.329869E-18
3.049988E+03	2.039687E-17	6.087786E-18
3.059891E+03	1.961771E-17	5.855137E-18
3.069793E+03	1.886812E-17	5.631320E-18
3.079696E+03	1.814775E-17	5.416228E-18
3.089598E+03	1.745551E-17	5.209538E-18
3.099501E+03	1.679002E-17	5.010840E-18
3.109403E+03	1.615101E-17	4.820047E-18
3.119306E+03	1.553720E-17	4.636785E-18
3.129209E+03	1.494802E-17	4.460874E-18
3.139111E+03	1.438257E-17	4.292053E-18
3.149014E+03	1.384005E-17	4.130079E-18
3.158916E+03	1.331990E-17	3.974787E-18
3.168819E+03	1.282131E-17	3.825933E-18
3.178721E+03	1.234333E-17	3.683232E-18
3.188624E+03	1.188564E-17	3.546593E-18
3.198526E+03	1.144732E-17	3.415736E-18
3.208429E+03	1.102786E-17	3.290512E-18
3.218332E+03	1.062658E-17	3.170716E-18
3.228234E+03	1.024264E-17	3.056099E-18
3.238137E+03	9.875746E-18	2.946570E-18
3.248039E+03	9.524939E-18	2.841846E-18
3.257942E+03	9.189923E-18	2.741836E-18
3.267844E+03	8.870089E-18	2.646360E-18
3.277747E+03	8.564589E-18	2.555163E-18
3.287650E+03	8.273134E-18	2.468159E-18
3.297552E+03	7.995170E-18	2.385184E-18
3.307455E+03	7.730047E-18	2.306042E-18
3.317357E+03	7.477264E-18	2.230584E-18
3.327260E+03	7.236331E-18	2.158664E-18
3.337162E+03	7.006775E-18	2.090141E-18
3.347065E+03	6.788139E-18	2.024877E-18
3.356967E+03	6.579976E-18	1.962740E-18
3.366870E+03	6.381778E-18	1.903578E-18
3.376773E+03	6.193062E-18	1.847246E-18
3.386675E+03	6.013600E-18	1.793676E-18
3.396578E+03	5.842789E-18	1.742689E-18
3.406480E+03	5.680354E-18	1.694202E-18
3.416383E+03	5.525887E-18	1.648093E-18
3.426285E+03	5.379067E-18	1.604267E-18
3.436188E+03	5.239463E-18	1.562595E-18
3.446090E+03	5.106731E-18	1.522973E-18
3.455993E+03	4.980605E-18	1.485323E-18
3.465896E+03	4.860720E-18	1.449536E-18
3.475798E+03	4.746838E-18	1.415540E-18
3.485701E+03	4.638527E-18	1.383208E-18
3.495603E+03	4.535593E-18	1.352479E-18
3.505506E+03	4.437699E-18	1.323255E-18
3.515408E+03	4.344584E-18	1.295457E-18
3.525311E+03	4.256000E-18	1.269011E-18
3.535213E+03	4.171633E-18	1.243824E-18
3.545116E+03	4.091355E-18	1.219856E-18
3.555019E+03	4.014924E-18	1.197037E-18
3.564921E+03	3.942112E-18	1.175297E-18
3.574824E+03	3.872819E-18	1.154608E-18
3.584726E+03	3.806800E-18	1.134895E-18
3.594629E+03	3.743901E-18	1.116113E-18
3.604531E+03	3.683973E-18	1.098218E-18
3.614434E+03	3.626873E-18	1.081166E-18
3.624337E+03	3.572468E-18	1.064919E-18
3.634239E+03	3.520629E-18	1.049437E-18
3.644142E+03	3.471265E-18	1.034693E-18
3.654044E+03	3.424287E-18	1.020661E-18
3.663947E+03	3.379579E-18	1.007307E-18
3.673849E+03	3.337143E-18	9.946296E-19
3.683752E+03	3.296837E-18	9.825880E-19
3.693654E+03	3.258636E-18	9.711742E-19
3.703557E+03	3.222459E-18	9.603637E-19
3.713460E+03	3.188252E-18	9.501410E-19
3.723362E+03	3.156017E-18	9.405062E-19
3.733265E+03	3.125620E-18	9.314194E-19
3.743167E+03	3.097062E-18	9.228810E-19
3.753070E+03	3.070317E-18	9.148833E-19
3.762972E+03	3.045283E-18	9.073954E-19
3.772875E+03	3.021958E-18	9.004171E-19
3.782777E+03	3.000317E-18	8.939406E-19
3.792680E+03	2.980286E-18	8.879440E-19
3.802583E+03	2.961815E-18	8.824125E-19
3.812485E+03	2.944929E-18	8.773532E-19
3.822388E+03	2.929532E-18	8.727374E-19
3.832290E+03	2.915623E-18	8.685654E-19
3.842193E+03	2.903158E-18	8.648232E-19
3.852095E+03	2.892113E-18	8.615042E-19
3.861998E+03	2.882469E-18	8.586022E-19
3.871900E+03	2.874155E-18	8.560967E-19
3.881803E+03	2.867155E-18	8.539823E-19
3.891706E+03	2.861471E-18	8.522597E-19
3.901608E+03	2.857062E-18	8.509167E-19
3.911511E+03	2.853887E-18	8.499412E-19
3.921413E+03	2.851930E-18	8.493283E-19
3.931316E+03	2.851152E-18	8.490660E-19
3.941218E+03	2.851538E-18	8.491506E-19
3.951121E+03	2.853075E-18	8.495771E-19
3.961024E+03	2.855747E-18	8.503418E-19
3.970926E+03	2.859497E-18	8.514269E-19
3.980829E+03	2.864314E-18	8.528292E-19
3.990731E+03	2.870184E-18	8.545450E-19
4.000634E+03	2.877099E-18	8.565714E-19
4.010536E+03	2.885026E-18	8.588985E-19
4.020439E+03	2.893934E-18	8.615173E-19
4.030341E+03	2.903812E-18	8.644244E-19
4.040244E+03	2.914633E-18	8.676116E-19
4.050147E+03	2.926387E-18	8.710760E-19
4.060049E+03	2.939047E-18	8.748098E-19
4.069952E+03	2.952605E-18	8.788101E-19
4.079854E+03	2.967034E-18	8.830692E-19
4.089757E+03	2.982307E-18	8.875785E-19
4.099659E+03	2.998418E-18	8.923368E-19
4.109562E+03	3.015342E-18	8.973362E-19
4.119464E+03	3.033075E-18	9.025757E-19
4.129367E+03	3.051567E-18	9.080404E-19
4.139270E+03	3.070815E-18	9.137293E-19
4.149172E+03	3.090771E-18	9.196280E-19
4.159075E+03	3.111456E-18	9.257427E-19
4.168977E+03	3.132821E-18	9.320589E-19
4.178880E+03	3.154864E-18	9.385759E-19
4.188782E+03	3.177511E-18	9.452719E-19
4.198685E+03	3.200786E-18	9.521535E-19
4.208587E+03	3.224612E-18	9.591984E-19
4.218490E+03	3.249014E-18	9.664133E-19
4.228393E+03	3.273916E-18	9.737760E-19
4.238295E+03	3.299264E-18	9.812705E-19
4.248198E+03	3.325082E-18	9.889037E-19
4.258100E+03	3.351263E-18	9.966438E-19
4.268003E+03	3.377833E-18	1.004498E-18
4.277905E+03	3.404680E-18	1.012434E-18
4.287808E+03	3.431828E-18	1.020459E-18
4.297711E+03	3.459220E-18	1.028554E-18
4.307613E+03	3.486794E-18	1.036703E-18
4.317516E+03	3.514548E-18	1.044904E-18
4.327418E+03	3.542448E-18	1.053147E-18
4.337321E+03	3.570516E-18	1.061439E-18
4.347223E+03	3.598692E-18	1.069762E-18
4.357126E+03	3.627032E-18	1.078132E-18
4.367028E+03	3.655532E-18	1.086548E-18
4.376931E+03	3.684193E-18	1.095011E-18
4.386834E+03	3.713013E-18	1.103521E-18
4.396736E+03	3.742027E-18	1.112086E-18
4.406639E+03	3.771205E-18	1.120699E-18
4.416541E+03	3.800583E-18	1.129370E-18
4.426444E+03	3.830165E-18	1.138100E-18
4.436346E+03	3.859959E-18	1.146892E-18
4.446249E+03	3.889940E-18	1.155737E-18
4.456151E+03	3.920116E-18	1.164640E-18
4.466054E+03	3.950463E-18	1.173592E-18
4.475957E+03	3.981025E-18	1.182606E-18
4.485859E+03	4.011745E-18	1.191665E-18
4.495762E+03	4.042638E-18	1.200775E-18
4.505664E+03	4.073714E-18	1.209937E-18
4.515567E+03	4.104919E-18	1.219136E-18
4.525469E+03	4.136304E-18	1.228387E-18
4.535372E+03	4.167813E-18	1.237673E-18
4.545274E+03	4.199467E-18	1.247001E-18
4.555177E+03	4.231207E-18	1.256352E-18
4.565080E+03	4.263091E-18	1.265745E-18
4.574982E+03	4.295103E-18	1.275174E-18
4.584885E+03	4.327192E-18	1.284624E-18
4.594787E+03	4.359381E-18	1.294102E-18
4.604690E+03	4.391695E-18	1.303615E-18
4.614592E+03	4.424122E-18	1.313161E-18
4.624495E+03	4.456613E-18	1.322723E-18
4.634398E+03	4.489277E-18	1.332335E-18
4.644300E+03	4.522147E-18	1.342006E-18
4.654203E+03	4.555180E-18	1.351724E-18
4.664105E+03	4.588412E-18	1.361499E-18
4.674008E+03	4.621883E-18	1.371343E-18
4.683910E+03	4.655508E-18	1.381231E-18
4.693813E+03	4.689329E-18	1.391175E-18
4.703715E+03	4.723304E-18	1.401162E-18
4.713618E+03	4.757477E-18	1.411206E-18
4.723521E+03	4.791849E-18	1.421308E-18
4.733423E+03	4.826380E-18	1.431454E-18
4.743326E+03	4.861118E-18	1.441660E-18
4.753228E+03	4.896020E-18	1.451912E-18
4.763131E+03	4.931139E-18	1.462227E-18
4.773033E+03	4.966432E-18	1.472591E-18
4.782936E+03	5.001906E-18	1.483006E-18
4.792838E+03	5.037565E-18	1.493474E-18
4.802741E+03	5.073464E-18	1.504011E-18
4.812644E+03	5.109562E-18	1.514605E-18
4.822546E+03	5.145865E-18	1.525257E-18
4.832449E+03	5.182331E-18	1.535955E-18
4.842351E+03	5.219062E-18	1.546729E-18
4.852254E+03	5.256017E-18	1.557568E-18
4.862156E+03	5.293203E-18	1.568472E-18
4.872059E+03	5.330574E-18	1.579429E-18
4.881961E+03	5.368186E-18	1.590454E-18
4.891864E+03	5.405992E-18	1.601535E-18
4.901767E+03	5.443998E-18	1.612672E-18
4.911669E+03	5.482257E-18	1.623881E-18
4.921572E+03	5.520720E-18	1.635148E-18
4.931474E+03	5.559390E-18	1.646474E-18
4.941377E+03	5.598212E-18	1.657843E-18
4.951279E+03	5.637242E-18	1.669270E-18
4.961182E+03	5.676478E-18	1.680755E-18
4.971085E+03	5.715866E-18	1.692282E-18
4.980987E+03	5.755399E-18	1.703850E-18
4.990890E+03	5.795076E-18	1.715458E-18
5.000792E+03	5.834834E-18	1.727086E-18
5.010695E+03	5.874724E-18	1.738751E-18
5.020597E+03	5.914738E-18	1.750449E-18
5.030500E+03	5.954752E-18	1.762145E-18
5.040402E+03	5.994813E-18	1.773851E-18
5.050305E+03	6.034911E-18	1.785565E-18
5.060208E+03	6.074975E-18	1.797266E-18
5.070110E+03	6.114987E-18	1.808949E-18
5.080013E+03	6.154932E-18	1.820608E-18
5.089915E+03	6.194792E-18	1.832240E-18
5.099818E+03	6.234490E-18	1.843820E-18
5.109720E+03	6.274062E-18	1.855360E-18
5.119623E+03	6.313365E-18	1.866817E-18
5.129525E+03	6.352432E-18	1.878201E-18
5.139428E+03	6.391177E-18	1.889487E-18
5.149331E+03	6.429570E-18	1.900665E-18
5.159233E+03	6.467579E-18	1.911726E-18
5.169136E+03	6.505173E-18	1.922662E-18
5.179038E+03	6.542189E-18	1.933423E-18
5.188941E+03	6.578716E-18	1.944037E-18
5.198843E+03	6.614655E-18	1.954474E-18
5.208746E+03	6.649966E-18	1.964722E-18
5.218648E+03	6.684543E-18	1.974750E-18
5.228551E+03	6.718343E-18	1.984545E-18
5.238454E+03	6.751325E-18	1.994096E-18
5.248356E+03	6.783447E-18	2.003389E-18
5.258259E+03	6.814666E-18	2.012412E-18
5.268161E+03	6.844872E-18	2.021133E-18
5.278064E+03	6.874158E-18	2.029579E-18
5.287966E+03	6.902351E-18	2.037700E-18
5.297869E+03	6.929410E-18	2.045482E-18
5.307772E+03	6.955434E-18	2.052957E-18
5.317674E+03	6.980251E-18	2.060072E-18
5.327577E+03	7.003967E-18	2.066859E-18
5.337479E+03	7.026482E-18	2.073289E-18
5.347382E+03	7.047838E-18	2.079374E-18
5.357284E+03	7.067940E-18	2.085087E-18
5.367187E+03	7.086909E-18	2.090463E-18
5.377089E+03	7.104656E-18	2.095475E-18
5.386992E+03	7.121234E-18	2.100141E-18
5.396895E+03	7.136493E-18	2.104414E-18
5.406797E+03	7.150491E-18	2.108314E-18
5.416700E+03	7.163153E-18	2.111817E-18
5.426602E+03	7.174403E-18	2.114902E-18
5.436505E+03	7.184311E-18	2.117589E-18
5.446407E+03	7.192737E-18	2.119837E-18
5.456310E+03	7.199614E-18	2.121626E-18
5.466212E+03	7.204946E-18	2.122958E-18
5.476115E+03	7.208601E-18	2.123794E-18
5.486018E+03	7.210663E-18	2.124159E-18
5.495920E+03	7.210929E-18	2.123993E-18
5.505823E+03	7.209561E-18	2.123345E-18
5.515725E+03	7.206507E-18	2.122198E-18
5.525628E+03	7.201715E-18	2.120539E-18
5.535530E+03	7.195209E-18	2.118373E-18
5.545433E+03	7.187014E-18	2.115709E-18
5.555335E+03	7.177086E-18	2.112534E-18
5.565238E+03	7.165601E-18	2.108900E-18
5.575141E+03	7.152444E-18	2.104773E-18
5.585043E+03	7.137792E-18	2.100205E-18
5.594946E+03	7.121534E-18	2.095165E-18
5.604848E+03	7.103851E-18	2.089704E-18
5.614751E+03	7.084783E-18	2.083837E-18
5.624653E+03	7.064292E-18	2.077550E-18
5.634556E+03	7.042494E-18	2.070879E-18
5.644459E+03	7.019426E-18	2.063834E-18
5.654361E+03	6.995209E-18	2.056452E-18
5.664264E+03	6.969882E-18	2.048744E-18
5.674166E+03	6.943418E-18	2.040701E-18
5.684069E+03	6.916010E-18	2.032382E-18
5.693971E+03	6.887706E-18	2.023800E-18
5.703874E+03	6.858482E-18	2.014948E-18
5.713776E+03	6.828461E-18	2.005863E-18
5.723679E+03	6.797766E-18	1.996581E-18
5.733582E+03	6.766451E-18	1.987117E-18
5.743484E+03	6.734498E-18	1.977467E-18
5.753387E+03	6.702035E-18	1.967667E-18
5.763289E+03	6.669187E-18	1.957756E-18
5.773192E+03	6.636014E-18	1.947751E-18
5.783094E+03	6.602500E-18	1.937646E-18
5.792997E+03	6.568775E-18	1.927481E-18
5.802899E+03	6.534899E-18	1.917273E-18
5.812802E+03	6.501002E-18	1.907059E-18
5.822705E+03	6.467140E-18	1.896857E-18
5.832607E+03	6.433303E-18	1.886664E-18
5.842510E+03	6.399618E-18	1.876516E-18
5.852412E+03	6.366073E-18	1.866411E-18
5.862315E+03	6.332937E-18	1.856427E-18
5.872217E+03	6.300052E-18	1.846517E-18
5.882120E+03	6.267544E-18	1.836720E-18
5.892022E+03	6.235534E-18	1.827070E-18
5.901925E+03	6.204004E-18	1.817561E-18
5.911828E+03	6.173004E-18	1.808209E-18
5.921730E+03	6.142650E-18	1.799047E-18
5.931633E+03	6.112917E-18	1.790068E-18
5.941535E+03	6.083919E-18	1.781306E-18
5.951438E+03	6.055558E-18	1.772730E-18
5.961340E+03	6.028011E-18	1.764395E-18
5.971243E+03	6.001176E-18	1.756268E-18
5.981146E+03	5.975226E-18	1.748402E-18
5.991048E+03	5.949984E-18	1.740743E-18
6.000951E+03	5.925620E-18	1.733342E-18
6.010853E+03	5.902091E-18	1.726186E-18
6.020756E+03	5.879424E-18	1.719282E-18
6.030658E+03	5.857500E-18	1.712597E-18
6.040561E+03	5.836478E-18	1.706175E-18
6.050463E+03	5.816169E-18	1.699963E-18
6.060366E+03	5.796728E-18	1.694005E-18
6.070269E+03	5.777959E-18	1.688243E-18
6.080171E+03	5.759871E-18	1.682680E-18
6.090074E+03	5.742404E-18	1.677299E-18
6.099976E+03	5.725564E-18	1.672102E-18
6.109879E+03	5.709140E-18	1.667026E-18
6.119781E+03	5.693134E-18	1.662072E-18
6.129684E+03	5.677472E-18	1.657219E-18
6.139586E+03	5.662150E-18	1.652465E-18
6.149489E+03	5.647159E-18	1.647807E-18
6.159392E+03	5.632635E-18	1.643286E-18
6.169294E+03	5.618785E-18	1.638961E-18
6.179197E+03	5.605671E-18	1.634851E-18
6.189099E+03	5.593431E-18	1.630996E-18
6.199002E+03	5.582199E-18	1.627434E-18
6.208904E+03	5.572045E-18	1.624186E-18
6.218807E+03	5.563103E-18	1.621291E-18
6.228709E+03	5.555445E-18	1.618769E-18
6.238612E+03	5.549136E-18	1.616640E-18
6.248515E+03	5.544325E-18	1.614946E-18
6.258417E+03	5.541006E-18	1.613686E-18
6.268320E+03	5.539332E-18	1.612904E-18
6.278222E+03	5.539226E-18	1.612576E-18
6.288125E+03	5.540764E-18	1.612726E-18
6.298027E+03	5.543950E-18	1.613354E-18
6.307930E+03	5.548862E-18	1.614482E-18
6.317833E+03	5.555429E-18	1.616090E-18
6.327735E+03	5.563651E-18	1.618176E-18
6.337638E+03	5.573456E-18	1.620721E-18
6.347540E+03	5.584682E-18	1.623676E-18
6.357443E+03	5.597249E-18	1.627018E-18
6.367345E+03	5.611155E-18	1.630746E-18
6.377248E+03	5.626398E-18	1.634860E-18
6.387150E+03	5.642977E-18	1.639359E-18
6.397053E+03	5.660976E-18	1.644267E-18
6.406956E+03	5.680481E-18	1.649608E-18
6.416858E+03	5.701497E-18	1.655385E-18
6.426761E+03	5.723942E-18	1.661572E-18
6.436663E+03	5.747995E-18	1.668222E-18
6.446566E+03	5.773667E-18	1.675337E-18
6.456468E+03	5.800875E-18	1.682893E-18
6.466371E+03	5.829721E-18	1.690920E-18
6.476273E+03	5.860214E-18	1.699419E-18
6.486176E+03	5.892274E-18	1.708368E-18
6.496079E+03	5.925910E-18	1.717768E-18
6.505981E+03	5.961325E-18	1.727678E-18
6.515884E+03	5.998246E-18	1.738018E-18
6.525786E+03	6.036877E-18	1.748848E-18
6.535689E+03	6.077234E-18	1.760172E-18
6.545591E+03	6.119138E-18	1.771936E-18
6.555494E+03	6.162796E-18	1.784202E-18
6.565396E+03	6.208027E-18	1.796917E-18
6.575299E+03	6.255046E-18	1.810141E-18
6.585202E+03	6.303666E-18	1.823821E-18
6.595104E+03	6.354006E-18	1.837991E-18
6.605007E+03	6.406083E-18	1.852656E-18
6.614909E+03	6.459809E-18	1.867789E-18
6.624812E+03	6.515195E-18	1.883394E-18
6.634714E+03	6.572371E-18	1.899507E-18
6.644617E+03	6.631244E-18	1.916101E-18
6.654520E+03	6.691831E-18	1.933182E-18
6.664422E+03	6.754147E-18	1.950752E-18
6.674325E+03	6.818213E-18	1.968818E-18
6.684227E+03	6.884047E-18	1.987384E-18
6.694130E+03	6.951666E-18	2.006456E-18
6.704032E+03	7.020967E-18	2.026002E-18
6.713935E+03	7.092093E-18	2.046063E-18
6.723837E+03	7.165061E-18	2.066645E-18
6.733740E+03	7.239765E-18	2.087717E-18
6.743643E+03	7.316353E-18	2.109319E-18
6.753545E+03	7.394713E-18	2.131421E-18
6.763448E+03	7.474861E-18	2.154026E-18
6.773350E+03	7.556819E-18	2.177139E-18
6.783253E+03	7.640599E-18	2.200764E-18
6.793155E+03	7.726363E-18	2.224948E-18
6.803058E+03	7.813848E-18	2.249613E-18
6.812960E+03	7.903211E-18	2.274806E-18
6.822863E+03	7.994472E-18	2.300530E-18
6.832766E+03	8.087498E-18	2.326748E-18
6.842668E+03	8.182455E-18	2.353507E-18
6.852571E+03	8.279360E-18	2.380811E-18
6.862473E+03	8.378077E-18	2.408620E-18
6.872376E+03	8.478615E-18	2.436937E-18
6.882278E+03	8.581151E-18	2.465813E-18
6.892181E+03	8.685536E-18	2.495204E-18
6.902083E+03	8.791783E-18	2.525112E-18
6.911986E+03	8.899901E-18	2.555541E-18
6.921889E+03	9.009903E-18	2.586494E-18
6.931791E+03	9.121622E-18	2.617922E-18
6.941694E+03	9.235419E-18	2.649928E-18
6.951596E+03	9.350945E-18	2.682412E-18
6.961499E+03	9.468387E-18	2.715427E-18
6.971401E+03	9.587566E-18	2.748921E-18
6.981304E+03	9.708479E-18	2.782894E-18
6.991207E+03	9.831322E-18	2.817400E-18
7.001109E+03	9.955902E-18	2.852383E-18
7.011012E+03	1.008201E-17	2.887786E-18
7.020914E+03	1.021005E-17	2.923720E-18
7.030817E+03	1.033982E-17	2.960127E-18
7.040719E+03	1.047109E-17	2.996945E-18
7.050622E+03	1.060406E-17	3.034229E-18
7.060524E+03	1.073852E-17	3.071914E-18
7.070427E+03	1.087465E-17	3.110058E-18
7.080330E+03	1.101223E-17	3.148594E-18
7.090232E+03	1.115147E-17	3.187579E-18
7.100135E+03	1.129187E-17	3.226876E-18
7.110037E+03	1.143365E-17	3.266543E-18
7.119940E+03	1.157702E-17	3.306640E-18
7.129842E+03	1.172146E-17	3.347022E-18
7.139745E+03	1.186695E-17	3.387678E-18
7.149647E+03	1.201368E-17	3.428666E-18
7.159550E+03	1.216163E-17	3.469976E-18
7.169453E+03	1.231050E-17	3.511525E-18
7.179355E+03	1.246051E-17	3.553373E-18
7.189258E+03	1.261135E-17	3.595434E-18
7.199160E+03	1.276296E-17	3.637690E-18
7.209063E+03	1.291557E-17	3.680206E-18
7.218965E+03	1.306886E-17	3.722890E-18
7.228868E+03	1.322305E-17	3.765806E-18
7.238770E+03	1.337781E-17	3.808858E-18
7.248673E+03	1.353307E-17	3.852028E-18
7.258576E+03	1.368939E-17	3.895472E-18
7.268478E+03	1.384611E-17	3.939004E-18
7.278381E+03	1.400379E-17	3.982784E-18
7.288283E+03	1.416206E-17	4.026708E-18
7.298186E+03	1.432124E-17	4.070860E-18
7.308088E+03	1.448157E-17	4.115315E-18
7.317991E+03	1.464273E-17	4.159978E-18
7.327894E+03	1.480532E-17	4.205024E-18
7.337796E+03	1.496940E-17	4.250462E-18
7.347699E+03	1.513523E-17	4.296373E-18
7.357601E+03	1.530289E-17	4.342775E-18
7.367504E+03	1.547237E-17	4.389663E-18
7.377406E+03	1.564405E-17	4.437149E-18
7.387309E+03	1.581722E-17	4.485031E-18
7.397211E+03	1.599190E-17	4.533312E-18
7.407114E+03	1.616768E-17	4.581877E-18
7.417017E+03	1.634498E-17	4.630841E-18
7.426919E+03	1.652338E-17	4.680091E-18
7.436822E+03	1.670249E-17	4.729510E-18
7.446724E+03	1.688227E-17	4.779090E-18
7.456627E+03	1.706269E-17	4.828824E-18
7.466529E+03	1.724333E-17	4.878589E-18
7.476432E+03	1.742452E-17	4.928481E-18
7.486334E+03	1.760541E-17	4.978260E-18
7.496237E+03	1.778677E-17	5.028142E-18
7.506140E+03	1.796813E-17	5.077995E-18
7.516042E+03	1.814943E-17	5.127801E-18
7.525945E+03	1.833016E-17	5.177419E-18
7.535847E+03	1.851067E-17	5.226946E-18
7.545750E+03	1.869091E-17	5.276366E-18
7.555652E+03	1.887078E-17	5.325655E-18
7.565555E+03	1.904972E-17	5.374654E-18
7.575457E+03	1.922810E-17	5.423466E-18
7.585360E+03	1.940534E-17	5.471930E-18
7.595263E+03	1.958229E-17	5.520282E-18
7.605165E+03	1.975737E-17	5.568083E-18
7.615068E+03	1.993194E-17	5.615710E-18
7.624970E+03	2.010536E-17	5.662988E-18
7.634873E+03	2.027701E-17	5.709742E-18
7.644775E+03	2.044725E-17	5.756073E-18
7.654678E+03	2.061592E-17	5.801935E-18
7.664581E+03	2.078289E-17	5.847294E-18
7.674483E+03	2.094801E-17	5.892110E-18
7.684386E+03	2.111166E-17	5.936486E-18
