#wls	flux	fluxerr
1.584409E+03	7.218933E-17	2.411896E-17
1.624020E+03	7.668894E-17	2.545022E-17
1.663630E+03	8.113743E-17	2.674454E-17
1.703240E+03	8.546343E-17	2.797890E-17
1.742850E+03	8.961863E-17	2.913845E-17
1.782461E+03	9.349370E-17	3.017464E-17
1.822071E+03	9.693817E-17	3.105449E-17
1.861681E+03	9.980156E-17	3.173323E-17
1.901291E+03	1.018823E-16	3.215145E-17
1.940902E+03	1.030292E-16	3.225092E-17
1.980512E+03	1.031228E-16	3.201774E-17
2.020122E+03	1.022547E-16	3.148806E-17
2.059732E+03	1.007838E-16	3.077888E-17
2.099342E+03	9.940856E-17	3.008996E-17
2.138953E+03	9.890003E-17	2.966864E-17
2.178563E+03	9.973261E-17	2.964895E-17
2.218173E+03	1.018131E-16	2.999255E-17
2.257783E+03	1.045865E-16	3.050973E-17
2.297394E+03	1.072969E-16	3.099303E-17
2.337004E+03	1.093635E-16	3.127692E-17
2.376614E+03	1.104148E-16	3.126172E-17
2.416224E+03	1.103038E-16	3.089610E-17
2.455835E+03	1.090044E-16	3.020217E-17
2.495445E+03	1.065700E-16	2.920529E-17
2.535055E+03	1.031144E-16	2.794660E-17
2.574665E+03	9.878765E-17	2.645862E-17
2.614276E+03	9.371892E-17	2.480214E-17
2.653886E+03	8.805340E-17	2.302218E-17
2.693496E+03	8.194107E-17	2.116314E-17
2.733106E+03	7.554545E-17	1.925815E-17
2.772716E+03	6.899240E-17	1.735662E-17
2.812327E+03	6.242032E-17	1.549443E-17
2.851937E+03	5.596074E-17	1.370393E-17
2.891547E+03	4.974161E-17	1.200741E-17
2.931157E+03	4.385232E-17	1.043289E-17
2.970768E+03	3.837261E-17	8.995577E-18
2.980670E+03	3.707470E-17	8.659050E-18
2.990573E+03	3.580683E-17	8.331024E-18
3.000475E+03	3.456982E-17	8.012416E-18
3.010378E+03	3.336313E-17	7.703022E-18
3.020280E+03	3.218774E-17	7.402980E-18
3.030183E+03	3.104485E-17	7.112186E-18
3.040086E+03	2.993302E-17	6.830545E-18
3.049988E+03	2.885528E-17	6.558657E-18
3.059891E+03	2.781121E-17	6.296338E-18
3.069793E+03	2.680156E-17	6.043411E-18
3.079696E+03	2.582454E-17	5.799652E-18
3.089598E+03	2.487944E-17	5.564814E-18
3.099501E+03	2.396657E-17	5.338876E-18
3.109403E+03	2.308476E-17	5.121280E-18
3.119306E+03	2.223443E-17	4.912261E-18
3.129209E+03	2.141372E-17	4.711322E-18
3.139111E+03	2.062331E-17	4.518529E-18
3.149014E+03	1.986215E-17	4.333396E-18
3.158916E+03	1.913006E-17	4.155988E-18
3.168819E+03	1.842604E-17	3.986013E-18
3.178721E+03	1.774981E-17	3.823327E-18
3.188624E+03	1.710098E-17	3.667627E-18
3.198526E+03	1.647866E-17	3.518800E-18
3.208429E+03	1.588199E-17	3.376590E-18
3.218332E+03	1.531087E-17	3.240906E-18
3.228234E+03	1.476466E-17	3.111415E-18
3.238137E+03	1.424265E-17	2.988031E-18
3.248039E+03	1.374393E-17	2.870497E-18
3.257942E+03	1.326781E-17	2.758601E-18
3.267844E+03	1.281400E-17	2.652120E-18
3.277747E+03	1.238136E-17	2.550861E-18
3.287650E+03	1.196935E-17	2.454655E-18
3.297552E+03	1.157724E-17	2.363295E-18
3.307455E+03	1.120418E-17	2.276466E-18
3.317357E+03	1.084961E-17	2.194090E-18
3.327260E+03	1.051268E-17	2.115942E-18
3.337162E+03	1.019272E-17	2.041838E-18
3.347065E+03	9.889255E-18	1.971566E-18
3.356967E+03	9.601194E-18	1.904934E-18
3.366870E+03	9.328198E-18	1.841832E-18
3.376773E+03	9.069529E-18	1.782071E-18
3.386675E+03	8.824664E-18	1.725449E-18
3.396578E+03	8.592884E-18	1.671848E-18
3.406480E+03	8.373646E-18	1.621124E-18
3.416383E+03	8.166235E-18	1.573104E-18
3.426285E+03	7.970420E-18	1.527661E-18
3.436188E+03	7.785392E-18	1.484656E-18
3.446090E+03	7.610725E-18	1.443978E-18
3.455993E+03	7.445917E-18	1.405501E-18
3.465896E+03	7.290652E-18	1.369099E-18
3.475798E+03	7.144335E-18	1.334673E-18
3.485701E+03	7.006561E-18	1.302122E-18
3.495603E+03	6.876868E-18	1.271334E-18
3.505506E+03	6.754949E-18	1.242199E-18
3.515408E+03	6.640354E-18	1.214644E-18
3.525311E+03	6.532683E-18	1.188574E-18
3.535213E+03	6.431653E-18	1.163919E-18
3.545116E+03	6.336983E-18	1.140583E-18
3.555019E+03	6.248290E-18	1.118504E-18
3.564921E+03	6.165271E-18	1.097611E-18
3.574824E+03	6.087771E-18	1.077859E-18
3.584726E+03	6.015567E-18	1.059175E-18
3.594629E+03	5.948342E-18	1.041507E-18
3.604531E+03	5.885737E-18	1.024776E-18
3.614434E+03	5.827593E-18	1.008943E-18
3.624337E+03	5.773803E-18	9.939633E-19
3.634239E+03	5.724050E-18	9.797819E-19
3.644142E+03	5.678192E-18	9.663628E-19
3.654044E+03	5.636094E-18	9.536716E-19
3.663947E+03	5.597693E-18	9.416814E-19
3.673849E+03	5.562794E-18	9.303540E-19
3.683752E+03	5.531224E-18	9.196502E-19
3.693654E+03	5.502962E-18	9.095567E-19
3.703557E+03	5.478002E-18	9.000640E-19
3.713460E+03	5.456106E-18	8.911223E-19
3.723362E+03	5.437205E-18	8.827114E-19
3.733265E+03	5.421275E-18	8.748188E-19
3.743167E+03	5.408319E-18	8.674438E-19
3.753070E+03	5.398198E-18	8.605477E-19
3.762972E+03	5.390799E-18	8.541045E-19
3.772875E+03	5.386061E-18	8.480963E-19
3.782777E+03	5.384087E-18	8.425469E-19
3.792680E+03	5.384743E-18	8.374121E-19
3.802583E+03	5.387928E-18	8.326684E-19
3.812485E+03	5.393674E-18	8.283136E-19
3.822388E+03	5.401960E-18	8.243605E-19
3.832290E+03	5.412741E-18	8.207714E-19
3.842193E+03	5.425875E-18	8.175178E-19
3.852095E+03	5.441439E-18	8.146041E-19
3.861998E+03	5.459455E-18	8.120598E-19
3.871900E+03	5.479789E-18	8.098251E-19
3.881803E+03	5.502379E-18	8.078845E-19
3.891706E+03	5.527211E-18	8.062293E-19
3.901608E+03	5.554360E-18	8.049075E-19
3.911511E+03	5.583725E-18	8.038549E-19
3.921413E+03	5.615204E-18	8.030506E-19
3.931316E+03	5.648785E-18	8.024870E-19
3.941218E+03	5.684547E-18	8.022250E-19
3.951121E+03	5.722385E-18	8.021887E-19
3.961024E+03	5.762243E-18	8.023644E-19
3.970926E+03	5.804061E-18	8.027384E-19
3.980829E+03	5.847925E-18	8.033870E-19
3.990731E+03	5.893730E-18	8.042210E-19
4.000634E+03	5.941372E-18	8.052212E-19
4.010536E+03	5.990892E-18	8.063879E-19
4.020439E+03	6.042345E-18	8.078103E-19
4.030341E+03	6.095581E-18	8.093778E-19
4.040244E+03	6.150607E-18	8.110864E-19
4.050147E+03	6.207382E-18	8.129260E-19
4.060049E+03	6.266033E-18	8.150148E-19
4.069952E+03	6.326368E-18	8.172186E-19
4.079854E+03	6.388459E-18	8.195421E-19
4.089757E+03	6.452237E-18	8.219718E-19
4.099659E+03	6.517885E-18	8.246559E-19
4.109562E+03	6.585183E-18	8.274351E-19
4.119464E+03	6.654159E-18	8.303086E-19
4.129367E+03	6.724848E-18	8.332766E-19
4.139270E+03	6.797385E-18	8.365067E-19
4.149172E+03	6.871627E-18	8.398246E-19
4.159075E+03	6.947532E-18	8.432208E-19
4.168977E+03	7.025161E-18	8.466987E-19
4.178880E+03	7.104666E-18	8.504583E-19
4.188782E+03	7.185926E-18	8.542985E-19
4.198685E+03	7.268911E-18	8.582116E-19
4.208587E+03	7.353652E-18	8.621969E-19
4.218490E+03	7.440345E-18	8.664947E-19
4.228393E+03	7.528877E-18	8.708709E-19
4.238295E+03	7.619245E-18	8.753208E-19
4.248198E+03	7.711506E-18	8.798467E-19
4.258100E+03	7.805879E-18	8.847309E-19
4.268003E+03	7.902152E-18	8.896892E-19
4.277905E+03	8.000388E-18	8.947244E-19
4.287808E+03	8.100673E-18	8.998416E-19
4.297711E+03	8.203235E-18	9.053694E-19
4.307613E+03	8.307934E-18	9.109874E-19
4.317516E+03	8.414777E-18	9.166918E-19
4.327418E+03	8.523924E-18	9.224952E-19
4.337321E+03	8.635716E-18	9.287896E-19
4.347223E+03	8.750203E-18	9.352242E-19
4.357126E+03	8.867353E-18	9.417904E-19
4.367028E+03	8.987116E-18	9.484773E-19
4.376931E+03	9.109644E-18	9.557145E-19
4.386834E+03	9.234713E-18	9.630658E-19
4.396736E+03	9.362104E-18	9.705041E-19
4.406639E+03	9.491709E-18	9.780138E-19
4.416541E+03	9.623747E-18	9.860961E-19
4.426444E+03	9.757816E-18	9.942362E-19
4.436346E+03	9.893775E-18	1.002416E-18
4.446249E+03	1.003138E-17	1.010609E-18
4.456151E+03	1.017060E-17	1.019345E-18
4.466054E+03	1.031112E-17	1.028069E-18
4.475957E+03	1.045275E-17	1.036758E-18
4.485859E+03	1.059527E-17	1.045390E-18
4.495762E+03	1.073786E-17	1.054463E-18
4.505664E+03	1.088078E-17	1.063437E-18
4.515567E+03	1.102364E-17	1.072276E-18
4.525469E+03	1.116620E-17	1.080954E-18
4.535372E+03	1.130708E-17	1.089960E-18
4.545274E+03	1.144693E-17	1.098754E-18
4.555177E+03	1.158525E-17	1.107288E-18
4.565080E+03	1.172179E-17	1.115542E-18
4.574982E+03	1.185459E-17	1.123991E-18
4.584885E+03	1.198466E-17	1.132091E-18
4.594787E+03	1.211149E-17	1.139795E-18
4.604690E+03	1.223478E-17	1.147079E-18
4.614592E+03	1.235193E-17	1.154400E-18
4.624495E+03	1.246451E-17	1.161227E-18
4.634398E+03	1.257196E-17	1.167513E-18
4.644300E+03	1.267371E-17	1.173207E-18
4.654203E+03	1.276677E-17	1.178767E-18
4.664105E+03	1.285294E-17	1.183649E-18
4.674008E+03	1.293170E-17	1.187809E-18
4.683910E+03	1.300255E-17	1.191209E-18
4.693813E+03	1.306265E-17	1.194341E-18
4.703715E+03	1.311524E-17	1.196766E-18
4.713618E+03	1.316069E-17	1.198523E-18
4.723521E+03	1.319919E-17	1.199631E-18
4.733423E+03	1.322764E-17	1.200564E-18
4.743326E+03	1.324970E-17	1.200911E-18
4.753228E+03	1.326563E-17	1.200698E-18
4.763131E+03	1.327572E-17	1.199953E-18
4.773033E+03	1.327696E-17	1.199120E-18
4.782936E+03	1.327288E-17	1.197807E-18
4.792838E+03	1.326363E-17	1.196028E-18
4.802741E+03	1.324958E-17	1.193818E-18
4.812644E+03	1.322804E-17	1.191602E-18
4.822546E+03	1.320210E-17	1.188991E-18
4.832449E+03	1.317201E-17	1.186007E-18
4.842351E+03	1.313815E-17	1.182686E-18
4.852254E+03	1.309792E-17	1.179408E-18
4.862156E+03	1.305439E-17	1.175833E-18
4.872059E+03	1.300767E-17	1.171967E-18
4.881961E+03	1.295783E-17	1.167818E-18
4.891864E+03	1.290291E-17	1.163774E-18
4.901767E+03	1.284533E-17	1.159484E-18
4.911669E+03	1.278511E-17	1.154946E-18
4.921572E+03	1.272250E-17	1.150185E-18
4.931474E+03	1.265544E-17	1.145529E-18
4.941377E+03	1.258622E-17	1.140662E-18
4.951279E+03	1.251479E-17	1.135581E-18
4.961182E+03	1.244112E-17	1.130280E-18
4.971085E+03	1.236380E-17	1.125101E-18
4.980987E+03	1.228438E-17	1.119709E-18
4.990890E+03	1.220293E-17	1.114108E-18
5.000792E+03	1.211951E-17	1.108302E-18
5.010695E+03	1.203288E-17	1.102605E-18
5.020597E+03	1.194426E-17	1.096693E-18
5.030500E+03	1.185380E-17	1.090581E-18
5.040402E+03	1.176142E-17	1.084258E-18
5.050305E+03	1.166617E-17	1.078024E-18
5.060208E+03	1.156897E-17	1.071566E-18
5.070110E+03	1.146994E-17	1.064899E-18
5.080013E+03	1.136894E-17	1.058005E-18
5.089915E+03	1.126558E-17	1.051197E-18
5.099818E+03	1.116038E-17	1.044167E-18
5.109720E+03	1.105356E-17	1.036934E-18
5.119623E+03	1.094509E-17	1.029492E-18
5.129525E+03	1.083458E-17	1.022122E-18
5.139428E+03	1.072261E-17	1.014553E-18
5.149331E+03	1.060916E-17	1.006782E-18
5.159233E+03	1.049433E-17	9.988182E-19
5.169136E+03	1.037811E-17	9.909454E-19
5.179038E+03	1.026060E-17	9.828800E-19
5.188941E+03	1.014192E-17	9.746304E-19
5.198843E+03	1.002207E-17	9.661958E-19
5.208746E+03	9.901372E-18	9.578694E-19
5.218648E+03	9.779714E-18	9.493702E-19
5.228551E+03	9.657216E-18	9.407090E-19
5.238454E+03	9.533994E-18	9.318962E-19
5.248356E+03	9.410405E-18	9.232060E-19
5.258259E+03	9.286238E-18	9.143709E-19
5.268161E+03	9.161606E-18	9.054016E-19
5.278064E+03	9.036661E-18	8.963125E-19
5.285615E+03	9.914037E-18	9.861782E-19
5.286407E+03	1.008960E-17	1.003945E-18
5.286803E+03	1.016982E-17	1.012081E-18
5.287001E+03	1.020256E-17	1.015415E-18
5.287199E+03	1.023570E-17	1.018792E-18
5.287398E+03	1.026828E-17	1.022112E-18
5.287992E+03	1.039391E-17	1.034854E-18
5.288190E+03	1.042500E-17	1.038029E-18
5.288586E+03	1.050349E-17	1.046004E-18
5.289775E+03	1.077024E-17	1.073061E-18
5.290963E+03	1.103695E-17	1.100139E-18
5.292746E+03	1.144295E-17	1.141393E-18
5.293539E+03	1.161251E-17	1.158662E-18
5.293935E+03	1.168762E-17	1.166335E-18
5.294529E+03	1.181083E-17	1.178902E-18
5.294925E+03	1.188556E-17	1.186543E-18
5.295321E+03	1.196032E-17	1.194191E-18
5.295519E+03	1.198803E-17	1.197049E-18
5.296112E+03	1.210781E-17	1.209289E-18
5.296310E+03	1.213439E-17	1.212037E-18
5.296509E+03	1.216147E-17	1.214836E-18
5.296707E+03	1.218654E-17	1.217433E-18
5.296904E+03	1.221144E-17	1.220014E-18
5.297499E+03	1.232913E-17	1.232057E-18
5.298094E+03	1.244688E-17	1.244114E-18
5.298688E+03	1.256436E-17	1.256147E-18
5.299678E+03	1.277373E-17	1.277573E-18
5.299876E+03	1.279675E-17	1.279974E-18
5.300074E+03	1.281818E-17	1.282217E-18
5.300272E+03	1.283889E-17	1.284387E-18
5.301263E+03	1.304516E-17	1.305528E-18
5.301659E+03	1.311102E-17	1.312322E-18
5.301857E+03	1.313105E-17	1.314429E-18
5.302055E+03	1.315030E-17	1.316458E-18
5.302253E+03	1.316860E-17	1.318393E-18
5.302649E+03	1.323309E-17	1.325054E-18
5.302847E+03	1.325129E-17	1.326981E-18
5.303046E+03	1.326928E-17	1.328886E-18
5.303244E+03	1.328759E-17	1.330822E-18
5.304036E+03	1.344208E-17	1.346714E-18
5.304432E+03	1.350305E-17	1.353033E-18
5.304828E+03	1.356346E-17	1.359298E-18
5.305027E+03	1.357871E-17	1.360932E-18
5.305621E+03	1.368383E-17	1.371788E-18
5.305819E+03	1.369766E-17	1.373282E-18
5.306017E+03	1.371065E-17	1.374691E-18
5.306413E+03	1.376826E-17	1.380683E-18
5.306809E+03	1.382623E-17	1.386712E-18
5.307403E+03	1.392878E-17	1.397324E-18
5.307601E+03	1.394060E-17	1.398619E-18
5.307799E+03	1.395100E-17	1.399772E-18
5.308194E+03	1.400556E-17	1.405465E-18
5.308791E+03	1.410543E-17	1.415821E-18
5.309384E+03	1.420519E-17	1.426168E-18
5.309780E+03	1.425882E-17	1.431776E-18
5.309978E+03	1.426546E-17	1.432555E-18
5.310176E+03	1.427187E-17	1.433311E-18
5.310374E+03	1.428028E-17	1.434268E-18
5.310572E+03	1.428594E-17	1.434949E-18
5.312156E+03	1.459997E-17	1.467412E-18
5.312354E+03	1.460431E-17	1.467964E-18
5.312552E+03	1.460812E-17	1.468462E-18
5.312751E+03	1.461300E-17	1.469068E-18
5.313345E+03	1.470437E-17	1.478602E-18
5.313742E+03	1.475024E-17	1.483449E-18
5.313940E+03	1.475152E-17	1.483694E-18
5.314138E+03	1.475343E-17	1.484003E-18
5.315128E+03	1.492933E-17	1.502287E-18
5.315524E+03	1.497219E-17	1.506838E-18
5.315920E+03	1.501495E-17	1.511379E-18
5.316118E+03	1.501531E-17	1.511534E-18
5.316713E+03	1.509938E-17	1.520358E-18
5.317109E+03	1.513919E-17	1.524606E-18
5.317307E+03	1.513537E-17	1.524343E-18
5.317505E+03	1.513130E-17	1.524052E-18
5.318099E+03	1.521208E-17	1.532552E-18
5.318297E+03	1.520767E-17	1.532229E-18
5.319486E+03	1.541775E-17	1.554134E-18
5.319684E+03	1.541148E-17	1.553625E-18
5.319882E+03	1.540494E-17	1.553088E-18
5.320080E+03	1.539812E-17	1.552524E-18
5.320278E+03	1.539188E-17	1.552018E-18
5.320873E+03	1.546799E-17	1.560063E-18
5.321071E+03	1.545847E-17	1.559227E-18
5.321269E+03	1.544867E-17	1.558362E-18
5.321466E+03	1.543998E-17	1.557608E-18
5.321664E+03	1.542999E-17	1.556724E-18
5.321862E+03	1.541924E-17	1.555763E-18
5.322852E+03	1.557648E-17	1.572253E-18
5.323050E+03	1.556557E-17	1.571277E-18
5.323644E+03	1.563897E-17	1.579063E-18
5.323842E+03	1.562668E-17	1.577947E-18
5.324636E+03	1.573976E-17	1.589873E-18
5.325824E+03	1.593948E-17	1.610817E-18
5.326418E+03	1.600907E-17	1.618237E-18
5.326616E+03	1.599321E-17	1.616762E-18
5.327804E+03	1.618702E-17	1.637140E-18
5.328002E+03	1.616986E-17	1.635535E-18
5.328597E+03	1.623664E-17	1.642683E-18
5.328795E+03	1.621744E-17	1.640872E-18
5.328993E+03	1.619790E-17	1.639026E-18
5.329191E+03	1.617901E-17	1.637245E-18
5.329390E+03	1.615891E-17	1.635343E-18
5.330578E+03	1.634875E-17	1.655351E-18
5.330776E+03	1.632696E-17	1.653278E-18
5.331370E+03	1.638939E-17	1.659999E-18
5.331568E+03	1.636591E-17	1.657753E-18
5.331964E+03	1.638552E-17	1.660007E-18
5.332163E+03	1.636290E-17	1.657848E-18
5.332558E+03	1.638033E-17	1.659881E-18
5.332955E+03	1.639710E-17	1.661847E-18
5.333153E+03	1.637177E-17	1.659413E-18
5.333548E+03	1.638678E-17	1.661201E-18
5.333746E+03	1.635912E-17	1.658531E-18
5.333944E+03	1.633168E-17	1.655882E-18
5.334142E+03	1.630508E-17	1.653318E-18
5.334340E+03	1.627638E-17	1.650541E-18
5.334538E+03	1.624696E-17	1.647690E-18
5.334935E+03	1.625747E-17	1.649022E-18
5.335133E+03	1.622655E-17	1.646018E-18
5.335331E+03	1.619528E-17	1.642979E-18
5.335727E+03	1.620365E-17	1.644094E-18
5.335925E+03	1.617112E-17	1.640925E-18
5.336124E+03	1.613822E-17	1.637719E-18
5.336322E+03	1.610435E-17	1.634414E-18
5.336718E+03	1.611033E-17	1.635285E-18
5.337510E+03	1.619502E-17	1.644412E-18
5.337708E+03	1.615900E-17	1.640887E-18
5.337906E+03	1.612260E-17	1.637323E-18
5.339888E+03	1.644297E-17	1.671211E-18
5.340086E+03	1.640521E-17	1.667508E-18
5.340284E+03	1.636645E-17	1.663703E-18
5.340482E+03	1.632794E-17	1.659923E-18
5.340680E+03	1.628891E-17	1.656089E-18
5.341076E+03	1.628863E-17	1.656330E-18
5.341274E+03	1.624865E-17	1.652398E-18
5.342660E+03	1.644091E-17	1.672901E-18
5.342858E+03	1.639944E-17	1.668818E-18
5.343056E+03	1.635694E-17	1.664628E-18
5.344641E+03	1.658496E-17	1.688931E-18
5.344838E+03	1.654032E-17	1.684521E-18
5.345037E+03	1.649559E-17	1.680103E-18
5.345236E+03	1.644999E-17	1.675596E-18
5.345632E+03	1.644327E-17	1.675185E-18
5.345829E+03	1.639650E-17	1.670556E-18
5.346027E+03	1.634817E-17	1.665767E-18
5.346225E+03	1.630012E-17	1.661006E-18
5.346423E+03	1.625168E-17	1.656205E-18
5.347017E+03	1.627679E-17	1.659171E-18
5.347215E+03	1.622735E-17	1.654266E-18
5.348008E+03	1.628822E-17	1.661014E-18
5.348206E+03	1.623670E-17	1.655895E-18
5.348404E+03	1.618476E-17	1.650733E-18
5.348602E+03	1.613261E-17	1.645549E-18
5.348800E+03	1.608075E-17	1.640393E-18
5.348998E+03	1.602918E-17	1.635266E-18
5.349196E+03	1.597442E-17	1.629813E-18
5.349394E+03	1.591944E-17	1.624337E-18
5.349592E+03	1.586405E-17	1.618817E-18
5.350583E+03	1.595179E-17	1.628438E-18
5.350979E+03	1.593162E-17	1.626645E-18
5.351177E+03	1.587274E-17	1.620766E-18
5.351375E+03	1.581344E-17	1.614844E-18
5.351574E+03	1.575659E-17	1.609170E-18
5.352168E+03	1.576685E-17	1.610614E-18
5.352564E+03	1.574228E-17	1.608369E-18
5.352762E+03	1.568010E-17	1.602147E-18
5.353158E+03	1.565333E-17	1.599674E-18
5.353356E+03	1.559227E-17	1.593565E-18
5.353752E+03	1.556582E-17	1.591124E-18
5.353950E+03	1.550240E-17	1.584771E-18
5.354346E+03	1.547374E-17	1.582101E-18
5.354544E+03	1.540925E-17	1.575637E-18
5.355535E+03	1.547830E-17	1.583349E-18
5.355734E+03	1.541319E-17	1.576819E-18
5.355932E+03	1.534750E-17	1.570228E-18
5.356130E+03	1.528138E-17	1.563593E-18
5.356724E+03	1.527984E-17	1.563822E-18
5.356921E+03	1.521261E-17	1.557069E-18
5.357516E+03	1.520968E-17	1.557155E-18
5.357714E+03	1.514119E-17	1.550270E-18
5.357911E+03	1.507241E-17	1.543355E-18
5.358109E+03	1.500321E-17	1.536396E-18
5.358505E+03	1.496520E-17	1.532757E-18
5.358703E+03	1.489492E-17	1.525685E-18
5.358901E+03	1.482436E-17	1.518582E-18
5.359892E+03	1.487793E-17	1.524701E-18
5.360288E+03	1.483736E-17	1.520794E-18
5.360486E+03	1.476442E-17	1.513443E-18
5.361279E+03	1.478440E-17	1.515995E-18
5.361873E+03	1.477199E-17	1.515099E-18
5.362863E+03	1.481807E-17	1.520455E-18
5.363260E+03	1.477255E-17	1.516035E-18
5.364052E+03	1.478503E-17	1.517820E-18
5.364250E+03	1.470541E-17	1.509772E-18
5.364448E+03	1.462949E-17	1.502102E-18
5.364646E+03	1.455314E-17	1.494387E-18
5.364844E+03	1.447397E-17	1.486381E-18
5.365042E+03	1.439437E-17	1.478330E-18
5.365438E+03	1.434317E-17	1.473316E-18
5.365636E+03	1.426163E-17	1.465062E-18
5.366032E+03	1.420908E-17	1.459908E-18
5.366231E+03	1.412752E-17	1.451648E-18
5.366429E+03	1.404537E-17	1.443328E-18
5.367023E+03	1.401845E-17	1.440921E-18
5.367222E+03	1.393509E-17	1.432472E-18
5.367420E+03	1.385128E-17	1.423975E-18
5.368212E+03	1.384887E-17	1.424203E-18
5.368410E+03	1.376266E-17	1.415455E-18
5.368608E+03	1.367522E-17	1.406580E-18
5.369004E+03	1.361406E-17	1.400522E-18
5.369399E+03	1.355806E-17	1.394994E-18
5.369796E+03	1.349773E-17	1.389019E-18
5.370389E+03	1.346282E-17	1.385773E-18
5.370587E+03	1.337212E-17	1.376552E-18
5.370785E+03	1.328359E-17	1.367553E-18
5.370984E+03	1.319375E-17	1.358418E-18
5.371182E+03	1.310265E-17	1.349151E-18
5.371579E+03	1.303896E-17	1.342818E-18
5.371777E+03	1.294673E-17	1.333432E-18
5.371975E+03	1.285495E-17	1.324089E-18
5.372173E+03	1.276277E-17	1.314705E-18
5.372569E+03	1.269530E-17	1.307974E-18
5.372767E+03	1.260469E-17	1.298747E-18
5.372965E+03	1.251185E-17	1.289289E-18
5.373361E+03	1.244047E-17	1.282149E-18
5.373559E+03	1.234839E-17	1.272765E-18
5.373757E+03	1.225676E-17	1.263427E-18
5.374153E+03	1.218497E-17	1.256238E-18
5.374351E+03	1.209141E-17	1.246696E-18
5.374549E+03	1.199649E-17	1.237013E-18
5.374946E+03	1.192353E-17	1.229696E-18
5.375540E+03	1.187184E-17	1.224674E-18
5.375738E+03	1.177683E-17	1.214975E-18
5.375936E+03	1.168045E-17	1.205134E-18
5.376134E+03	1.158270E-17	1.195149E-18
5.376332E+03	1.148730E-17	1.185404E-18
5.376927E+03	1.143210E-17	1.180006E-18
5.377125E+03	1.133449E-17	1.170030E-18
5.377323E+03	1.123645E-17	1.160007E-18
5.377719E+03	1.115942E-17	1.152248E-18
5.378709E+03	1.114368E-17	1.151108E-18
5.378908E+03	1.104518E-17	1.141029E-18
