#wls	flux	fluxerr
1.584409E+03	1.703854E-16	5.707983E-17
1.624020E+03	1.769485E-16	5.927753E-17
1.663630E+03	1.828371E-16	6.124917E-17
1.703240E+03	1.879403E-16	6.295760E-17
1.742850E+03	1.921242E-16	6.435799E-17
1.782461E+03	1.952082E-16	6.538988E-17
1.822071E+03	1.969480E-16	6.597142E-17
1.861681E+03	1.971160E-16	6.602641E-17
1.901291E+03	1.954717E-16	6.547432E-17
1.940902E+03	1.918235E-16	6.425102E-17
1.980512E+03	1.861873E-16	6.236187E-17
2.020122E+03	1.788859E-16	5.991502E-17
2.059732E+03	1.707269E-16	5.718101E-17
2.099342E+03	1.629709E-16	5.458208E-17
2.138953E+03	1.568362E-16	5.252621E-17
2.178563E+03	1.529486E-16	5.122295E-17
2.218173E+03	1.509742E-16	5.056045E-17
2.257783E+03	1.498285E-16	5.017547E-17
2.297394E+03	1.484890E-16	4.972557E-17
2.337004E+03	1.462101E-16	4.896109E-17
2.376614E+03	1.426114E-16	4.775466E-17
2.416224E+03	1.376206E-16	4.608214E-17
2.455835E+03	1.313671E-16	4.398687E-17
2.495445E+03	1.240730E-16	4.154326E-17
2.535055E+03	1.159859E-16	3.883423E-17
2.574665E+03	1.073619E-16	3.594560E-17
2.614276E+03	9.843760E-17	3.295660E-17
2.653886E+03	8.942407E-17	2.993788E-17
2.693496E+03	8.050526E-17	2.695106E-17
2.733106E+03	7.184267E-17	2.405019E-17
2.772716E+03	6.356002E-17	2.127669E-17
2.812327E+03	5.575930E-17	1.866470E-17
2.851937E+03	4.852297E-17	1.624180E-17
2.891547E+03	4.190952E-17	1.402756E-17
2.931157E+03	3.595649E-17	1.203453E-17
2.970768E+03	3.067508E-17	1.026642E-17
2.980670E+03	2.945824E-17	9.859061E-18
2.990573E+03	2.828207E-17	9.465320E-18
3.000475E+03	2.714651E-17	9.085177E-18
3.010378E+03	2.605074E-17	8.718360E-18
3.020280E+03	2.499395E-17	8.364595E-18
3.030183E+03	2.397584E-17	8.023779E-18
3.040086E+03	2.299528E-17	7.695537E-18
3.049988E+03	2.205318E-17	7.380174E-18
3.059891E+03	2.114883E-17	7.077452E-18
3.069793E+03	2.028121E-17	6.787027E-18
3.079696E+03	1.944889E-17	6.508418E-18
3.089598E+03	1.865095E-17	6.241320E-18
3.099501E+03	1.788604E-17	5.985283E-18
3.109403E+03	1.715298E-17	5.739910E-18
3.119306E+03	1.645089E-17	5.504905E-18
3.129209E+03	1.577834E-17	5.279790E-18
3.139111E+03	1.513484E-17	5.064400E-18
3.149014E+03	1.451903E-17	4.858280E-18
3.158916E+03	1.393014E-17	4.661172E-18
3.168819E+03	1.336716E-17	4.472739E-18
3.178721E+03	1.282913E-17	4.292658E-18
3.188624E+03	1.231532E-17	4.120685E-18
3.198526E+03	1.182479E-17	3.956505E-18
3.208429E+03	1.135644E-17	3.799751E-18
3.218332E+03	1.090996E-17	3.650318E-18
3.228234E+03	1.048394E-17	3.507732E-18
3.238137E+03	1.007805E-17	3.371887E-18
3.248039E+03	9.691152E-18	3.242398E-18
3.257942E+03	9.322610E-18	3.119054E-18
3.267844E+03	8.971791E-18	3.001642E-18
3.277747E+03	8.637671E-18	2.889819E-18
3.287650E+03	8.319795E-18	2.783434E-18
3.297552E+03	8.017448E-18	2.682247E-18
3.307455E+03	7.729833E-18	2.585990E-18
3.317357E+03	7.456304E-18	2.494449E-18
3.327260E+03	7.196239E-18	2.407413E-18
3.337162E+03	6.949133E-18	2.324716E-18
3.347065E+03	6.714217E-18	2.246098E-18
3.356967E+03	6.491121E-18	2.171436E-18
3.366870E+03	6.279139E-18	2.100493E-18
3.376773E+03	6.077772E-18	2.033104E-18
3.386675E+03	5.886616E-18	1.969132E-18
3.396578E+03	5.704990E-18	1.908349E-18
3.406480E+03	5.532613E-18	1.850662E-18
3.416383E+03	5.368995E-18	1.795906E-18
3.426285E+03	5.213562E-18	1.743889E-18
3.436188E+03	5.066074E-18	1.694531E-18
3.446090E+03	4.926012E-18	1.647658E-18
3.455993E+03	4.793059E-18	1.603164E-18
3.465896E+03	4.666858E-18	1.560930E-18
3.475798E+03	4.546924E-18	1.520793E-18
3.485701E+03	4.433009E-18	1.482670E-18
3.495603E+03	4.324734E-18	1.446434E-18
3.505506E+03	4.221750E-18	1.411969E-18
3.515408E+03	4.123775E-18	1.379180E-18
3.525311E+03	4.030470E-18	1.347954E-18
3.535213E+03	3.941555E-18	1.318197E-18
3.545116E+03	3.856738E-18	1.289811E-18
3.555019E+03	3.775821E-18	1.262730E-18
3.564921E+03	3.698580E-18	1.236879E-18
3.574824E+03	3.624773E-18	1.212177E-18
3.584726E+03	3.554240E-18	1.188571E-18
3.594629E+03	3.486831E-18	1.166010E-18
3.604531E+03	3.422337E-18	1.144424E-18
3.614434E+03	3.360717E-18	1.123800E-18
3.624337E+03	3.301774E-18	1.104072E-18
3.634239E+03	3.245440E-18	1.085217E-18
3.644142E+03	3.191622E-18	1.067203E-18
3.654044E+03	3.140222E-18	1.049999E-18
3.663947E+03	3.091172E-18	1.033580E-18
3.673849E+03	3.044432E-18	1.017935E-18
3.683752E+03	2.999857E-18	1.003014E-18
3.693654E+03	2.957457E-18	9.888203E-19
3.703557E+03	2.917114E-18	9.753147E-19
3.713460E+03	2.878786E-18	9.624833E-19
3.723362E+03	2.842432E-18	9.503121E-19
3.733265E+03	2.807938E-18	9.387632E-19
3.743167E+03	2.775311E-18	9.278390E-19
3.753070E+03	2.744463E-18	9.175094E-19
3.762972E+03	2.715356E-18	9.077622E-19
3.772875E+03	2.687926E-18	8.985758E-19
3.782777E+03	2.662135E-18	8.899378E-19
3.792680E+03	2.637925E-18	8.818284E-19
3.802583E+03	2.615261E-18	8.742359E-19
3.812485E+03	2.594087E-18	8.671419E-19
3.822388E+03	2.574390E-18	8.605414E-19
3.832290E+03	2.556117E-18	8.544173E-19
3.842193E+03	2.539215E-18	8.487516E-19
3.852095E+03	2.523658E-18	8.435354E-19
3.861998E+03	2.509393E-18	8.387512E-19
3.871900E+03	2.496414E-18	8.343972E-19
3.881803E+03	2.484675E-18	8.304573E-19
3.891706E+03	2.474150E-18	8.269233E-19
3.901608E+03	2.464794E-18	8.237804E-19
3.911511E+03	2.456565E-18	8.210136E-19
3.921413E+03	2.449477E-18	8.186286E-19
3.931316E+03	2.443451E-18	8.165983E-19
3.941218E+03	2.438486E-18	8.149228E-19
3.951121E+03	2.434543E-18	8.135883E-19
3.961024E+03	2.431600E-18	8.125884E-19
3.970926E+03	2.429642E-18	8.119172E-19
3.980829E+03	2.428611E-18	8.115560E-19
3.990731E+03	2.428509E-18	8.115051E-19
4.000634E+03	2.429302E-18	8.117531E-19
4.010536E+03	2.430975E-18	8.122950E-19
4.020439E+03	2.433494E-18	8.131195E-19
4.030341E+03	2.436828E-18	8.142161E-19
4.040244E+03	2.440981E-18	8.155862E-19
4.050147E+03	2.445906E-18	8.172143E-19
4.060049E+03	2.451590E-18	8.190957E-19
4.069952E+03	2.458024E-18	8.212272E-19
4.079854E+03	2.465159E-18	8.235932E-19
4.089757E+03	2.473009E-18	8.261973E-19
4.099659E+03	2.481524E-18	8.290238E-19
4.109562E+03	2.490701E-18	8.320708E-19
4.119464E+03	2.500528E-18	8.353351E-19
4.129367E+03	2.510966E-18	8.388030E-19
4.139270E+03	2.522024E-18	8.424778E-19
4.149172E+03	2.533642E-18	8.463392E-19
4.159075E+03	2.545852E-18	8.503981E-19
4.168977E+03	2.558592E-18	8.546341E-19
4.178880E+03	2.571860E-18	8.590457E-19
4.188782E+03	2.585632E-18	8.636256E-19
4.198685E+03	2.599904E-18	8.683719E-19
4.208587E+03	2.614616E-18	8.732650E-19
4.218490E+03	2.629786E-18	8.783104E-19
4.228393E+03	2.645369E-18	8.834937E-19
4.238295E+03	2.661325E-18	8.888012E-19
4.248198E+03	2.677651E-18	8.942318E-19
4.258100E+03	2.694327E-18	8.997786E-19
4.268003E+03	2.711287E-18	9.054202E-19
4.277905E+03	2.728507E-18	9.111480E-19
4.287808E+03	2.745964E-18	9.169546E-19
4.297711E+03	2.763634E-18	9.228319E-19
4.307613E+03	2.781490E-18	9.287707E-19
4.317516E+03	2.799529E-18	9.347706E-19
4.327418E+03	2.817728E-18	9.408229E-19
4.337321E+03	2.836055E-18	9.469180E-19
4.347223E+03	2.854556E-18	9.530702E-19
4.357126E+03	2.873202E-18	9.592709E-19
4.367028E+03	2.891990E-18	9.655180E-19
4.376931E+03	2.910941E-18	9.718193E-19
4.386834E+03	2.930052E-18	9.781737E-19
4.396736E+03	2.949298E-18	9.845725E-19
4.406639E+03	2.968701E-18	9.910233E-19
4.416541E+03	2.988239E-18	9.975183E-19
4.426444E+03	3.007912E-18	1.004058E-18
4.436346E+03	3.027720E-18	1.010642E-18
4.446249E+03	3.047617E-18	1.017256E-18
4.456151E+03	3.067632E-18	1.023908E-18
4.466054E+03	3.087743E-18	1.030592E-18
4.475957E+03	3.107932E-18	1.037302E-18
4.485859E+03	3.128207E-18	1.044039E-18
4.495762E+03	3.148524E-18	1.050790E-18
4.505664E+03	3.168892E-18	1.057557E-18
4.515567E+03	3.189324E-18	1.064346E-18
4.525469E+03	3.209806E-18	1.071150E-18
4.535372E+03	3.230296E-18	1.077956E-18
4.545274E+03	3.250810E-18	1.084770E-18
4.555177E+03	3.271340E-18	1.091588E-18
4.565080E+03	3.291873E-18	1.098407E-18
4.574982E+03	3.312431E-18	1.105234E-18
4.584885E+03	3.332976E-18	1.112055E-18
4.594787E+03	3.353531E-18	1.118880E-18
4.604690E+03	3.374090E-18	1.125705E-18
4.614592E+03	3.394649E-18	1.132529E-18
4.624495E+03	3.415204E-18	1.139352E-18
4.634398E+03	3.435751E-18	1.146171E-18
4.644300E+03	3.456289E-18	1.152987E-18
4.654203E+03	3.476878E-18	1.159819E-18
4.664105E+03	3.497516E-18	1.166667E-18
4.674008E+03	3.518207E-18	1.173531E-18
4.683910E+03	3.539015E-18	1.180434E-18
4.693813E+03	3.559912E-18	1.187366E-18
4.703715E+03	3.580903E-18	1.194329E-18
4.713618E+03	3.602024E-18	1.201334E-18
4.723521E+03	3.623282E-18	1.208384E-18
4.733423E+03	3.644653E-18	1.215472E-18
4.743326E+03	3.666174E-18	1.222608E-18
4.753228E+03	3.687856E-18	1.229798E-18
4.763131E+03	3.709673E-18	1.237032E-18
4.773033E+03	3.731669E-18	1.244324E-18
4.782936E+03	3.753853E-18	1.251679E-18
4.792838E+03	3.776238E-18	1.259100E-18
4.802741E+03	3.798837E-18	1.266592E-18
4.812644E+03	3.821625E-18	1.274145E-18
4.822546E+03	3.844684E-18	1.281789E-18
4.832449E+03	3.867960E-18	1.289504E-18
4.842351E+03	3.891465E-18	1.297294E-18
4.852254E+03	3.915250E-18	1.305177E-18
4.862156E+03	3.939328E-18	1.313157E-18
4.872059E+03	3.963715E-18	1.321238E-18
4.881961E+03	3.988353E-18	1.329403E-18
4.891864E+03	4.013328E-18	1.337679E-18
4.901767E+03	4.038619E-18	1.346060E-18
4.911669E+03	4.064242E-18	1.354550E-18
4.921572E+03	4.090208E-18	1.363153E-18
4.931474E+03	4.116531E-18	1.371875E-18
4.941377E+03	4.143185E-18	1.380706E-18
4.951279E+03	4.170182E-18	1.389650E-18
4.961182E+03	4.197568E-18	1.398723E-18
4.971085E+03	4.225317E-18	1.407916E-18
4.980987E+03	4.253395E-18	1.417217E-18
4.990890E+03	4.281892E-18	1.426657E-18
5.000792E+03	4.310687E-18	1.436195E-18
5.010695E+03	4.339870E-18	1.445862E-18
5.020597E+03	4.369445E-18	1.455658E-18
5.030500E+03	4.399288E-18	1.465541E-18
5.040402E+03	4.429528E-18	1.475557E-18
5.050305E+03	4.460079E-18	1.485674E-18
5.060208E+03	4.490940E-18	1.495894E-18
5.070110E+03	4.522157E-18	1.506231E-18
5.080013E+03	4.553636E-18	1.516654E-18
5.089915E+03	4.585377E-18	1.527163E-18
5.099818E+03	4.617418E-18	1.537771E-18
5.109720E+03	4.649710E-18	1.548461E-18
5.119623E+03	4.682249E-18	1.559231E-18
5.129525E+03	4.714977E-18	1.570064E-18
5.139428E+03	4.747937E-18	1.580973E-18
5.149331E+03	4.781027E-18	1.591923E-18
5.159233E+03	4.814325E-18	1.602942E-18
5.169136E+03	4.847779E-18	1.614011E-18
5.179038E+03	4.881324E-18	1.625109E-18
5.188941E+03	4.914947E-18	1.636231E-18
5.198843E+03	4.948679E-18	1.647388E-18
5.208746E+03	4.982408E-18	1.658543E-18
5.218648E+03	5.016160E-18	1.669705E-18
5.228551E+03	5.049965E-18	1.680882E-18
5.238454E+03	5.083653E-18	1.692019E-18
5.248356E+03	5.117348E-18	1.703157E-18
5.258259E+03	5.150873E-18	1.714237E-18
5.268161E+03	5.184355E-18	1.725301E-18
5.278064E+03	5.217611E-18	1.736288E-18
5.287966E+03	5.250715E-18	1.747223E-18
5.297869E+03	5.283636E-18	1.758096E-18
5.307772E+03	5.316295E-18	1.768880E-18
5.317674E+03	5.348767E-18	1.779601E-18
5.327577E+03	5.380860E-18	1.790194E-18
5.337479E+03	5.412708E-18	1.800703E-18
5.347382E+03	5.444227E-18	1.811102E-18
5.357284E+03	5.475390E-18	1.821381E-18
5.367187E+03	5.506169E-18	1.831531E-18
5.377089E+03	5.536537E-18	1.841542E-18
5.386992E+03	5.566410E-18	1.851388E-18
5.396895E+03	5.595763E-18	1.861059E-18
5.406797E+03	5.624568E-18	1.870545E-18
5.416700E+03	5.652796E-18	1.879839E-18
5.426602E+03	5.680365E-18	1.888912E-18
5.436505E+03	5.707186E-18	1.897735E-18
5.446407E+03	5.733290E-18	1.906318E-18
5.456310E+03	5.758586E-18	1.914631E-18
5.466212E+03	5.782988E-18	1.922646E-18
5.476115E+03	5.806405E-18	1.930331E-18
5.486018E+03	5.828861E-18	1.937696E-18
5.495920E+03	5.850206E-18	1.944690E-18
5.505823E+03	5.870466E-18	1.951322E-18
5.515725E+03	5.889490E-18	1.957542E-18
5.525628E+03	5.907242E-18	1.963337E-18
5.535530E+03	5.923751E-18	1.968719E-18
5.545433E+03	5.938860E-18	1.973634E-18
5.555335E+03	5.952601E-18	1.978093E-18
5.565238E+03	5.964942E-18	1.982086E-18
5.575141E+03	5.975794E-18	1.985584E-18
5.585043E+03	5.985127E-18	1.988575E-18
5.594946E+03	5.992979E-18	1.991074E-18
5.604848E+03	5.999327E-18	1.993072E-18
5.614751E+03	6.004090E-18	1.994542E-18
5.624653E+03	6.007313E-18	1.995501E-18
5.634556E+03	6.009046E-18	1.995963E-18
5.644459E+03	6.009152E-18	1.995885E-18
5.654361E+03	6.007690E-18	1.995285E-18
5.664264E+03	6.004719E-18	1.994183E-18
5.674166E+03	6.000240E-18	1.992580E-18
5.684069E+03	5.994258E-18	1.990478E-18
5.693971E+03	5.986781E-18	1.987879E-18
5.703874E+03	5.977822E-18	1.984787E-18
5.713776E+03	5.967458E-18	1.981229E-18
5.723679E+03	5.955644E-18	1.977189E-18
5.733582E+03	5.942529E-18	1.972717E-18
5.743484E+03	5.928076E-18	1.967800E-18
5.753387E+03	5.912310E-18	1.962448E-18
5.763289E+03	5.895395E-18	1.956715E-18
5.773192E+03	5.877236E-18	1.950568E-18
5.783094E+03	5.857937E-18	1.944044E-18
5.792997E+03	5.837606E-18	1.937177E-18
5.802899E+03	5.816226E-18	1.929962E-18
5.812802E+03	5.793911E-18	1.922437E-18
5.822705E+03	5.770652E-18	1.914600E-18
5.832607E+03	5.746636E-18	1.906511E-18
5.842510E+03	5.721859E-18	1.898171E-18
5.852412E+03	5.696383E-18	1.889599E-18
5.862315E+03	5.670339E-18	1.880839E-18
5.872217E+03	5.643728E-18	1.871891E-18
5.882120E+03	5.616681E-18	1.862799E-18
5.892022E+03	5.589203E-18	1.853565E-18
5.901925E+03	5.561425E-18	1.844232E-18
5.911828E+03	5.533410E-18	1.834822E-18
5.921730E+03	5.505226E-18	1.825355E-18
5.931633E+03	5.476872E-18	1.815833E-18
5.941535E+03	5.448470E-18	1.806296E-18
5.951438E+03	5.420084E-18	1.796764E-18
5.961340E+03	5.391706E-18	1.787236E-18
5.971243E+03	5.363456E-18	1.777751E-18
5.981146E+03	5.335321E-18	1.768305E-18
5.991048E+03	5.307290E-18	1.758894E-18
6.000951E+03	5.279537E-18	1.749576E-18
6.010853E+03	5.251982E-18	1.740324E-18
6.020756E+03	5.224730E-18	1.731173E-18
6.030658E+03	5.197697E-18	1.722095E-18
6.040561E+03	5.170982E-18	1.713123E-18
6.050463E+03	5.144560E-18	1.704250E-18
6.060366E+03	5.118464E-18	1.695484E-18
6.070269E+03	5.092723E-18	1.686837E-18
6.080171E+03	5.067302E-18	1.678296E-18
6.090074E+03	5.042230E-18	1.669872E-18
6.099976E+03	5.017529E-18	1.661571E-18
6.109879E+03	4.993220E-18	1.653401E-18
6.119781E+03	4.969323E-18	1.645368E-18
6.129684E+03	4.945791E-18	1.637456E-18
6.139586E+03	4.922703E-18	1.629691E-18
6.149489E+03	4.900071E-18	1.622078E-18
6.159392E+03	4.877906E-18	1.614621E-18
6.169294E+03	4.856282E-18	1.607342E-18
6.179197E+03	4.835270E-18	1.600267E-18
6.189099E+03	4.814937E-18	1.593418E-18
6.199002E+03	4.795357E-18	1.586817E-18
6.208904E+03	4.776595E-18	1.580488E-18
6.218807E+03	4.758784E-18	1.574474E-18
6.228709E+03	4.741862E-18	1.568754E-18
6.238612E+03	4.726091E-18	1.563416E-18
6.248515E+03	4.711409E-18	1.558438E-18
6.258417E+03	4.697949E-18	1.553864E-18
6.268320E+03	4.685778E-18	1.549717E-18
6.278222E+03	4.674967E-18	1.546019E-18
6.288125E+03	4.665519E-18	1.542773E-18
6.298027E+03	4.657506E-18	1.540000E-18
6.307930E+03	4.650998E-18	1.537725E-18
6.317833E+03	4.646003E-18	1.535951E-18
6.327735E+03	4.642527E-18	1.534678E-18
6.337638E+03	4.640647E-18	1.533932E-18
6.347540E+03	4.640234E-18	1.533671E-18
6.357443E+03	4.641295E-18	1.533896E-18
6.367345E+03	4.643770E-18	1.534588E-18
6.377248E+03	4.647526E-18	1.535703E-18
6.387150E+03	4.652640E-18	1.537265E-18
6.397053E+03	4.658976E-18	1.539231E-18
6.406956E+03	4.666609E-18	1.541624E-18
6.416858E+03	4.675544E-18	1.544446E-18
6.426761E+03	4.685719E-18	1.547676E-18
6.436663E+03	4.697134E-18	1.551316E-18
6.446566E+03	4.709797E-18	1.555366E-18
6.456468E+03	4.723713E-18	1.559828E-18
6.466371E+03	4.738889E-18	1.564706E-18
6.476273E+03	4.755404E-18	1.570024E-18
6.486176E+03	4.773191E-18	1.575760E-18
6.496079E+03	4.792182E-18	1.581892E-18
6.505981E+03	4.812534E-18	1.588472E-18
6.515884E+03	4.834101E-18	1.595451E-18
6.525786E+03	4.856969E-18	1.602858E-18
6.535689E+03	4.881145E-18	1.610694E-18
6.545591E+03	4.906637E-18	1.618963E-18
6.555494E+03	4.933456E-18	1.627667E-18
6.565396E+03	4.961525E-18	1.636782E-18
6.575299E+03	4.990936E-18	1.646338E-18
6.585202E+03	5.021615E-18	1.656308E-18
6.595104E+03	5.053654E-18	1.666726E-18
6.605007E+03	5.086979E-18	1.677565E-18
6.614909E+03	5.121595E-18	1.688827E-18
6.624812E+03	5.157601E-18	1.700544E-18
6.634714E+03	5.195008E-18	1.712721E-18
6.644617E+03	5.233648E-18	1.725302E-18
6.654520E+03	5.273711E-18	1.738348E-18
6.664422E+03	5.315023E-18	1.751804E-18
6.674325E+03	5.357780E-18	1.765732E-18
6.684227E+03	5.401902E-18	1.780107E-18
6.694130E+03	5.447303E-18	1.794900E-18
6.704032E+03	5.494185E-18	1.810178E-18
6.713935E+03	5.542365E-18	1.825880E-18
6.723837E+03	5.591956E-18	1.842043E-18
6.733740E+03	5.642965E-18	1.858669E-18
6.743643E+03	5.695407E-18	1.875764E-18
6.753545E+03	5.749190E-18	1.893296E-18
6.763448E+03	5.804428E-18	1.911304E-18
6.773350E+03	5.861030E-18	1.929756E-18
6.783253E+03	5.919110E-18	1.948691E-18
6.793155E+03	5.978572E-18	1.968076E-18
6.803058E+03	6.039427E-18	1.987916E-18
6.812960E+03	6.101793E-18	2.008248E-18
6.822863E+03	6.165459E-18	2.029004E-18
6.832766E+03	6.230656E-18	2.050259E-18
6.842668E+03	6.297283E-18	2.071979E-18
6.852571E+03	6.365346E-18	2.094167E-18
6.862473E+03	6.434855E-18	2.116825E-18
6.872376E+03	6.505816E-18	2.139956E-18
6.882278E+03	6.578112E-18	2.163521E-18
6.892181E+03	6.651875E-18	2.187563E-18
6.902083E+03	6.727107E-18	2.212082E-18
6.911986E+03	6.803818E-18	2.237082E-18
6.921889E+03	6.881749E-18	2.262478E-18
6.931791E+03	6.961296E-18	2.288399E-18
6.941694E+03	7.042065E-18	2.314716E-18
6.951596E+03	7.124324E-18	2.341516E-18
6.961499E+03	7.207938E-18	2.368755E-18
6.971401E+03	7.292904E-18	2.396433E-18
6.981304E+03	7.379224E-18	2.424549E-18
6.991207E+03	7.466891E-18	2.453101E-18
7.001109E+03	7.555753E-18	2.482039E-18
7.011012E+03	7.645951E-18	2.511410E-18
7.020914E+03	7.737484E-18	2.541212E-18
7.030817E+03	7.830186E-18	2.571391E-18
7.040719E+03	7.924204E-18	2.601995E-18
7.050622E+03	8.019372E-18	2.632970E-18
7.060524E+03	8.115671E-18	2.664309E-18
7.070427E+03	8.213088E-18	2.696007E-18
7.080330E+03	8.311776E-18	2.728116E-18
7.090232E+03	8.411380E-18	2.760518E-18
7.100135E+03	8.511871E-18	2.793203E-18
7.110037E+03	8.613579E-18	2.826280E-18
7.119940E+03	8.716130E-18	2.859626E-18
7.129842E+03	8.819490E-18	2.893230E-18
7.139745E+03	8.923818E-18	2.927143E-18
7.149647E+03	9.028896E-18	2.961294E-18
7.159550E+03	9.134693E-18	2.995673E-18
7.169453E+03	9.241172E-18	3.030268E-18
7.179355E+03	9.348295E-18	3.065066E-18
7.189258E+03	9.456225E-18	3.100121E-18
7.199160E+03	9.564521E-18	3.135287E-18
7.209063E+03	9.673551E-18	3.170685E-18
7.218965E+03	9.783068E-18	3.206235E-18
7.228868E+03	9.893026E-18	3.241921E-18
7.238770E+03	1.000360E-17	3.277801E-18
7.248673E+03	1.011453E-17	3.313790E-18
7.258576E+03	1.022600E-17	3.349945E-18
7.268478E+03	1.033796E-17	3.386253E-18
7.278381E+03	1.045061E-17	3.422778E-18
7.288283E+03	1.056391E-17	3.459511E-18
7.298186E+03	1.067808E-17	3.496518E-18
7.308088E+03	1.079285E-17	3.533712E-18
7.317991E+03	1.090893E-17	3.571327E-18
7.327894E+03	1.102633E-17	3.609364E-18
7.337796E+03	1.114478E-17	3.647737E-18
7.347699E+03	1.126505E-17	3.686698E-18
7.357601E+03	1.138691E-17	3.726167E-18
7.367504E+03	1.151062E-17	3.766236E-18
7.377406E+03	1.163595E-17	3.806821E-18
7.387309E+03	1.176317E-17	3.848018E-18
7.397211E+03	1.189146E-17	3.889557E-18
7.407114E+03	1.202139E-17	3.931619E-18
7.417017E+03	1.215208E-17	3.973923E-18
7.426919E+03	1.228381E-17	4.016556E-18
7.436822E+03	1.241626E-17	4.059415E-18
7.446724E+03	1.254909E-17	4.102389E-18
7.456627E+03	1.268257E-17	4.145566E-18
7.466529E+03	1.281574E-17	4.188629E-18
7.476432E+03	1.294914E-17	4.231760E-18
7.486334E+03	1.308241E-17	4.274840E-18
7.496237E+03	1.321550E-17	4.317847E-18
7.506140E+03	1.334799E-17	4.360653E-18
7.516042E+03	1.348016E-17	4.403341E-18
7.525945E+03	1.361159E-17	4.445779E-18
7.535847E+03	1.374220E-17	4.487941E-18
7.545750E+03	1.387225E-17	4.529911E-18
7.555652E+03	1.400133E-17	4.571553E-18
7.565555E+03	1.412969E-17	4.612955E-18
7.575457E+03	1.425656E-17	4.653856E-18
7.585360E+03	1.438254E-17	4.694463E-18
7.595263E+03	1.450721E-17	4.734629E-18
7.605165E+03	1.463084E-17	4.774448E-18
7.615068E+03	1.475297E-17	4.813770E-18
7.624970E+03	1.487351E-17	4.852566E-18
7.634873E+03	1.499237E-17	4.890805E-18
7.644775E+03	1.511025E-17	4.928715E-18
7.654678E+03	1.522588E-17	4.965883E-18
7.664581E+03	1.534036E-17	5.002669E-18
7.674483E+03	1.545281E-17	5.038788E-18
7.684386E+03	1.556356E-17	5.074342E-18
