#wls	flux	fluxerr
1.584409E+03	4.848504E-17	1.775907E-17
1.624020E+03	5.065919E-17	1.854073E-17
1.663630E+03	5.270672E-17	1.927448E-17
1.703240E+03	5.458705E-17	1.994553E-17
1.742850E+03	5.627750E-17	2.054573E-17
1.782461E+03	5.771342E-17	2.105162E-17
1.822071E+03	5.882368E-17	2.143748E-17
1.861681E+03	5.953706E-17	2.167766E-17
1.901291E+03	5.975842E-17	2.173793E-17
1.940902E+03	5.942100E-17	2.159452E-17
1.980512E+03	5.849707E-17	2.123794E-17
2.020122E+03	5.707123E-17	2.069951E-17
2.059732E+03	5.536996E-17	2.006187E-17
2.099342E+03	5.378122E-17	1.946577E-17
2.138953E+03	5.272401E-17	1.906262E-17
2.178563E+03	5.243059E-17	1.893570E-17
2.218173E+03	5.282863E-17	1.905800E-17
2.257783E+03	5.360794E-17	1.931688E-17
2.297394E+03	5.439079E-17	1.957590E-17
2.337004E+03	5.489764E-17	1.973453E-17
2.376614E+03	5.496360E-17	1.973391E-17
2.416224E+03	5.452807E-17	1.955288E-17
2.455835E+03	5.360619E-17	1.919756E-17
2.495445E+03	5.223671E-17	1.868248E-17
2.535055E+03	5.048112E-17	1.803028E-17
2.574665E+03	4.840258E-17	1.726410E-17
2.614276E+03	4.606632E-17	1.640769E-17
2.653886E+03	4.353001E-17	1.548203E-17
2.693496E+03	4.084903E-17	1.450716E-17
2.733106E+03	3.807445E-17	1.350149E-17
2.772716E+03	3.525331E-17	1.248192E-17
2.812327E+03	3.242953E-17	1.146413E-17
2.851937E+03	2.964480E-17	1.046293E-17
2.891547E+03	2.693690E-17	9.491660E-18
2.931157E+03	2.433954E-17	8.562126E-18
2.970768E+03	2.188039E-17	7.683936E-18
2.980670E+03	2.129038E-17	7.473507E-18
2.990573E+03	2.071009E-17	7.266655E-18
3.000475E+03	2.014061E-17	7.063757E-18
3.010378E+03	1.958158E-17	6.864681E-18
3.020280E+03	1.903353E-17	6.669612E-18
3.030183E+03	1.849691E-17	6.478701E-18
3.040086E+03	1.797117E-17	6.291755E-18
3.049988E+03	1.745820E-17	6.109427E-18
3.059891E+03	1.695785E-17	5.931663E-18
3.069793E+03	1.647047E-17	5.758579E-18
3.079696E+03	1.599539E-17	5.589936E-18
3.089598E+03	1.553236E-17	5.425642E-18
3.099501E+03	1.508176E-17	5.265823E-18
3.109403E+03	1.464277E-17	5.110190E-18
3.119306E+03	1.421605E-17	4.958971E-18
3.129209E+03	1.380062E-17	4.811814E-18
3.139111E+03	1.339713E-17	4.668941E-18
3.149014E+03	1.300492E-17	4.530122E-18
3.158916E+03	1.262434E-17	4.395474E-18
3.168819E+03	1.225505E-17	4.264866E-18
3.178721E+03	1.189711E-17	4.138324E-18
3.188624E+03	1.155041E-17	4.015798E-18
3.198526E+03	1.121480E-17	3.897233E-18
3.208429E+03	1.088996E-17	3.782517E-18
3.218332E+03	1.057614E-17	3.671724E-18
3.228234E+03	1.027299E-17	3.564734E-18
3.238137E+03	9.980528E-18	3.461546E-18
3.248039E+03	9.698417E-18	3.362039E-18
3.257942E+03	9.426495E-18	3.266152E-18
3.267844E+03	9.164717E-18	3.173864E-18
3.277747E+03	8.912753E-18	3.085058E-18
3.287650E+03	8.670541E-18	2.999706E-18
3.297552E+03	8.437865E-18	2.917730E-18
3.307455E+03	8.214267E-18	2.838967E-18
3.317357E+03	7.999776E-18	2.763423E-18
3.327260E+03	7.794059E-18	2.690977E-18
3.337162E+03	7.596892E-18	2.621549E-18
3.347065E+03	7.408065E-18	2.555063E-18
3.356967E+03	7.227152E-18	2.491367E-18
3.366870E+03	7.054142E-18	2.430453E-18
3.376773E+03	6.888731E-18	2.372213E-18
3.386675E+03	6.730606E-18	2.316537E-18
3.396578E+03	6.579577E-18	2.263353E-18
3.406480E+03	6.435443E-18	2.212591E-18
3.416383E+03	6.297851E-18	2.164124E-18
3.426285E+03	6.166699E-18	2.117916E-18
3.436188E+03	6.041658E-18	2.073849E-18
3.446090E+03	5.922565E-18	2.031864E-18
3.455993E+03	5.809188E-18	1.991880E-18
3.465896E+03	5.701311E-18	1.953818E-18
3.475798E+03	5.598727E-18	1.917606E-18
3.485701E+03	5.501240E-18	1.883173E-18
3.495603E+03	5.408605E-18	1.850433E-18
3.505506E+03	5.320595E-18	1.819306E-18
3.515408E+03	5.237051E-18	1.789734E-18
3.525311E+03	5.157769E-18	1.761647E-18
3.535213E+03	5.082610E-18	1.734993E-18
3.545116E+03	5.011339E-18	1.709691E-18
3.555019E+03	4.943836E-18	1.685698E-18
3.564921E+03	4.879940E-18	1.662957E-18
3.574824E+03	4.819591E-18	1.641445E-18
3.584726E+03	4.762592E-18	1.621093E-18
3.594629E+03	4.708847E-18	1.601868E-18
3.604531E+03	4.658130E-18	1.583689E-18
3.614434E+03	4.610364E-18	1.566530E-18
3.624337E+03	4.565425E-18	1.550347E-18
3.634239E+03	4.523201E-18	1.535099E-18
3.644142E+03	4.483622E-18	1.520763E-18
3.654044E+03	4.446621E-18	1.507313E-18
3.663947E+03	4.412092E-18	1.494711E-18
3.673849E+03	4.380011E-18	1.482950E-18
3.683752E+03	4.350275E-18	1.471992E-18
3.693654E+03	4.322900E-18	1.461841E-18
3.703557E+03	4.297822E-18	1.452474E-18
3.713460E+03	4.274977E-18	1.443869E-18
3.723362E+03	4.254341E-18	1.436016E-18
3.733265E+03	4.235925E-18	1.428917E-18
3.743167E+03	4.219666E-18	1.422550E-18
3.753070E+03	4.205572E-18	1.416916E-18
3.762972E+03	4.193582E-18	1.411993E-18
3.772875E+03	4.183667E-18	1.407770E-18
3.782777E+03	4.175838E-18	1.404251E-18
3.792680E+03	4.170103E-18	1.401434E-18
3.802583E+03	4.166398E-18	1.399300E-18
3.812485E+03	4.164768E-18	1.397860E-18
3.822388E+03	4.165117E-18	1.397081E-18
3.832290E+03	4.167519E-18	1.396988E-18
3.842193E+03	4.171882E-18	1.397548E-18
3.852095E+03	4.178280E-18	1.398783E-18
3.861998E+03	4.186652E-18	1.400674E-18
3.871900E+03	4.197004E-18	1.403220E-18
3.881803E+03	4.209310E-18	1.406411E-18
3.891706E+03	4.223576E-18	1.410248E-18
3.901608E+03	4.239774E-18	1.414721E-18
3.911511E+03	4.257944E-18	1.419841E-18
3.921413E+03	4.278024E-18	1.425587E-18
3.931316E+03	4.300021E-18	1.431958E-18
3.941218E+03	4.323906E-18	1.438946E-18
3.951121E+03	4.349719E-18	1.446561E-18
3.961024E+03	4.377433E-18	1.454793E-18
3.970926E+03	4.407020E-18	1.463632E-18
3.980829E+03	4.438452E-18	1.473066E-18
3.990731E+03	4.471771E-18	1.483109E-18
4.000634E+03	4.506913E-18	1.493739E-18
4.010536E+03	4.543925E-18	1.504968E-18
4.020439E+03	4.582742E-18	1.516775E-18
4.030341E+03	4.623375E-18	1.529162E-18
4.040244E+03	4.665835E-18	1.542131E-18
4.050147E+03	4.710096E-18	1.555672E-18
4.060049E+03	4.756134E-18	1.569776E-18
4.069952E+03	4.803924E-18	1.584433E-18
4.079854E+03	4.853518E-18	1.599659E-18
4.089757E+03	4.904854E-18	1.615434E-18
4.099659E+03	4.957947E-18	1.631759E-18
4.109562E+03	5.012736E-18	1.648614E-18
4.119464E+03	5.069236E-18	1.666002E-18
4.129367E+03	5.127464E-18	1.683928E-18
4.139270E+03	5.187358E-18	1.702370E-18
4.149172E+03	5.248936E-18	1.721332E-18
4.159075E+03	5.312134E-18	1.740794E-18
4.168977E+03	5.376970E-18	1.760758E-18
4.178880E+03	5.443379E-18	1.781202E-18
4.188782E+03	5.511378E-18	1.802132E-18
4.198685E+03	5.580901E-18	1.823523E-18
4.208587E+03	5.651921E-18	1.845366E-18
4.218490E+03	5.724364E-18	1.867637E-18
4.228393E+03	5.798248E-18	1.890338E-18
4.238295E+03	5.873494E-18	1.913445E-18
4.248198E+03	5.950069E-18	1.936944E-18
4.258100E+03	6.027891E-18	1.960808E-18
4.268003E+03	6.106869E-18	1.985006E-18
4.277905E+03	6.186959E-18	2.009524E-18
4.287808E+03	6.268113E-18	2.034344E-18
4.297711E+03	6.350230E-18	2.059434E-18
4.307613E+03	6.433253E-18	2.084773E-18
4.317516E+03	6.517069E-18	2.110324E-18
4.327418E+03	6.601665E-18	2.136084E-18
4.337321E+03	6.686974E-18	2.162028E-18
4.347223E+03	6.773088E-18	2.188187E-18
4.357126E+03	6.859939E-18	2.214537E-18
4.367028E+03	6.947566E-18	2.241092E-18
4.376931E+03	7.035956E-18	2.267845E-18
4.386834E+03	7.125213E-18	2.294829E-18
4.396736E+03	7.215269E-18	2.322023E-18
4.406639E+03	7.306115E-18	2.349422E-18
4.416541E+03	7.397809E-18	2.377045E-18
4.426444E+03	7.490337E-18	2.404886E-18
4.436346E+03	7.583706E-18	2.432946E-18
4.446249E+03	7.677851E-18	2.461206E-18
4.456151E+03	7.772836E-18	2.489682E-18
4.466054E+03	7.868604E-18	2.518359E-18
4.475957E+03	7.965150E-18	2.547232E-18
4.485859E+03	8.062476E-18	2.576302E-18
4.495762E+03	8.160466E-18	2.605531E-18
4.505664E+03	8.259188E-18	2.634940E-18
4.515567E+03	8.358592E-18	2.664513E-18
4.525469E+03	8.458670E-18	2.694247E-18
4.535372E+03	8.559320E-18	2.724108E-18
4.545274E+03	8.660609E-18	2.754117E-18
4.555177E+03	8.762425E-18	2.784239E-18
4.565080E+03	8.864859E-18	2.814501E-18
4.574982E+03	8.967799E-18	2.844867E-18
4.584885E+03	9.071274E-18	2.875346E-18
4.594787E+03	9.175239E-18	2.905924E-18
4.604690E+03	9.279823E-18	2.936640E-18
4.614592E+03	9.384919E-18	2.967462E-18
4.624495E+03	9.490658E-18	2.998428E-18
4.634398E+03	9.597017E-18	3.029532E-18
4.644300E+03	9.703997E-18	3.060773E-18
4.654203E+03	9.811744E-18	3.092197E-18
4.664105E+03	9.920166E-18	3.123774E-18
4.674008E+03	1.002936E-17	3.155533E-18
4.683910E+03	1.013923E-17	3.187445E-18
4.693813E+03	1.024986E-17	3.219538E-18
4.703715E+03	1.036109E-17	3.251754E-18
4.713618E+03	1.047302E-17	3.284128E-18
4.723521E+03	1.058554E-17	3.316630E-18
4.733423E+03	1.069877E-17	3.349288E-18
4.743326E+03	1.081263E-17	3.382080E-18
4.753228E+03	1.092711E-17	3.415004E-18
4.763131E+03	1.104223E-17	3.448065E-18
4.773033E+03	1.115799E-17	3.481261E-18
4.782936E+03	1.127440E-17	3.514599E-18
4.792838E+03	1.139138E-17	3.548046E-18
4.802741E+03	1.150901E-17	3.581634E-18
4.812644E+03	1.162731E-17	3.615365E-18
4.822546E+03	1.174618E-17	3.649207E-18
4.832449E+03	1.186562E-17	3.683160E-18
4.842351E+03	1.198574E-17	3.717258E-18
4.852254E+03	1.210629E-17	3.751425E-18
4.862156E+03	1.222751E-17	3.785730E-18
4.872059E+03	1.234926E-17	3.820137E-18
4.881961E+03	1.247142E-17	3.854600E-18
4.891864E+03	1.259407E-17	3.889149E-18
4.901767E+03	1.271718E-17	3.923770E-18
4.911669E+03	1.284058E-17	3.958417E-18
4.921572E+03	1.296435E-17	3.993108E-18
4.931474E+03	1.308818E-17	4.027752E-18
4.941377E+03	1.321225E-17	4.062401E-18
4.951279E+03	1.333636E-17	4.096994E-18
4.961182E+03	1.346028E-17	4.131461E-18
4.971085E+03	1.358403E-17	4.165811E-18
4.980987E+03	1.370738E-17	4.199970E-18
4.990890E+03	1.383019E-17	4.233898E-18
5.000792E+03	1.395233E-17	4.267554E-18
5.010695E+03	1.407366E-17	4.300894E-18
5.020597E+03	1.419385E-17	4.333825E-18
5.030500E+03	1.431289E-17	4.366340E-18
5.040402E+03	1.443046E-17	4.398344E-18
5.050305E+03	1.454636E-17	4.429777E-18
5.060208E+03	1.466026E-17	4.460538E-18
5.070110E+03	1.477210E-17	4.490613E-18
5.080013E+03	1.488138E-17	4.519852E-18
5.089915E+03	1.498816E-17	4.548275E-18
5.099818E+03	1.509195E-17	4.575736E-18
5.109720E+03	1.519265E-17	4.602210E-18
5.119623E+03	1.528993E-17	4.627593E-18
5.129525E+03	1.538338E-17	4.651768E-18
5.139428E+03	1.547293E-17	4.674720E-18
5.149331E+03	1.555819E-17	4.696332E-18
5.159233E+03	1.563894E-17	4.716538E-18
5.169136E+03	1.571494E-17	4.735276E-18
5.179038E+03	1.578579E-17	4.752424E-18
5.188941E+03	1.585127E-17	4.767925E-18
5.198843E+03	1.591097E-17	4.781657E-18
5.208746E+03	1.596483E-17	4.793609E-18
5.218648E+03	1.601246E-17	4.803667E-18
5.228551E+03	1.605363E-17	4.811769E-18
5.238454E+03	1.608813E-17	4.817855E-18
5.248356E+03	1.611559E-17	4.821826E-18
5.258259E+03	1.613584E-17	4.823630E-18
5.268161E+03	1.614871E-17	4.823225E-18
5.278064E+03	1.615404E-17	4.820569E-18
5.287966E+03	1.615156E-17	4.815591E-18
5.297869E+03	1.614134E-17	4.808315E-18
5.307772E+03	1.612334E-17	4.798733E-18
5.317674E+03	1.609754E-17	4.786852E-18
5.327577E+03	1.606382E-17	4.772639E-18
5.337479E+03	1.602258E-17	4.756219E-18
5.347382E+03	1.597382E-17	4.737599E-18
5.357284E+03	1.591803E-17	4.716927E-18
5.367187E+03	1.585531E-17	4.694243E-18
5.377089E+03	1.578612E-17	4.669689E-18
5.386992E+03	1.571083E-17	4.643378E-18
5.396895E+03	1.563018E-17	4.615529E-18
5.406797E+03	1.554447E-17	4.586242E-18
5.416700E+03	1.545408E-17	4.555630E-18
5.426602E+03	1.535928E-17	4.523775E-18
5.436505E+03	1.526069E-17	4.490864E-18
5.446407E+03	1.515867E-17	4.457007E-18
5.456310E+03	1.505376E-17	4.422365E-18
5.466212E+03	1.494655E-17	4.387110E-18
5.476115E+03	1.483761E-17	4.351418E-18
5.486018E+03	1.472756E-17	4.315466E-18
5.495920E+03	1.461718E-17	4.279485E-18
5.505823E+03	1.450706E-17	4.243649E-18
5.515725E+03	1.439811E-17	4.208221E-18
5.525628E+03	1.429075E-17	4.173327E-18
5.535530E+03	1.418597E-17	4.139252E-18
5.545433E+03	1.408416E-17	4.106109E-18
5.555335E+03	1.398607E-17	4.074115E-18
5.565238E+03	1.389246E-17	4.043484E-18
5.575141E+03	1.380354E-17	4.014280E-18
5.585043E+03	1.372025E-17	3.986769E-18
5.594946E+03	1.364285E-17	3.961026E-18
5.604848E+03	1.357160E-17	3.937120E-18
5.614751E+03	1.350725E-17	3.915262E-18
5.624653E+03	1.344979E-17	3.895447E-18
5.634556E+03	1.339959E-17	3.877778E-18
5.644459E+03	1.335698E-17	3.862344E-18
5.654361E+03	1.332213E-17	3.849191E-18
5.664264E+03	1.329515E-17	3.838342E-18
5.674166E+03	1.327613E-17	3.829823E-18
5.684069E+03	1.326531E-17	3.823691E-18
5.693971E+03	1.326287E-17	3.820002E-18
5.703874E+03	1.326860E-17	3.818682E-18
5.713776E+03	1.328297E-17	3.819863E-18
5.723679E+03	1.330574E-17	3.823475E-18
5.733582E+03	1.333725E-17	3.829608E-18
5.743484E+03	1.337744E-17	3.838236E-18
5.753387E+03	1.342649E-17	3.849412E-18
5.763289E+03	1.348449E-17	3.863154E-18
5.773192E+03	1.355167E-17	3.879519E-18
5.783094E+03	1.362796E-17	3.898489E-18
5.792997E+03	1.371345E-17	3.920080E-18
5.802899E+03	1.380839E-17	3.944359E-18
5.812802E+03	1.391301E-17	3.971391E-18
5.822705E+03	1.402711E-17	4.001106E-18
5.832607E+03	1.415106E-17	4.033615E-18
5.842510E+03	1.428481E-17	4.068890E-18
5.852412E+03	1.442858E-17	4.106994E-18
5.862315E+03	1.458245E-17	4.147942E-18
5.872217E+03	1.474627E-17	4.191691E-18
5.882120E+03	1.492026E-17	4.238297E-18
5.892022E+03	1.510443E-17	4.287759E-18
5.901925E+03	1.529858E-17	4.340017E-18
5.911828E+03	1.550303E-17	4.395157E-18
5.921730E+03	1.571737E-17	4.453059E-18
5.931633E+03	1.594166E-17	4.513736E-18
5.941535E+03	1.617576E-17	4.577147E-18
5.951438E+03	1.641932E-17	4.643192E-18
5.961340E+03	1.667232E-17	4.711855E-18
5.971243E+03	1.693407E-17	4.782949E-18
5.981146E+03	1.720466E-17	4.856490E-18
5.991048E+03	1.748334E-17	4.932266E-18
6.000951E+03	1.776985E-17	5.010205E-18
6.010853E+03	1.806352E-17	5.090118E-18
6.020756E+03	1.836380E-17	5.171848E-18
6.030658E+03	1.866987E-17	5.255161E-18
6.040561E+03	1.898082E-17	5.339807E-18
6.050463E+03	1.929613E-17	5.425639E-18
6.060366E+03	1.961432E-17	5.512242E-18
6.070269E+03	1.993475E-17	5.599439E-18
6.080171E+03	2.025603E-17	5.686841E-18
6.090074E+03	2.057719E-17	5.774182E-18
6.099976E+03	2.089624E-17	5.860906E-18
6.109879E+03	2.121239E-17	5.946795E-18
6.119781E+03	2.152381E-17	6.031344E-18
6.129684E+03	2.182921E-17	6.114196E-18
6.139586E+03	2.212713E-17	6.194950E-18
6.149489E+03	2.241743E-17	6.273570E-18
6.159392E+03	2.270038E-17	6.350141E-18
6.169294E+03	2.297639E-17	6.424779E-18
6.179197E+03	2.324598E-17	6.497644E-18
6.189099E+03	2.350891E-17	6.568668E-18
6.199002E+03	2.376649E-17	6.638227E-18
6.208904E+03	2.401833E-17	6.706213E-18
6.218807E+03	2.426532E-17	6.772881E-18
6.228709E+03	2.450807E-17	6.838412E-18
6.238612E+03	2.474633E-17	6.902734E-18
6.248515E+03	2.498082E-17	6.966052E-18
6.258417E+03	2.521198E-17	7.028492E-18
6.268320E+03	2.544028E-17	7.090190E-18
6.278222E+03	2.566553E-17	7.151091E-18
6.288125E+03	2.588822E-17	7.211336E-18
6.298027E+03	2.610854E-17	7.270978E-18
6.307930E+03	2.632666E-17	7.330065E-18
6.317833E+03	2.654236E-17	7.388543E-18
6.327735E+03	2.675548E-17	7.446361E-18
6.337638E+03	2.696575E-17	7.503454E-18
6.347540E+03	2.717335E-17	7.559867E-18
6.357443E+03	2.737802E-17	7.615531E-18
6.367345E+03	2.757867E-17	7.670146E-18
6.377248E+03	2.777665E-17	7.724086E-18
6.387150E+03	2.797207E-17	7.777383E-18
6.397053E+03	2.816549E-17	7.830195E-18
6.406956E+03	2.835790E-17	7.882801E-18
6.416858E+03	2.854906E-17	7.935128E-18
6.426761E+03	2.873998E-17	7.987462E-18
6.436663E+03	2.893087E-17	8.039864E-18
6.446566E+03	2.912234E-17	8.092501E-18
6.456468E+03	2.931370E-17	8.145180E-18
6.466371E+03	2.950646E-17	8.198325E-18
6.476273E+03	2.969990E-17	8.251733E-18
6.486176E+03	2.989464E-17	8.305583E-18
6.496079E+03	3.009087E-17	8.359921E-18
6.505981E+03	3.028826E-17	8.414660E-18
6.515884E+03	3.048744E-17	8.469974E-18
6.525786E+03	3.068858E-17	8.525909E-18
6.535689E+03	3.089130E-17	8.582365E-18
6.545591E+03	3.109574E-17	8.639380E-18
6.555494E+03	3.130201E-17	8.696982E-18
6.565396E+03	3.151076E-17	8.755353E-18
6.575299E+03	3.172103E-17	8.814230E-18
6.585202E+03	3.193344E-17	8.873783E-18
6.595104E+03	3.214808E-17	8.934038E-18
6.605007E+03	3.236449E-17	8.994869E-18
6.614909E+03	3.258324E-17	9.056435E-18
6.624812E+03	3.280387E-17	9.118608E-18
6.634714E+03	3.302697E-17	9.181554E-18
6.644617E+03	3.325146E-17	9.244969E-18
6.654520E+03	3.347791E-17	9.309017E-18
6.664422E+03	3.370694E-17	9.373871E-18
6.674325E+03	3.393741E-17	9.439211E-18
6.684227E+03	3.416992E-17	9.505209E-18
6.694130E+03	3.440388E-17	9.571699E-18
6.704032E+03	3.463991E-17	9.638856E-18
6.713935E+03	3.487741E-17	9.706511E-18
6.723837E+03	3.511637E-17	9.774663E-18
6.733740E+03	3.535742E-17	9.843490E-18
6.743643E+03	3.559929E-17	9.912638E-18
6.753545E+03	3.584324E-17	9.982460E-18
6.763448E+03	3.608797E-17	1.005259E-17
6.773350E+03	3.633474E-17	1.012339E-17
6.783253E+03	3.658221E-17	1.019447E-17
6.793155E+03	3.683029E-17	1.026582E-17
6.803058E+03	3.707960E-17	1.033761E-17
6.812960E+03	3.733005E-17	1.040982E-17
6.822863E+03	3.758017E-17	1.048203E-17
6.832766E+03	3.783122E-17	1.055460E-17
6.842668E+03	3.808237E-17	1.062730E-17
6.852571E+03	3.833420E-17	1.070028E-17
6.862473E+03	3.858512E-17	1.077311E-17
6.872376E+03	3.883568E-17	1.084594E-17
6.882278E+03	3.908571E-17	1.091873E-17
6.892181E+03	3.933429E-17	1.099121E-17
6.902083E+03	3.958197E-17	1.106354E-17
6.911986E+03	3.982858E-17	1.113567E-17
6.921889E+03	4.007319E-17	1.120735E-17
6.931791E+03	4.031558E-17	1.127851E-17
6.941694E+03	4.055562E-17	1.134911E-17
6.951596E+03	4.079390E-17	1.141932E-17
6.961499E+03	4.102870E-17	1.148866E-17
6.971401E+03	4.126148E-17	1.155754E-17
6.981304E+03	4.149050E-17	1.162546E-17
6.991207E+03	4.171645E-17	1.169263E-17
7.001109E+03	4.193843E-17	1.175878E-17
7.011012E+03	4.215716E-17	1.182413E-17
7.020914E+03	4.237262E-17	1.188866E-17
7.030817E+03	4.258390E-17	1.195211E-17
7.040719E+03	4.279011E-17	1.201425E-17
7.050622E+03	4.299296E-17	1.207554E-17
7.060524E+03	4.319161E-17	1.213575E-17
7.070427E+03	4.338605E-17	1.219487E-17
7.080330E+03	4.357633E-17	1.225293E-17
7.090232E+03	4.376161E-17	1.230967E-17
7.100135E+03	4.394283E-17	1.236537E-17
7.110037E+03	4.411915E-17	1.241978E-17
7.119940E+03	4.429063E-17	1.247293E-17
7.129842E+03	4.445828E-17	1.252510E-17
7.139745E+03	4.462125E-17	1.257604E-17
7.149647E+03	4.478054E-17	1.262603E-17
7.159550E+03	4.493436E-17	1.267458E-17
7.169453E+03	4.508369E-17	1.272195E-17
7.179355E+03	4.522858E-17	1.276815E-17
7.189258E+03	4.536906E-17	1.281321E-17
7.199160E+03	4.550517E-17	1.285711E-17
7.209063E+03	4.563689E-17	1.289987E-17
7.218965E+03	4.576325E-17	1.294119E-17
7.228868E+03	4.588518E-17	1.298135E-17
7.238770E+03	4.600263E-17	1.302033E-17
7.248673E+03	4.611560E-17	1.305813E-17
7.258576E+03	4.622300E-17	1.309442E-17
7.268478E+03	4.632576E-17	1.312949E-17
7.278381E+03	4.642489E-17	1.316361E-17
7.288283E+03	4.651828E-17	1.319618E-17
7.298186E+03	4.660693E-17	1.322749E-17
7.308088E+03	4.669080E-17	1.325752E-17
7.317991E+03	4.677094E-17	1.328656E-17
7.327894E+03	4.684631E-17	1.331433E-17
7.337796E+03	4.691803E-17	1.334113E-17
7.347699E+03	4.698720E-17	1.336728E-17
7.357601E+03	4.705287E-17	1.339252E-17
7.367504E+03	4.711730E-17	1.341746E-17
7.377406E+03	4.717850E-17	1.344157E-17
7.387309E+03	4.723771E-17	1.346518E-17
7.397211E+03	4.729401E-17	1.348803E-17
7.407114E+03	4.734868E-17	1.351049E-17
7.417017E+03	4.739973E-17	1.353198E-17
7.426919E+03	4.744841E-17	1.355287E-17
7.436822E+03	4.749492E-17	1.357321E-17
7.446724E+03	4.753831E-17	1.359273E-17
7.456627E+03	4.758098E-17	1.361211E-17
7.466529E+03	4.762088E-17	1.363076E-17
7.476432E+03	4.765926E-17	1.364904E-17
7.486334E+03	4.769513E-17	1.366667E-17
7.496237E+03	4.772976E-17	1.368401E-17
7.506140E+03	4.776212E-17	1.370075E-17
7.516042E+03	4.779343E-17	1.371726E-17
7.525945E+03	4.782266E-17	1.373322E-17
7.535847E+03	4.784985E-17	1.374866E-17
7.545750E+03	4.787621E-17	1.376391E-17
7.555652E+03	4.790060E-17	1.377865E-17
7.565555E+03	4.792303E-17	1.379288E-17
7.575457E+03	4.794466E-17	1.380693E-17
7.585360E+03	4.796425E-17	1.382044E-17
7.595263E+03	4.798295E-17	1.383374E-17
7.605165E+03	4.799831E-17	1.384612E-17
7.615068E+03	4.801259E-17	1.385824E-17
7.624970E+03	4.802569E-17	1.387006E-17
7.634873E+03	4.803628E-17	1.388120E-17
7.644775E+03	4.804542E-17	1.389196E-17
7.654678E+03	4.805177E-17	1.390195E-17
7.664581E+03	4.805513E-17	1.391111E-17
7.674483E+03	4.805654E-17	1.391974E-17
7.684386E+03	4.805582E-17	1.392780E-17
