#wls	flux	fluxerr
1.584409E+03	6.601519E-17	9.521274E-18
1.624020E+03	6.874808E-17	9.915327E-18
1.663630E+03	7.126660E-17	1.027845E-17
1.703240E+03	7.351480E-17	1.060258E-17
1.742850E+03	7.546189E-17	1.088327E-17
1.782461E+03	7.702234E-17	1.110818E-17
1.822071E+03	7.810435E-17	1.126409E-17
1.861681E+03	7.861887E-17	1.133815E-17
1.901291E+03	7.844878E-17	1.131347E-17
1.940902E+03	7.751840E-17	1.117914E-17
1.980512E+03	7.580652E-17	1.093211E-17
2.020122E+03	7.343907E-17	1.059054E-17
2.059732E+03	7.072175E-17	1.019853E-17
2.099342E+03	6.815731E-17	9.828568E-18
2.138953E+03	6.627223E-17	9.556579E-18
2.178563E+03	6.534204E-17	9.422289E-18
2.218173E+03	6.525473E-17	9.409539E-18
2.257783E+03	6.560917E-17	9.460484E-18
2.297394E+03	6.593572E-17	9.507400E-18
2.337004E+03	6.590039E-17	9.502131E-18
2.376614E+03	6.531883E-17	9.418099E-18
2.416224E+03	6.413823E-17	9.247692E-18
2.455835E+03	6.239717E-17	8.996480E-18
2.495445E+03	6.016088E-17	8.673870E-18
2.535055E+03	5.751846E-17	8.292716E-18
2.574665E+03	5.455753E-17	7.865655E-18
2.614276E+03	5.136450E-17	7.405146E-18
2.653886E+03	4.801352E-17	6.921881E-18
2.693496E+03	4.457268E-17	6.425680E-18
2.733106E+03	4.110212E-17	5.925215E-18
2.772716E+03	3.765463E-17	5.428096E-18
2.812327E+03	3.427705E-17	4.941076E-18
2.851937E+03	3.101165E-17	4.470248E-18
2.891547E+03	2.789472E-17	4.020844E-18
2.931157E+03	2.495696E-17	3.597287E-18
2.970768E+03	2.222180E-17	3.202952E-18
2.980670E+03	2.157226E-17	3.109308E-18
2.990573E+03	2.093607E-17	3.017589E-18
3.000475E+03	2.031422E-17	2.927938E-18
3.010378E+03	1.970625E-17	2.840290E-18
3.020280E+03	1.911261E-17	2.754707E-18
3.030183E+03	1.853363E-17	2.671240E-18
3.040086E+03	1.796869E-17	2.589796E-18
3.049988E+03	1.741953E-17	2.510628E-18
3.059891E+03	1.688591E-17	2.433700E-18
3.069793E+03	1.636804E-17	2.359044E-18
3.079696E+03	1.586513E-17	2.286545E-18
3.089598E+03	1.537680E-17	2.216148E-18
3.099501E+03	1.490329E-17	2.147888E-18
3.109403E+03	1.444365E-17	2.081628E-18
3.119306E+03	1.399840E-17	2.017443E-18
3.129209E+03	1.356642E-17	1.955171E-18
3.139111E+03	1.314821E-17	1.894883E-18
3.149014E+03	1.274297E-17	1.836468E-18
3.158916E+03	1.235093E-17	1.779953E-18
3.168819E+03	1.197157E-17	1.725269E-18
3.178721E+03	1.160487E-17	1.672409E-18
3.188624E+03	1.125056E-17	1.621335E-18
3.198526E+03	1.090837E-17	1.572009E-18
3.208429E+03	1.057788E-17	1.524370E-18
3.218332E+03	1.025921E-17	1.478433E-18
3.228234E+03	9.951913E-18	1.434138E-18
3.238137E+03	9.655907E-18	1.391470E-18
3.248039E+03	9.370774E-18	1.350370E-18
3.257942E+03	9.096276E-18	1.310802E-18
3.267844E+03	8.832298E-18	1.272751E-18
3.277747E+03	8.578449E-18	1.236161E-18
3.287650E+03	8.334606E-18	1.201013E-18
3.297552E+03	8.100507E-18	1.167269E-18
3.307455E+03	7.875661E-18	1.134859E-18
3.317357E+03	7.660062E-18	1.103783E-18
3.327260E+03	7.453338E-18	1.073985E-18
3.337162E+03	7.255244E-18	1.045432E-18
3.347065E+03	7.065544E-18	1.018088E-18
3.356967E+03	6.883806E-18	9.918924E-19
3.366870E+03	6.709993E-18	9.668388E-19
3.376773E+03	6.543779E-18	9.428807E-19
3.386675E+03	6.384857E-18	9.199736E-19
3.396578E+03	6.233016E-18	8.980871E-19
3.406480E+03	6.088049E-18	8.771916E-19
3.416383E+03	5.949606E-18	8.572362E-19
3.426285E+03	5.817564E-18	8.382035E-19
3.436188E+03	5.691597E-18	8.200463E-19
3.446090E+03	5.571531E-18	8.027398E-19
3.455993E+03	5.457133E-18	7.862500E-19
3.465896E+03	5.348178E-18	7.705448E-19
3.475798E+03	5.244455E-18	7.555936E-19
3.485701E+03	5.145763E-18	7.413675E-19
3.495603E+03	5.051855E-18	7.278310E-19
3.505506E+03	4.962500E-18	7.149504E-19
3.515408E+03	4.877534E-18	7.027025E-19
3.525311E+03	4.796749E-18	6.910572E-19
3.535213E+03	4.720001E-18	6.799936E-19
3.545116E+03	4.647056E-18	6.694780E-19
3.555019E+03	4.577786E-18	6.594922E-19
3.564921E+03	4.512029E-18	6.500125E-19
3.574824E+03	4.449715E-18	6.410290E-19
3.584726E+03	4.390647E-18	6.325133E-19
3.594629E+03	4.334725E-18	6.244509E-19
3.604531E+03	4.281728E-18	6.168100E-19
3.614434E+03	4.231570E-18	6.095782E-19
3.624337E+03	4.184130E-18	6.027380E-19
3.634239E+03	4.139289E-18	5.962723E-19
3.644142E+03	4.096974E-18	5.901707E-19
3.654044E+03	4.057113E-18	5.844226E-19
3.663947E+03	4.019597E-18	5.790125E-19
3.673849E+03	3.984396E-18	5.739358E-19
3.683752E+03	3.951407E-18	5.691779E-19
3.693654E+03	3.920634E-18	5.647391E-19
3.703557E+03	3.892010E-18	5.606100E-19
3.713460E+03	3.865468E-18	5.567810E-19
3.723362E+03	3.840980E-18	5.532476E-19
3.733265E+03	3.818544E-18	5.500101E-19
3.743167E+03	3.798096E-18	5.470590E-19
3.753070E+03	3.779637E-18	5.443942E-19
3.762972E+03	3.763101E-18	5.420065E-19
3.772875E+03	3.748456E-18	5.398912E-19
3.782777E+03	3.735701E-18	5.380481E-19
3.792680E+03	3.724834E-18	5.364769E-19
3.802583E+03	3.715792E-18	5.351686E-19
3.812485E+03	3.708603E-18	5.341272E-19
3.822388E+03	3.703175E-18	5.333393E-19
3.832290E+03	3.699565E-18	5.328134E-19
3.842193E+03	3.697682E-18	5.325360E-19
3.852095E+03	3.697583E-18	5.325157E-19
3.861998E+03	3.699208E-18	5.327435E-19
3.871900E+03	3.702554E-18	5.332193E-19
3.881803E+03	3.707592E-18	5.339386E-19
3.891706E+03	3.714320E-18	5.349013E-19
3.901608E+03	3.722708E-18	5.361029E-19
3.911511E+03	3.732786E-18	5.375478E-19
3.921413E+03	3.744494E-18	5.392274E-19
3.931316E+03	3.757833E-18	5.411419E-19
3.941218E+03	3.772775E-18	5.432871E-19
3.951121E+03	3.789350E-18	5.456673E-19
3.961024E+03	3.807530E-18	5.482786E-19
3.970926E+03	3.827290E-18	5.511173E-19
3.980829E+03	3.848600E-18	5.541790E-19
3.990731E+03	3.871494E-18	5.574689E-19
4.000634E+03	3.895916E-18	5.609786E-19
4.010536E+03	3.921901E-18	5.647132E-19
4.020439E+03	3.949392E-18	5.686646E-19
4.030341E+03	3.978395E-18	5.728334E-19
4.040244E+03	4.008915E-18	5.772206E-19
4.050147E+03	4.040928E-18	5.818226E-19
4.060049E+03	4.074408E-18	5.866358E-19
4.069952E+03	4.109333E-18	5.916567E-19
4.079854E+03	4.145739E-18	5.968908E-19
4.089757E+03	4.183573E-18	6.023302E-19
4.099659E+03	4.222842E-18	6.079761E-19
4.109562E+03	4.263488E-18	6.138202E-19
4.119464E+03	4.305520E-18	6.198636E-19
4.129367E+03	4.348948E-18	6.261077E-19
4.139270E+03	4.393712E-18	6.325439E-19
4.149172E+03	4.439822E-18	6.391737E-19
4.159075E+03	4.487216E-18	6.459882E-19
4.168977E+03	4.535904E-18	6.529888E-19
4.178880E+03	4.585822E-18	6.601661E-19
4.188782E+03	4.636978E-18	6.675215E-19
4.198685E+03	4.689305E-18	6.750453E-19
4.208587E+03	4.742774E-18	6.827330E-19
4.218490E+03	4.797312E-18	6.905746E-19
4.228393E+03	4.852925E-18	6.985706E-19
4.238295E+03	4.909537E-18	7.067101E-19
4.248198E+03	4.967111E-18	7.149877E-19
4.258100E+03	5.025565E-18	7.233919E-19
4.268003E+03	5.084816E-18	7.319106E-19
4.277905E+03	5.144818E-18	7.405369E-19
4.287808E+03	5.205520E-18	7.492638E-19
4.297711E+03	5.266830E-18	7.580779E-19
4.307613E+03	5.328692E-18	7.669712E-19
4.317516E+03	5.391005E-18	7.759290E-19
4.327418E+03	5.453751E-18	7.849489E-19
4.337321E+03	5.516868E-18	7.940220E-19
4.347223E+03	5.580428E-18	8.031584E-19
4.357126E+03	5.644370E-18	8.123494E-19
4.367028E+03	5.708724E-18	8.215996E-19
4.376931E+03	5.773479E-18	8.309070E-19
4.386834E+03	5.838718E-18	8.402839E-19
4.396736E+03	5.904386E-18	8.497222E-19
4.406639E+03	5.970476E-18	8.592208E-19
4.416541E+03	6.037032E-18	8.687862E-19
4.426444E+03	6.104050E-18	8.784178E-19
4.436346E+03	6.171532E-18	8.881158E-19
4.446249E+03	6.239426E-18	8.978726E-19
4.456151E+03	6.307785E-18	9.076961E-19
4.466054E+03	6.376561E-18	9.175793E-19
4.475957E+03	6.445760E-18	9.275230E-19
4.485859E+03	6.515389E-18	9.375282E-19
4.495762E+03	6.585348E-18	9.475804E-19
4.505664E+03	6.655704E-18	9.576896E-19
4.515567E+03	6.726403E-18	9.678477E-19
4.525469E+03	6.797473E-18	9.780587E-19
4.535372E+03	6.868813E-18	9.883081E-19
4.545274E+03	6.940495E-18	9.986065E-19
4.555177E+03	7.012419E-18	1.008939E-18
4.565080E+03	7.084670E-18	1.019319E-18
4.574982E+03	7.157162E-18	1.029732E-18
4.584885E+03	7.229912E-18	1.040183E-18
4.594787E+03	7.302893E-18	1.050666E-18
4.604690E+03	7.376199E-18	1.061196E-18
4.614592E+03	7.449754E-18	1.071761E-18
4.624495E+03	7.523652E-18	1.082375E-18
4.634398E+03	7.597885E-18	1.093036E-18
4.644300E+03	7.672432E-18	1.103743E-18
4.654203E+03	7.747421E-18	1.114512E-18
4.664105E+03	7.822770E-18	1.125333E-18
4.674008E+03	7.898539E-18	1.136214E-18
4.683910E+03	7.974654E-18	1.147144E-18
4.693813E+03	8.051174E-18	1.158132E-18
4.703715E+03	8.127957E-18	1.169157E-18
4.713618E+03	8.205062E-18	1.180229E-18
4.723521E+03	8.282413E-18	1.191335E-18
4.733423E+03	8.360079E-18	1.202486E-18
4.743326E+03	8.437983E-18	1.213670E-18
4.753228E+03	8.516117E-18	1.224887E-18
4.763131E+03	8.594479E-18	1.236137E-18
4.773033E+03	8.673063E-18	1.247418E-18
4.782936E+03	8.751867E-18	1.258730E-18
4.792838E+03	8.830801E-18	1.270060E-18
4.802741E+03	8.909945E-18	1.281420E-18
4.812644E+03	8.989285E-18	1.292808E-18
4.822546E+03	9.068737E-18	1.304211E-18
4.832449E+03	9.148287E-18	1.315627E-18
4.842351E+03	9.228001E-18	1.327067E-18
4.852254E+03	9.307706E-18	1.338505E-18
4.862156E+03	9.387552E-18	1.349963E-18
4.872059E+03	9.467435E-18	1.361425E-18
4.881961E+03	9.547235E-18	1.372875E-18
4.891864E+03	9.627020E-18	1.384322E-18
4.901767E+03	9.706768E-18	1.395763E-18
4.911669E+03	9.786344E-18	1.407179E-18
4.921572E+03	9.865804E-18	1.418577E-18
4.931474E+03	9.944922E-18	1.429926E-18
4.941377E+03	1.002384E-17	1.441246E-18
4.951279E+03	1.010241E-17	1.452515E-18
4.961182E+03	1.018048E-17	1.463711E-18
4.971085E+03	1.025808E-17	1.474839E-18
4.980987E+03	1.033506E-17	1.485876E-18
4.990890E+03	1.041133E-17	1.496812E-18
5.000792E+03	1.048682E-17	1.507635E-18
5.010695E+03	1.056144E-17	1.518333E-18
5.020597E+03	1.063502E-17	1.528879E-18
5.030500E+03	1.070755E-17	1.539276E-18
5.040402E+03	1.077885E-17	1.549493E-18
5.050305E+03	1.084880E-17	1.559517E-18
5.060208E+03	1.091720E-17	1.569317E-18
5.070110E+03	1.098405E-17	1.578893E-18
5.080013E+03	1.104900E-17	1.588196E-18
5.089915E+03	1.111218E-17	1.597243E-18
5.099818E+03	1.117322E-17	1.605984E-18
5.109720E+03	1.123213E-17	1.614416E-18
5.119623E+03	1.128867E-17	1.622508E-18
5.129525E+03	1.134260E-17	1.630223E-18
5.139428E+03	1.139389E-17	1.637560E-18
5.149331E+03	1.144232E-17	1.644484E-18
5.159233E+03	1.148775E-17	1.650977E-18
5.169136E+03	1.153006E-17	1.657021E-18
5.179038E+03	1.156901E-17	1.662580E-18
5.188941E+03	1.160445E-17	1.667637E-18
5.198843E+03	1.163619E-17	1.672160E-18
5.208746E+03	1.166419E-17	1.676145E-18
5.218648E+03	1.168825E-17	1.679564E-18
5.228551E+03	1.170826E-17	1.682401E-18
5.238454E+03	1.172413E-17	1.684642E-18
5.248356E+03	1.173566E-17	1.686260E-18
5.258259E+03	1.174279E-17	1.687244E-18
5.268161E+03	1.174544E-17	1.687585E-18
5.278064E+03	1.174359E-17	1.687279E-18
5.287966E+03	1.173709E-17	1.686303E-18
5.297869E+03	1.172605E-17	1.684677E-18
5.307772E+03	1.171047E-17	1.682398E-18
5.317674E+03	1.169040E-17	1.679474E-18
5.327577E+03	1.166577E-17	1.675894E-18
5.337479E+03	1.163690E-17	1.671704E-18
5.347382E+03	1.160374E-17	1.666900E-18
5.357284E+03	1.156667E-17	1.661532E-18
5.367187E+03	1.152570E-17	1.655605E-18
5.377089E+03	1.148111E-17	1.649159E-18
5.386992E+03	1.143310E-17	1.642220E-18
5.396895E+03	1.138209E-17	1.634851E-18
5.406797E+03	1.132819E-17	1.627067E-18
5.416700E+03	1.127155E-17	1.618889E-18
5.426602E+03	1.121218E-17	1.610320E-18
5.436505E+03	1.115037E-17	1.601400E-18
5.446407E+03	1.108620E-17	1.592142E-18
5.456310E+03	1.101986E-17	1.582572E-18
5.466212E+03	1.095155E-17	1.572720E-18
5.476115E+03	1.088150E-17	1.562617E-18
5.486018E+03	1.080992E-17	1.552297E-18
5.495920E+03	1.073716E-17	1.541806E-18
5.505823E+03	1.066344E-17	1.531178E-18
5.515725E+03	1.058920E-17	1.520475E-18
5.525628E+03	1.051454E-17	1.509713E-18
5.535530E+03	1.044001E-17	1.498970E-18
5.545433E+03	1.036569E-17	1.488256E-18
5.555335E+03	1.029199E-17	1.477632E-18
5.565238E+03	1.021928E-17	1.467151E-18
5.575141E+03	1.014762E-17	1.456822E-18
5.585043E+03	1.007758E-17	1.446724E-18
5.594946E+03	1.000928E-17	1.436877E-18
5.604848E+03	9.942822E-18	1.427295E-18
5.614751E+03	9.878719E-18	1.418051E-18
5.624653E+03	9.816934E-18	1.409140E-18
5.634556E+03	9.757742E-18	1.400602E-18
5.644459E+03	9.701379E-18	1.392470E-18
5.654361E+03	9.647977E-18	1.384763E-18
5.664264E+03	9.597650E-18	1.377497E-18
5.674166E+03	9.550497E-18	1.370688E-18
5.684069E+03	9.506708E-18	1.364361E-18
5.693971E+03	9.466449E-18	1.358541E-18
5.703874E+03	9.429603E-18	1.353211E-18
5.713776E+03	9.396510E-18	1.348419E-18
5.723679E+03	9.367032E-18	1.344147E-18
5.733582E+03	9.341400E-18	1.340426E-18
5.743484E+03	9.319550E-18	1.337248E-18
5.753387E+03	9.301625E-18	1.334633E-18
5.763289E+03	9.287632E-18	1.332582E-18
5.773192E+03	9.277695E-18	1.331113E-18
5.783094E+03	9.271740E-18	1.330215E-18
5.792997E+03	9.269765E-18	1.329888E-18
5.802899E+03	9.271879E-18	1.330147E-18
5.812802E+03	9.278199E-18	1.331010E-18
5.822705E+03	9.288504E-18	1.332443E-18
5.832607E+03	9.303005E-18	1.334479E-18
5.842510E+03	9.321583E-18	1.337098E-18
5.852412E+03	9.344326E-18	1.340315E-18
5.862315E+03	9.371224E-18	1.344127E-18
5.872217E+03	9.402138E-18	1.348514E-18
5.882120E+03	9.437145E-18	1.353489E-18
5.892022E+03	9.476208E-18	1.359044E-18
5.901925E+03	9.519178E-18	1.365158E-18
5.911828E+03	9.566215E-18	1.371856E-18
5.921730E+03	9.617051E-18	1.379097E-18
5.931633E+03	9.671730E-18	1.386889E-18
5.941535E+03	9.730174E-18	1.395219E-18
5.951438E+03	9.792190E-18	1.404061E-18
5.961340E+03	9.857805E-18	1.413418E-18
5.971243E+03	9.926690E-18	1.423244E-18
5.981146E+03	9.998962E-18	1.433553E-18
5.991048E+03	1.007428E-17	1.444298E-18
6.000951E+03	1.015263E-17	1.455477E-18
6.010853E+03	1.023375E-17	1.467052E-18
6.020756E+03	1.031752E-17	1.479006E-18
6.030658E+03	1.040366E-17	1.491297E-18
6.040561E+03	1.049186E-17	1.503884E-18
6.050463E+03	1.058212E-17	1.516764E-18
6.060366E+03	1.067386E-17	1.529855E-18
6.070269E+03	1.076704E-17	1.543151E-18
6.080171E+03	1.086121E-17	1.556588E-18
6.090074E+03	1.095617E-17	1.570136E-18
6.099976E+03	1.105120E-17	1.583693E-18
6.109879E+03	1.114623E-17	1.597248E-18
6.119781E+03	1.124062E-17	1.610711E-18
6.129684E+03	1.133402E-17	1.624030E-18
6.139586E+03	1.142593E-17	1.637135E-18
6.149489E+03	1.151643E-17	1.650036E-18
6.159392E+03	1.160574E-17	1.662765E-18
6.169294E+03	1.169414E-17	1.675364E-18
6.179197E+03	1.178193E-17	1.687872E-18
6.189099E+03	1.186899E-17	1.700276E-18
6.199002E+03	1.195598E-17	1.712667E-18
6.208904E+03	1.204267E-17	1.725014E-18
6.218807E+03	1.212946E-17	1.737375E-18
6.228709E+03	1.221664E-17	1.749789E-18
6.238612E+03	1.230401E-17	1.762230E-18
6.248515E+03	1.239190E-17	1.774744E-18
6.258417E+03	1.248047E-17	1.787353E-18
6.268320E+03	1.256990E-17	1.800084E-18
6.278222E+03	1.266004E-17	1.812916E-18
6.288125E+03	1.275110E-17	1.825878E-18
6.298027E+03	1.284311E-17	1.838975E-18
6.307930E+03	1.293612E-17	1.852213E-18
6.317833E+03	1.302998E-17	1.865571E-18
6.327735E+03	1.312456E-17	1.879031E-18
6.337638E+03	1.321969E-17	1.892569E-18
6.347540E+03	1.331543E-17	1.906190E-18
6.357443E+03	1.341158E-17	1.919871E-18
6.367345E+03	1.350760E-17	1.933531E-18
6.377248E+03	1.360410E-17	1.947258E-18
6.387150E+03	1.370110E-17	1.961055E-18
6.397053E+03	1.379882E-17	1.974954E-18
6.406956E+03	1.389773E-17	1.989021E-18
6.416858E+03	1.399767E-17	2.003234E-18
6.426761E+03	1.409911E-17	2.017660E-18
6.436663E+03	1.420211E-17	2.032307E-18
6.446566E+03	1.430695E-17	2.047217E-18
6.456468E+03	1.441328E-17	2.062336E-18
6.466371E+03	1.452179E-17	2.077768E-18
6.476273E+03	1.463214E-17	2.093460E-18
6.486176E+03	1.474460E-17	2.109453E-18
6.496079E+03	1.485926E-17	2.125757E-18
6.505981E+03	1.497594E-17	2.142350E-18
6.515884E+03	1.509494E-17	2.159272E-18
6.525786E+03	1.521634E-17	2.176535E-18
6.535689E+03	1.533995E-17	2.194113E-18
6.545591E+03	1.546584E-17	2.212014E-18
6.555494E+03	1.559407E-17	2.230248E-18
6.565396E+03	1.572494E-17	2.248858E-18
6.575299E+03	1.585800E-17	2.267778E-18
6.585202E+03	1.599357E-17	2.287056E-18
6.595104E+03	1.613170E-17	2.306697E-18
6.605007E+03	1.627217E-17	2.326670E-18
6.614909E+03	1.641530E-17	2.347022E-18
6.624812E+03	1.656087E-17	2.367720E-18
6.634714E+03	1.670919E-17	2.388810E-18
6.644617E+03	1.685976E-17	2.410218E-18
6.654520E+03	1.701288E-17	2.431988E-18
6.664422E+03	1.716890E-17	2.454170E-18
6.674325E+03	1.732727E-17	2.476684E-18
6.684227E+03	1.748830E-17	2.499578E-18
6.694130E+03	1.765175E-17	2.522813E-18
6.704032E+03	1.781793E-17	2.546437E-18
6.713935E+03	1.798657E-17	2.570410E-18
6.723837E+03	1.815769E-17	2.594734E-18
6.733740E+03	1.833164E-17	2.619460E-18
6.743643E+03	1.850778E-17	2.644496E-18
6.753545E+03	1.868680E-17	2.669940E-18
6.763448E+03	1.886804E-17	2.695698E-18
6.773350E+03	1.905218E-17	2.721868E-18
6.783253E+03	1.923855E-17	2.748354E-18
6.793155E+03	1.942716E-17	2.775155E-18
6.803058E+03	1.961834E-17	2.802322E-18
6.812960E+03	1.981210E-17	2.829855E-18
6.822863E+03	2.000771E-17	2.857646E-18
6.832766E+03	2.020587E-17	2.885800E-18
6.842668E+03	2.040621E-17	2.914263E-18
6.852571E+03	2.060909E-17	2.943083E-18
6.862473E+03	2.081372E-17	2.972151E-18
6.872376E+03	2.102044E-17	3.001514E-18
6.882278E+03	2.122925E-17	3.031171E-18
6.892181E+03	2.143968E-17	3.061057E-18
6.902083E+03	2.165211E-17	3.091225E-18
6.911986E+03	2.186651E-17	3.121670E-18
6.921889E+03	2.208241E-17	3.152327E-18
6.931791E+03	2.229976E-17	3.183187E-18
6.941694E+03	2.251851E-17	3.214243E-18
6.951596E+03	2.273908E-17	3.245554E-18
6.961499E+03	2.296050E-17	3.276983E-18
6.971401E+03	2.318363E-17	3.308654E-18
6.981304E+03	2.340752E-17	3.340429E-18
6.991207E+03	2.363256E-17	3.372365E-18
7.001109E+03	2.385826E-17	3.404390E-18
7.011012E+03	2.408502E-17	3.436565E-18
7.020914E+03	2.431282E-17	3.468882E-18
7.030817E+03	2.454111E-17	3.501267E-18
7.040719E+03	2.476935E-17	3.533640E-18
7.050622E+03	2.499849E-17	3.566138E-18
7.060524E+03	2.522797E-17	3.598682E-18
7.070427E+03	2.545777E-17	3.631267E-18
7.080330E+03	2.568785E-17	3.663888E-18
7.090232E+03	2.591762E-17	3.696461E-18
7.100135E+03	2.614756E-17	3.729056E-18
7.110037E+03	2.637711E-17	3.761590E-18
7.119940E+03	2.660620E-17	3.794055E-18
7.129842E+03	2.683534E-17	3.826524E-18
7.139745E+03	2.706394E-17	3.858911E-18
7.149647E+03	2.729250E-17	3.891290E-18
7.159550E+03	2.751984E-17	3.923491E-18
7.169453E+03	2.774646E-17	3.955587E-18
7.179355E+03	2.797232E-17	3.987570E-18
7.189258E+03	2.819736E-17	4.019433E-18
7.199160E+03	2.842152E-17	4.051167E-18
7.209063E+03	2.864475E-17	4.082764E-18
7.218965E+03	2.886636E-17	4.114129E-18
7.228868E+03	2.908692E-17	4.145338E-18
7.238770E+03	2.930635E-17	4.176384E-18
7.248673E+03	2.952461E-17	4.207260E-18
7.258576E+03	2.974098E-17	4.237865E-18
7.268478E+03	2.995607E-17	4.268282E-18
7.278381E+03	3.017047E-17	4.298598E-18
7.288283E+03	3.038282E-17	4.328619E-18
7.298186E+03	3.059372E-17	4.358431E-18
7.308088E+03	3.080316E-17	4.388030E-18
7.317991E+03	3.101177E-17	4.417511E-18
7.327894E+03	3.121886E-17	4.446770E-18
7.337796E+03	3.142511E-17	4.475906E-18
7.347699E+03	3.163124E-17	4.505023E-18
7.357601E+03	3.183657E-17	4.534023E-18
7.367504E+03	3.204255E-17	4.563113E-18
7.377406E+03	3.224778E-17	4.592094E-18
7.387309E+03	3.245305E-17	4.621077E-18
7.397211E+03	3.265766E-17	4.649963E-18
7.407114E+03	3.286238E-17	4.678863E-18
7.417017E+03	3.306577E-17	4.707570E-18
7.426919E+03	3.326858E-17	4.736193E-18
7.436822E+03	3.347088E-17	4.764739E-18
7.446724E+03	3.367189E-17	4.793100E-18
7.456627E+03	3.387319E-17	4.821500E-18
7.466529E+03	3.407324E-17	4.849720E-18
7.476432E+03	3.427282E-17	4.877869E-18
7.486334E+03	3.447113E-17	4.905836E-18
7.496237E+03	3.466895E-17	4.933731E-18
7.506140E+03	3.486546E-17	4.961437E-18
7.516042E+03	3.506144E-17	4.989066E-18
7.525945E+03	3.525601E-17	5.016492E-18
7.535847E+03	3.544913E-17	5.043709E-18
7.545750E+03	3.564158E-17	5.070828E-18
7.555652E+03	3.583242E-17	5.097717E-18
7.565555E+03	3.602156E-17	5.124362E-18
7.575457E+03	3.620979E-17	5.150875E-18
7.585360E+03	3.639610E-17	5.177114E-18
7.595263E+03	3.658127E-17	5.203188E-18
7.605165E+03	3.676336E-17	5.228824E-18
7.615068E+03	3.694402E-17	5.254254E-18
7.624970E+03	3.712311E-17	5.279458E-18
7.634873E+03	3.729953E-17	5.304280E-18
7.644775E+03	3.747402E-17	5.328828E-18
7.654678E+03	3.764547E-17	5.352940E-18
7.664581E+03	3.781364E-17	5.376586E-18
7.674483E+03	3.797927E-17	5.399869E-18
7.684386E+03	3.814216E-17	5.422762E-18
