#wls	flux	fluxerr
1.584409E+03	1.382030E-16	3.812080E-17
1.624020E+03	1.434778E-16	3.957527E-17
1.663630E+03	1.482010E-16	4.087752E-17
1.703240E+03	1.522971E-16	4.200674E-17
1.742850E+03	1.556284E-16	4.292492E-17
1.782461E+03	1.580929E-16	4.360394E-17
1.822071E+03	1.594638E-16	4.398128E-17
1.861681E+03	1.595713E-16	4.401012E-17
1.901291E+03	1.582213E-16	4.363692E-17
1.940902E+03	1.552470E-16	4.281572E-17
1.980512E+03	1.506753E-16	4.155395E-17
2.020122E+03	1.447682E-16	3.992391E-17
2.059732E+03	1.381799E-16	3.810606E-17
2.099342E+03	1.319133E-16	3.637695E-17
2.138953E+03	1.269693E-16	3.501259E-17
2.178563E+03	1.238364E-16	3.414766E-17
2.218173E+03	1.222335E-16	3.370463E-17
2.257783E+03	1.213441E-16	3.345830E-17
2.297394E+03	1.202901E-16	3.316653E-17
2.337004E+03	1.184825E-16	3.266695E-17
2.376614E+03	1.156269E-16	3.187842E-17
2.416224E+03	1.116863E-16	3.079078E-17
2.455835E+03	1.067554E-16	2.943015E-17
2.495445E+03	1.010180E-16	2.784724E-17
2.535055E+03	9.467030E-17	2.609621E-17
2.574665E+03	8.791650E-17	2.423333E-17
2.614276E+03	8.093484E-17	2.230778E-17
2.653886E+03	7.388611E-17	2.036389E-17
2.693496E+03	6.691062E-17	1.844035E-17
2.733106E+03	6.012157E-17	1.656836E-17
2.772716E+03	5.361420E-17	1.477417E-17
2.812327E+03	4.746371E-17	1.307849E-17
2.851937E+03	4.172980E-17	1.149778E-17
2.891547E+03	3.645671E-17	1.004420E-17
2.931157E+03	3.167138E-17	8.725174E-18
2.970768E+03	2.738491E-17	7.543732E-18
2.980670E+03	2.639092E-17	7.269779E-18
2.990573E+03	2.542712E-17	7.004152E-18
3.000475E+03	2.449419E-17	6.747037E-18
3.010378E+03	2.359052E-17	6.497988E-18
3.020280E+03	2.271667E-17	6.257163E-18
3.030183E+03	2.187203E-17	6.024394E-18
3.040086E+03	2.105672E-17	5.799709E-18
3.049988E+03	2.027000E-17	5.582907E-18
3.059891E+03	1.951319E-17	5.374349E-18
3.069793E+03	1.878434E-17	5.173502E-18
3.079696E+03	1.808319E-17	4.980289E-18
3.089598E+03	1.740871E-17	4.794428E-18
3.099501E+03	1.675962E-17	4.615566E-18
3.109403E+03	1.613567E-17	4.443636E-18
3.119306E+03	1.553569E-17	4.278315E-18
3.129209E+03	1.495917E-17	4.119456E-18
3.139111E+03	1.440529E-17	3.966840E-18
3.149014E+03	1.387330E-17	3.820259E-18
3.158916E+03	1.336271E-17	3.679574E-18
3.168819E+03	1.287280E-17	3.544590E-18
3.178721E+03	1.240264E-17	3.415050E-18
3.188624E+03	1.195200E-17	3.290892E-18
3.198526E+03	1.152002E-17	3.171875E-18
3.208429E+03	1.110625E-17	3.057876E-18
3.218332E+03	1.071007E-17	2.948724E-18
3.228234E+03	1.033069E-17	2.844203E-18
3.238137E+03	9.967856E-18	2.744241E-18
3.248039E+03	9.620669E-18	2.648592E-18
3.257942E+03	9.288875E-18	2.557184E-18
3.267844E+03	8.971906E-18	2.469861E-18
3.277747E+03	8.668950E-18	2.386400E-18
3.287650E+03	8.379756E-18	2.306731E-18
3.297552E+03	8.103801E-18	2.230710E-18
3.307455E+03	7.840465E-18	2.158165E-18
3.317357E+03	7.589269E-18	2.088965E-18
3.327260E+03	7.349749E-18	2.022983E-18
3.337162E+03	7.121454E-18	1.960093E-18
3.347065E+03	6.903944E-18	1.900174E-18
3.356967E+03	6.696792E-18	1.843109E-18
3.366870E+03	6.499501E-18	1.788760E-18
3.376773E+03	6.311602E-18	1.736998E-18
3.386675E+03	6.132882E-18	1.687766E-18
3.396578E+03	5.962742E-18	1.640896E-18
3.406480E+03	5.800923E-18	1.596319E-18
3.416383E+03	5.647021E-18	1.553922E-18
3.426285E+03	5.500724E-18	1.513620E-18
3.436188E+03	5.361605E-18	1.475295E-18
3.446090E+03	5.229325E-18	1.438854E-18
3.455993E+03	5.103626E-18	1.404226E-18
3.465896E+03	4.984143E-18	1.371309E-18
3.475798E+03	4.870645E-18	1.340040E-18
3.485701E+03	4.762702E-18	1.310302E-18
3.495603E+03	4.660118E-18	1.282039E-18
3.505506E+03	4.562562E-18	1.255161E-18
3.515408E+03	4.469773E-18	1.229595E-18
3.525311E+03	4.381505E-18	1.205274E-18
3.535213E+03	4.297442E-18	1.182112E-18
3.545116E+03	4.217462E-18	1.160073E-18
3.555019E+03	4.141321E-18	1.139092E-18
3.564921E+03	4.068792E-18	1.119105E-18
3.574824E+03	3.999781E-18	1.100086E-18
3.584726E+03	3.934041E-18	1.081969E-18
3.594629E+03	3.871418E-18	1.064709E-18
3.604531E+03	3.811765E-18	1.048267E-18
3.614434E+03	3.754942E-18	1.032604E-18
3.624337E+03	3.700818E-18	1.017684E-18
3.634239E+03	3.649264E-18	1.003471E-18
3.644142E+03	3.600191E-18	9.899419E-19
3.654044E+03	3.553514E-18	9.770716E-19
3.663947E+03	3.509116E-18	9.648287E-19
3.673849E+03	3.467009E-18	9.532162E-19
3.683752E+03	3.427047E-18	9.421941E-19
3.693654E+03	3.389212E-18	9.317571E-19
3.703557E+03	3.353422E-18	9.218829E-19
3.713460E+03	3.319629E-18	9.125580E-19
3.723362E+03	3.287837E-18	9.037835E-19
3.733265E+03	3.257912E-18	8.955227E-19
3.743167E+03	3.229861E-18	8.877771E-19
3.753070E+03	3.203658E-18	8.805399E-19
3.762972E+03	3.179200E-18	8.737827E-19
3.772875E+03	3.156492E-18	8.675064E-19
3.782777E+03	3.135509E-18	8.617045E-19
3.792680E+03	3.116177E-18	8.563568E-19
3.802583E+03	3.098448E-18	8.514493E-19
3.812485E+03	3.082350E-18	8.469902E-19
3.822388E+03	3.067785E-18	8.429525E-19
3.832290E+03	3.054757E-18	8.393369E-19
3.842193E+03	3.043219E-18	8.361308E-19
3.852095E+03	3.033150E-18	8.333286E-19
3.861998E+03	3.024531E-18	8.309242E-19
3.871900E+03	3.017292E-18	8.288991E-19
3.881803E+03	3.011416E-18	8.272482E-19
3.891706E+03	3.006908E-18	8.259729E-19
3.901608E+03	3.003728E-18	8.250619E-19
3.911511E+03	3.001832E-18	8.245036E-19
3.921413E+03	3.001205E-18	8.242938E-19
3.931316E+03	3.001811E-18	8.244218E-19
3.941218E+03	3.003632E-18	8.248835E-19
3.951121E+03	3.006655E-18	8.256749E-19
3.961024E+03	3.010868E-18	8.267927E-19
3.970926E+03	3.016211E-18	8.282201E-19
3.980829E+03	3.022672E-18	8.299542E-19
3.990731E+03	3.030240E-18	8.319917E-19
4.000634E+03	3.038906E-18	8.343299E-19
4.010536E+03	3.048636E-18	8.369601E-19
4.020439E+03	3.059400E-18	8.398731E-19
4.030341E+03	3.071187E-18	8.430666E-19
4.040244E+03	3.083970E-18	8.465325E-19
4.050147E+03	3.097738E-18	8.502682E-19
4.060049E+03	3.112464E-18	8.542661E-19
4.069952E+03	3.128143E-18	8.585248E-19
4.079854E+03	3.144745E-18	8.630359E-19
4.089757E+03	3.162242E-18	8.677918E-19
4.099659E+03	3.180630E-18	8.727913E-19
4.109562E+03	3.199882E-18	8.780271E-19
4.119464E+03	3.219995E-18	8.834980E-19
4.129367E+03	3.240918E-18	8.891901E-19
4.139270E+03	3.262649E-18	8.951029E-19
4.149172E+03	3.285135E-18	9.012216E-19
4.159075E+03	3.308401E-18	9.075535E-19
4.168977E+03	3.332394E-18	9.140837E-19
4.178880E+03	3.357117E-18	9.208125E-19
4.188782E+03	3.382487E-18	9.277179E-19
4.198685E+03	3.408533E-18	9.348075E-19
4.208587E+03	3.435174E-18	9.420589E-19
4.218490E+03	3.462436E-18	9.494792E-19
4.228393E+03	3.490238E-18	9.570465E-19
4.238295E+03	3.518526E-18	9.647455E-19
4.248198E+03	3.547325E-18	9.725831E-19
4.258100E+03	3.576523E-18	9.805287E-19
4.268003E+03	3.606144E-18	9.885891E-19
4.277905E+03	3.636076E-18	9.967330E-19
4.287808E+03	3.666342E-18	1.004967E-18
4.297711E+03	3.696882E-18	1.013275E-18
4.307613E+03	3.727633E-18	1.021638E-18
4.317516E+03	3.758593E-18	1.030058E-18
4.327418E+03	3.789725E-18	1.038523E-18
4.337321E+03	3.821057E-18	1.047041E-18
4.347223E+03	3.852526E-18	1.055595E-18
4.357126E+03	3.884190E-18	1.064201E-18
4.367028E+03	3.916049E-18	1.072859E-18
4.376931E+03	3.948104E-18	1.081568E-18
4.386834E+03	3.980355E-18	1.090330E-18
4.396736E+03	4.012840E-18	1.099154E-18
4.406639E+03	4.045528E-18	1.108031E-18
4.416541E+03	4.078459E-18	1.116973E-18
4.426444E+03	4.111638E-18	1.125982E-18
4.436346E+03	4.145073E-18	1.135058E-18
4.446249E+03	4.178739E-18	1.144196E-18
4.456151E+03	4.212645E-18	1.153398E-18
4.466054E+03	4.246765E-18	1.162656E-18
4.475957E+03	4.281144E-18	1.171983E-18
4.485859E+03	4.315724E-18	1.181364E-18
4.495762E+03	4.350515E-18	1.190800E-18
4.505664E+03	4.385532E-18	1.200295E-18
4.515567E+03	4.420712E-18	1.209834E-18
4.525469E+03	4.456110E-18	1.219429E-18
4.535372E+03	4.491664E-18	1.229065E-18
4.545274E+03	4.527392E-18	1.238747E-18
4.555177E+03	4.563233E-18	1.248457E-18
4.565080E+03	4.599245E-18	1.258212E-18
4.574982E+03	4.635409E-18	1.268006E-18
4.584885E+03	4.671667E-18	1.277824E-18
4.594787E+03	4.708042E-18	1.287671E-18
4.604690E+03	4.744558E-18	1.297554E-18
4.614592E+03	4.781201E-18	1.307470E-18
4.624495E+03	4.817916E-18	1.317403E-18
4.634398E+03	4.854816E-18	1.327384E-18
4.644300E+03	4.891939E-18	1.337423E-18
4.654203E+03	4.929233E-18	1.347507E-18
4.664105E+03	4.966735E-18	1.357645E-18
4.674008E+03	5.004487E-18	1.367849E-18
4.683910E+03	5.042397E-18	1.378093E-18
4.693813E+03	5.080506E-18	1.388389E-18
4.703715E+03	5.118768E-18	1.398724E-18
4.713618E+03	5.157229E-18	1.409111E-18
4.723521E+03	5.195888E-18	1.419549E-18
4.733423E+03	5.234701E-18	1.430027E-18
4.743326E+03	5.273717E-18	1.440557E-18
4.753228E+03	5.312889E-18	1.451126E-18
4.763131E+03	5.352272E-18	1.461751E-18
4.773033E+03	5.391819E-18	1.472417E-18
4.782936E+03	5.431535E-18	1.483126E-18
4.792838E+03	5.471425E-18	1.493880E-18
4.802741E+03	5.511542E-18	1.504693E-18
4.812644E+03	5.551844E-18	1.515553E-18
4.822546E+03	5.592333E-18	1.526461E-18
4.832449E+03	5.632961E-18	1.537404E-18
4.842351E+03	5.673839E-18	1.548412E-18
4.852254E+03	5.714919E-18	1.559472E-18
4.862156E+03	5.756203E-18	1.570584E-18
4.872059E+03	5.797641E-18	1.581735E-18
4.881961E+03	5.839290E-18	1.592939E-18
4.891864E+03	5.881094E-18	1.604183E-18
4.901767E+03	5.923054E-18	1.615466E-18
4.911669E+03	5.965226E-18	1.626803E-18
4.921572E+03	6.007553E-18	1.638179E-18
4.931474E+03	6.050032E-18	1.649593E-18
4.941377E+03	6.092602E-18	1.661028E-18
4.951279E+03	6.135316E-18	1.672498E-18
4.961182E+03	6.178167E-18	1.684002E-18
4.971085E+03	6.221091E-18	1.695523E-18
4.980987E+03	6.264081E-18	1.707057E-18
4.990890E+03	6.307125E-18	1.718602E-18
5.000792E+03	6.350153E-18	1.730139E-18
5.010695E+03	6.393213E-18	1.741681E-18
5.020597E+03	6.436296E-18	1.753225E-18
5.030500E+03	6.479261E-18	1.764734E-18
5.040402E+03	6.522159E-18	1.776219E-18
5.050305E+03	6.564971E-18	1.787678E-18
5.060208E+03	6.607617E-18	1.799087E-18
5.070110E+03	6.650079E-18	1.810441E-18
5.080013E+03	6.692338E-18	1.821737E-18
5.089915E+03	6.734370E-18	1.832966E-18
5.099818E+03	6.776089E-18	1.844107E-18
5.109720E+03	6.817534E-18	1.855168E-18
5.119623E+03	6.858547E-18	1.866108E-18
5.129525E+03	6.899165E-18	1.876936E-18
5.139428E+03	6.939288E-18	1.887625E-18
5.149331E+03	6.978881E-18	1.898166E-18
5.159233E+03	7.017910E-18	1.908549E-18
5.169136E+03	7.056334E-18	1.918763E-18
5.179038E+03	7.093974E-18	1.928760E-18
5.188941E+03	7.130921E-18	1.938564E-18
5.198843E+03	7.167064E-18	1.948146E-18
5.208746E+03	7.202351E-18	1.957491E-18
5.218648E+03	7.236663E-18	1.966566E-18
5.228551E+03	7.269948E-18	1.975359E-18
5.238454E+03	7.302155E-18	1.983855E-18
5.248356E+03	7.333232E-18	1.992039E-18
5.258259E+03	7.363126E-18	1.999898E-18
5.268161E+03	7.391716E-18	2.007400E-18
5.278064E+03	7.419098E-18	2.014569E-18
5.287966E+03	7.445078E-18	2.021354E-18
5.297869E+03	7.469612E-18	2.027742E-18
5.307772E+03	7.492807E-18	2.033763E-18
5.317674E+03	7.514475E-18	2.039367E-18
5.327577E+03	7.534733E-18	2.044584E-18
5.337479E+03	7.553475E-18	2.049387E-18
5.347382E+03	7.570753E-18	2.053789E-18
5.357284E+03	7.586469E-18	2.057764E-18
5.367187E+03	7.600759E-18	2.061349E-18
5.377089E+03	7.613536E-18	2.064521E-18
5.386992E+03	7.624870E-18	2.067299E-18
5.396895E+03	7.634605E-18	2.069640E-18
5.406797E+03	7.642822E-18	2.071567E-18
5.416700E+03	7.649451E-18	2.073061E-18
5.426602E+03	7.654427E-18	2.074105E-18
5.436505E+03	7.657843E-18	2.074723E-18
5.446407E+03	7.659565E-18	2.074881E-18
5.456310E+03	7.659539E-18	2.074562E-18
5.466212E+03	7.657792E-18	2.073776E-18
5.476115E+03	7.654202E-18	2.072488E-18
5.486018E+03	7.648879E-18	2.070730E-18
5.495920E+03	7.641627E-18	2.068448E-18
5.505823E+03	7.632642E-18	2.065695E-18
5.515725E+03	7.621888E-18	2.062462E-18
5.525628E+03	7.609331E-18	2.058741E-18
5.535530E+03	7.595016E-18	2.054543E-18
5.545433E+03	7.578991E-18	2.049881E-18
5.555335E+03	7.561225E-18	2.044747E-18
5.565238E+03	7.541924E-18	2.039198E-18
5.575141E+03	7.520979E-18	2.033205E-18
5.585043E+03	7.498597E-18	2.026822E-18
5.594946E+03	7.474675E-18	2.020023E-18
5.604848E+03	7.449416E-18	2.012863E-18
5.614751E+03	7.422869E-18	2.005356E-18
5.624653E+03	7.395013E-18	1.997494E-18
5.634556E+03	7.365971E-18	1.989313E-18
5.644459E+03	7.335798E-18	1.980827E-18
5.654361E+03	7.304620E-18	1.972070E-18
5.664264E+03	7.272489E-18	1.963057E-18
5.674166E+03	7.239383E-18	1.953782E-18
5.684069E+03	7.205506E-18	1.944299E-18
5.693971E+03	7.170912E-18	1.934624E-18
5.703874E+03	7.135579E-18	1.924751E-18
5.713776E+03	7.099639E-18	1.914716E-18
5.723679E+03	7.063224E-18	1.904553E-18
5.733582E+03	7.026389E-18	1.894279E-18
5.743484E+03	6.989119E-18	1.883889E-18
5.753387E+03	6.951548E-18	1.873420E-18
5.763289E+03	6.913810E-18	1.862907E-18
5.773192E+03	6.875963E-18	1.852366E-18
5.783094E+03	6.837997E-18	1.841795E-18
5.792997E+03	6.800046E-18	1.831230E-18
5.802899E+03	6.762173E-18	1.820688E-18
5.812802E+03	6.724512E-18	1.810204E-18
5.822705E+03	6.687124E-18	1.799796E-18
5.832607E+03	6.649997E-18	1.789459E-18
5.842510E+03	6.613265E-18	1.779231E-18
5.852412E+03	6.576914E-18	1.769107E-18
5.862315E+03	6.541219E-18	1.759161E-18
5.872217E+03	6.506017E-18	1.749349E-18
5.882120E+03	6.471436E-18	1.739706E-18
5.892022E+03	6.437600E-18	1.730265E-18
5.901925E+03	6.404486E-18	1.721020E-18
5.911828E+03	6.372139E-18	1.711982E-18
5.921730E+03	6.340680E-18	1.703184E-18
5.931633E+03	6.310076E-18	1.694617E-18
5.941535E+03	6.280439E-18	1.686311E-18
5.951438E+03	6.251661E-18	1.678237E-18
5.961340E+03	6.223921E-18	1.670443E-18
5.971243E+03	6.197106E-18	1.662898E-18
5.981146E+03	6.171389E-18	1.655648E-18
5.991048E+03	6.146577E-18	1.648643E-18
6.000951E+03	6.122842E-18	1.641926E-18
6.010853E+03	6.100132E-18	1.635486E-18
6.020756E+03	6.078463E-18	1.629325E-18
6.030658E+03	6.057708E-18	1.623409E-18
6.040561E+03	6.038027E-18	1.617782E-18
6.050463E+03	6.019212E-18	1.612387E-18
6.060366E+03	6.001419E-18	1.607266E-18
6.070269E+03	5.984435E-18	1.602361E-18
6.080171E+03	5.968265E-18	1.597675E-18
6.090074E+03	5.952836E-18	1.593187E-18
6.099976E+03	5.938149E-18	1.588897E-18
6.109879E+03	5.923978E-18	1.584745E-18
6.119781E+03	5.910319E-18	1.580730E-18
6.129684E+03	5.897086E-18	1.576828E-18
6.139586E+03	5.884268E-18	1.573037E-18
6.149489E+03	5.871850E-18	1.569352E-18
6.159392E+03	5.859965E-18	1.565810E-18
6.169294E+03	5.848825E-18	1.562466E-18
6.179197E+03	5.838486E-18	1.559335E-18
6.189099E+03	5.829089E-18	1.556455E-18
6.199002E+03	5.820769E-18	1.553862E-18
6.208904E+03	5.813590E-18	1.551573E-18
6.218807E+03	5.807696E-18	1.549625E-18
6.228709E+03	5.803153E-18	1.548036E-18
6.238612E+03	5.800028E-18	1.546825E-18
6.248515E+03	5.798472E-18	1.546030E-18
6.258417E+03	5.798481E-18	1.545650E-18
6.268320E+03	5.800210E-18	1.545727E-18
6.278222E+03	5.803577E-18	1.546238E-18
6.288125E+03	5.808661E-18	1.547204E-18
6.298027E+03	5.815465E-18	1.548625E-18
6.307930E+03	5.824070E-18	1.550523E-18
6.317833E+03	5.834400E-18	1.552877E-18
6.327735E+03	5.846457E-18	1.555686E-18
6.337638E+03	5.860162E-18	1.558931E-18
6.347540E+03	5.875346E-18	1.562565E-18
6.357443E+03	5.891922E-18	1.566565E-18
6.367345E+03	5.909889E-18	1.570930E-18
6.377248E+03	5.929244E-18	1.575660E-18
6.387150E+03	5.949984E-18	1.580753E-18
6.397053E+03	5.972199E-18	1.586233E-18
6.406956E+03	5.995978E-18	1.592123E-18
6.416858E+03	6.021329E-18	1.598424E-18
6.426761E+03	6.048164E-18	1.605114E-18
6.436663E+03	6.076672E-18	1.612241E-18
6.446566E+03	6.106862E-18	1.619809E-18
6.456468E+03	6.138652E-18	1.627794E-18
6.466371E+03	6.172144E-18	1.636224E-18
6.476273E+03	6.207353E-18	1.645102E-18
6.486176E+03	6.244193E-18	1.654405E-18
6.496079E+03	6.282674E-18	1.664134E-18
6.505981E+03	6.323009E-18	1.674347E-18
6.515884E+03	6.364913E-18	1.684967E-18
6.525786E+03	6.408599E-18	1.696050E-18
6.535689E+03	6.454087E-18	1.707601E-18
6.545591E+03	6.501183E-18	1.719569E-18
6.555494E+03	6.550111E-18	1.732011E-18
6.565396E+03	6.600676E-18	1.744876E-18
6.575299E+03	6.653109E-18	1.758225E-18
6.585202E+03	6.707209E-18	1.772005E-18
6.595104E+03	6.763102E-18	1.786247E-18
6.605007E+03	6.820809E-18	1.800957E-18
6.614909E+03	6.880232E-18	1.816108E-18
6.624812E+03	6.941386E-18	1.831705E-18
6.634714E+03	7.004408E-18	1.847783E-18
6.644617E+03	7.069197E-18	1.864314E-18
6.654520E+03	7.135773E-18	1.881303E-18
6.664422E+03	7.204152E-18	1.898755E-18
6.674325E+03	7.274353E-18	1.916674E-18
6.684227E+03	7.346397E-18	1.935064E-18
6.694130E+03	7.420302E-18	1.953930E-18
6.704032E+03	7.495957E-18	1.973243E-18
6.713935E+03	7.573513E-18	1.993041E-18
6.723837E+03	7.652991E-18	2.013330E-18
6.733740E+03	7.734275E-18	2.034078E-18
6.743643E+03	7.817522E-18	2.055326E-18
6.753545E+03	7.902616E-18	2.077043E-18
6.763448E+03	7.989570E-18	2.099232E-18
6.773350E+03	8.078405E-18	2.121898E-18
6.783253E+03	8.169138E-18	2.145046E-18
6.793155E+03	8.261942E-18	2.168718E-18
6.803058E+03	8.356531E-18	2.192842E-18
6.812960E+03	8.453077E-18	2.217459E-18
6.822863E+03	8.551599E-18	2.242576E-18
6.832766E+03	8.651954E-18	2.268154E-18
6.842668E+03	8.754318E-18	2.294239E-18
6.852571E+03	8.858713E-18	2.320835E-18
6.862473E+03	8.964989E-18	2.347903E-18
6.872376E+03	9.073156E-18	2.375445E-18
6.882278E+03	9.183403E-18	2.403511E-18
6.892181E+03	9.295571E-18	2.432056E-18
6.902083E+03	9.409674E-18	2.461085E-18
6.911986E+03	9.525720E-18	2.490600E-18
6.921889E+03	9.643720E-18	2.520602E-18
6.931791E+03	9.763497E-18	2.551045E-18
6.941694E+03	9.885436E-18	2.582028E-18
6.951596E+03	1.000916E-17	2.613454E-18
6.961499E+03	1.013488E-17	2.645373E-18
6.971401E+03	1.026239E-17	2.677736E-18
6.981304E+03	1.039169E-17	2.710540E-18
6.991207E+03	1.052299E-17	2.743839E-18
7.001109E+03	1.065609E-17	2.777579E-18
7.011012E+03	1.079075E-17	2.811702E-18
7.020914E+03	1.092742E-17	2.846317E-18
7.030817E+03	1.106586E-17	2.881368E-18
7.040719E+03	1.120585E-17	2.916792E-18
7.050622E+03	1.134759E-17	2.952644E-18
7.060524E+03	1.149084E-17	2.988861E-18
7.070427E+03	1.163582E-17	3.025498E-18
7.080330E+03	1.178228E-17	3.062489E-18
7.090232E+03	1.193044E-17	3.099891E-18
7.100135E+03	1.207978E-17	3.137569E-18
7.110037E+03	1.223052E-17	3.175580E-18
7.119940E+03	1.238288E-17	3.213982E-18
7.129842E+03	1.253633E-17	3.252635E-18
7.139745E+03	1.269082E-17	3.291524E-18
7.149647E+03	1.284658E-17	3.330712E-18
7.159550E+03	1.300355E-17	3.370180E-18
7.169453E+03	1.316145E-17	3.409857E-18
7.179355E+03	1.332048E-17	3.449795E-18
7.189258E+03	1.348032E-17	3.489908E-18
7.199160E+03	1.364091E-17	3.530183E-18
7.209063E+03	1.380250E-17	3.570682E-18
7.218965E+03	1.396473E-17	3.611312E-18
7.228868E+03	1.412785E-17	3.652140E-18
7.238770E+03	1.429149E-17	3.693067E-18
7.248673E+03	1.445557E-17	3.734076E-18
7.258576E+03	1.462070E-17	3.775318E-18
7.268478E+03	1.478616E-17	3.816613E-18
7.278381E+03	1.495256E-17	3.858115E-18
7.288283E+03	1.511950E-17	3.899722E-18
7.298186E+03	1.528730E-17	3.941517E-18
7.308088E+03	1.545623E-17	3.983568E-18
7.317991E+03	1.562596E-17	4.025787E-18
7.327894E+03	1.579713E-17	4.068344E-18
7.337796E+03	1.596977E-17	4.111241E-18
7.347699E+03	1.614422E-17	4.154569E-18
7.357601E+03	1.632049E-17	4.198331E-18
7.367504E+03	1.649864E-17	4.242537E-18
7.377406E+03	1.667906E-17	4.287290E-18
7.387309E+03	1.686099E-17	4.332393E-18
7.397211E+03	1.704446E-17	4.377855E-18
7.407114E+03	1.722907E-17	4.423572E-18
7.417017E+03	1.741524E-17	4.469650E-18
7.426919E+03	1.760256E-17	4.515984E-18
7.436822E+03	1.779060E-17	4.562465E-18
7.446724E+03	1.797937E-17	4.609093E-18
7.456627E+03	1.816883E-17	4.655862E-18
7.466529E+03	1.835855E-17	4.702656E-18
7.476432E+03	1.854892E-17	4.749578E-18
7.486334E+03	1.873903E-17	4.796395E-18
7.496237E+03	1.892974E-17	4.843326E-18
7.506140E+03	1.912054E-17	4.890244E-18
7.516042E+03	1.931141E-17	4.937139E-18
7.525945E+03	1.950183E-17	4.983880E-18
7.535847E+03	1.969217E-17	5.030563E-18
7.545750E+03	1.988239E-17	5.077178E-18
7.555652E+03	2.007241E-17	5.123702E-18
7.565555E+03	2.026163E-17	5.169984E-18
7.575457E+03	2.045048E-17	5.216134E-18
7.585360E+03	2.063831E-17	5.261987E-18
7.595263E+03	2.082606E-17	5.307784E-18
7.605165E+03	2.101201E-17	5.353084E-18
7.615068E+03	2.119762E-17	5.398263E-18
7.624970E+03	2.138223E-17	5.443150E-18
7.634873E+03	2.156513E-17	5.487565E-18
7.644775E+03	2.174670E-17	5.531608E-18
7.654678E+03	2.192676E-17	5.575231E-18
7.664581E+03	2.210515E-17	5.618398E-18
7.674483E+03	2.228170E-17	5.661062E-18
7.684386E+03	2.245678E-17	5.703319E-18
