#wls	flux	fluxerr
1.584409E+03	9.659458E-17	5.233846E-17
1.624020E+03	1.002784E-16	5.432830E-17
1.663630E+03	1.035856E-16	5.611362E-17
1.703240E+03	1.064622E-16	5.766469E-17
1.742850E+03	1.088164E-16	5.893245E-17
1.782461E+03	1.105754E-16	5.987687E-17
1.822071E+03	1.115848E-16	6.041519E-17
1.861681E+03	1.117235E-16	6.048121E-17
1.901291E+03	1.108588E-16	6.000404E-17
1.940902E+03	1.088694E-16	5.891757E-17
1.980512E+03	1.057755E-16	5.723381E-17
2.020122E+03	1.017546E-16	5.504824E-17
2.059732E+03	9.726657E-17	5.261080E-17
2.099342E+03	9.301229E-17	5.029979E-17
2.138953E+03	8.970200E-17	4.850010E-17
2.178563E+03	8.768372E-17	4.739867E-17
2.218173E+03	8.676976E-17	4.689454E-17
2.257783E+03	8.638566E-17	4.667602E-17
2.297394E+03	8.591355E-17	4.641004E-17
2.337004E+03	8.492887E-17	4.586639E-17
2.376614E+03	8.321795E-17	4.493091E-17
2.416224E+03	8.074199E-17	4.358195E-17
2.455835E+03	7.756070E-17	4.185312E-17
2.495445E+03	7.379172E-17	3.980722E-17
2.535055E+03	6.956820E-17	3.751743E-17
2.574665E+03	6.502450E-17	3.505547E-17
2.614276E+03	6.028316E-17	3.248862E-17
2.653886E+03	5.545068E-17	2.987348E-17
2.693496E+03	5.062558E-17	2.726420E-17
2.733106E+03	4.588405E-17	2.470101E-17
2.772716E+03	4.129559E-17	2.222218E-17
2.812327E+03	3.691325E-17	1.985549E-17
2.851937E+03	3.278446E-17	1.762713E-17
2.891547E+03	2.894406E-17	1.555509E-17
2.931157E+03	2.541864E-17	1.365415E-17
2.965050E+03	1.823455E-16	9.790965E-17
2.967228E+03	1.826380E-16	9.806405E-17
2.967823E+03	1.828901E-16	9.819867E-17
2.968021E+03	1.831205E-16	9.832214E-17
2.968417E+03	1.833271E-16	9.843257E-17
2.968615E+03	1.835287E-16	9.854053E-17
2.969407E+03	1.837396E-16	9.865282E-17
2.971586E+03	1.839858E-16	9.878227E-17
2.971982E+03	1.841636E-16	9.887724E-17
2.972180E+03	1.843305E-16	9.896661E-17
2.972378E+03	1.844917E-16	9.905289E-17
2.972576E+03	1.846297E-16	9.912675E-17
2.976538E+03	1.848458E-16	9.923777E-17
2.978716E+03	1.850164E-16	9.932661E-17
2.979113E+03	1.851421E-16	9.939359E-17
2.979509E+03	1.852563E-16	9.945439E-17
2.981093E+03	1.854003E-16	9.952966E-17
2.982479E+03	1.855103E-16	9.958694E-17
2.983668E+03	1.856152E-16	9.964177E-17
2.984856E+03	1.857028E-16	9.968725E-17
2.985252E+03	1.857532E-16	9.971383E-17
2.986044E+03	1.858135E-16	9.974515E-17
2.987234E+03	1.858720E-16	9.977502E-17
2.988818E+03	1.859228E-16	9.980026E-17
2.991393E+03	1.859921E-16	9.983416E-17
2.991591E+03	1.859912E-16	9.983339E-17
2.994958E+03	1.860621E-16	9.986710E-17
2.998127E+03	1.861219E-16	9.989507E-17
2.998325E+03	1.860977E-16	9.988183E-17
2.998722E+03	1.860608E-16	9.986155E-17
2.998920E+03	1.860135E-16	9.983586E-17
3.001098E+03	1.860022E-16	9.982700E-17
3.001890E+03	1.859458E-16	9.979570E-17
3.004070E+03	1.859168E-16	9.977729E-17
3.005257E+03	1.858697E-16	9.975045E-17
3.006446E+03	1.857993E-16	9.971109E-17
3.008228E+03	1.857313E-16	9.967227E-17
3.008625E+03	1.856129E-16	9.960819E-17
3.008823E+03	1.854897E-16	9.954183E-17
3.009417E+03	1.853643E-16	9.947374E-17
3.009615E+03	1.852353E-16	9.940428E-17
3.011002E+03	1.851168E-16	9.933889E-17
3.011794E+03	1.849668E-16	9.925737E-17
3.011992E+03	1.847912E-16	9.916287E-17
3.012190E+03	1.846157E-16	9.906840E-17
3.013576E+03	1.844678E-16	9.898724E-17
3.013775E+03	1.842864E-16	9.888962E-17
3.014964E+03	1.840930E-16	9.878429E-17
3.015162E+03	1.838824E-16	9.867103E-17
3.015360E+03	1.836543E-16	9.854840E-17
3.015954E+03	1.834238E-16	9.842392E-17
3.016745E+03	1.831919E-16	9.829844E-17
3.017142E+03	1.829509E-16	9.816863E-17
3.017339E+03	1.826820E-16	9.802407E-17
3.017538E+03	1.824306E-16	9.788893E-17
3.018132E+03	1.821649E-16	9.774558E-17
3.018924E+03	1.818746E-16	9.758877E-17
3.019123E+03	1.815766E-16	9.742861E-17
3.019915E+03	1.812745E-16	9.726549E-17
3.020113E+03	1.809531E-16	9.709278E-17
3.020707E+03	1.806522E-16	9.693056E-17
3.022094E+03	1.803573E-16	9.677057E-17
3.022490E+03	1.800286E-16	9.659367E-17
3.023282E+03	1.796970E-16	9.641474E-17
3.024272E+03	1.793580E-16	9.623157E-17
3.024471E+03	1.789840E-16	9.603065E-17
3.025858E+03	1.786302E-16	9.583908E-17
3.026056E+03	1.782386E-16	9.562868E-17
3.026650E+03	1.778440E-16	9.541621E-17
3.026848E+03	1.774290E-16	9.519330E-17
3.027442E+03	1.770109E-16	9.496825E-17
3.027838E+03	1.765769E-16	9.473487E-17
3.029421E+03	1.761566E-16	9.450740E-17
3.033780E+03	1.757941E-16	9.430738E-17
3.033978E+03	1.753318E-16	9.405910E-17
3.034176E+03	1.748519E-16	9.380143E-17
3.034770E+03	1.743802E-16	9.354759E-17
3.035563E+03	1.739007E-16	9.328937E-17
3.035761E+03	1.733975E-16	9.301918E-17
3.036751E+03	1.729104E-16	9.275662E-17
3.036949E+03	1.723896E-16	9.247702E-17
3.037346E+03	1.718611E-16	9.219303E-17
3.038336E+03	1.713332E-16	9.190858E-17
3.039326E+03	1.707994E-16	9.162101E-17
3.040514E+03	1.702638E-16	9.133224E-17
3.041109E+03	1.697103E-16	9.103456E-17
3.041307E+03	1.691367E-16	9.072667E-17
3.041506E+03	1.685516E-16	9.041254E-17
3.041901E+03	1.679704E-16	9.010031E-17
3.042099E+03	1.673794E-16	8.978303E-17
3.042495E+03	1.667806E-16	8.946139E-17
3.043089E+03	1.661918E-16	8.914481E-17
3.043683E+03	1.655795E-16	8.881567E-17
3.044277E+03	1.649498E-16	8.847716E-17
3.044673E+03	1.643276E-16	8.814294E-17
3.045070E+03	1.636819E-16	8.779615E-17
3.045268E+03	1.630264E-16	8.744432E-17
3.045862E+03	1.623789E-16	8.709628E-17
3.046061E+03	1.617058E-16	8.673501E-17
3.046259E+03	1.610151E-16	8.636433E-17
3.047051E+03	1.603481E-16	8.600562E-17
3.047843E+03	1.596694E-16	8.564064E-17
3.048239E+03	1.589650E-16	8.526239E-17
3.048833E+03	1.582588E-16	8.488292E-17
3.049626E+03	1.575506E-16	8.450215E-17
3.050418E+03	1.568366E-16	8.411828E-17
3.052994E+03	1.561411E-16	8.374226E-17
3.053983E+03	1.554249E-16	8.335705E-17
3.054577E+03	1.546774E-16	8.295546E-17
3.054775E+03	1.539217E-16	8.254994E-17
3.054973E+03	1.531426E-16	8.213184E-17
3.056161E+03	1.523834E-16	8.172334E-17
3.056359E+03	1.515924E-16	8.129891E-17
3.056955E+03	1.508093E-16	8.087828E-17
3.057945E+03	1.500224E-16	8.045518E-17
3.058341E+03	1.492176E-16	8.002314E-17
3.058737E+03	1.484011E-16	7.958479E-17
3.058935E+03	1.475806E-16	7.914457E-17
3.059133E+03	1.467541E-16	7.870113E-17
3.059331E+03	1.459218E-16	7.825457E-17
3.060123E+03	1.450952E-16	7.781041E-17
3.061510E+03	1.442684E-16	7.736555E-17
3.061708E+03	1.434124E-16	7.690628E-17
3.061906E+03	1.425564E-16	7.644702E-17
3.062105E+03	1.416886E-16	7.598145E-17
3.062303E+03	1.408149E-16	7.551274E-17
3.062501E+03	1.399353E-16	7.504085E-17
3.062699E+03	1.390440E-16	7.456264E-17
3.063095E+03	1.381505E-16	7.408309E-17
3.063293E+03	1.372473E-16	7.359860E-17
3.063689E+03	1.363420E-16	7.311271E-17
3.063887E+03	1.354212E-16	7.261871E-17
3.065075E+03	1.345186E-16	7.213350E-17
3.065274E+03	1.335859E-16	7.163318E-17
3.065867E+03	1.326544E-16	7.113311E-17
3.066065E+03	1.317099E-16	7.062641E-17
3.066263E+03	1.307594E-16	7.011656E-17
3.066461E+03	1.298031E-16	6.960354E-17
3.066857E+03	1.288443E-16	6.908904E-17
3.067055E+03	1.278937E-16	6.857912E-17
3.067650E+03	1.269265E-16	6.805995E-17
3.067848E+03	1.259523E-16	6.753738E-17
3.068839E+03	1.249977E-16	6.702456E-17
3.069631E+03	1.240277E-16	6.650369E-17
3.069829E+03	1.230297E-16	6.596842E-17
3.070423E+03	1.220443E-16	6.543949E-17
3.070621E+03	1.210521E-16	6.490726E-17
3.071215E+03	1.200547E-16	6.437194E-17
3.071413E+03	1.190389E-16	6.382709E-17
3.071611E+03	1.180171E-16	6.327906E-17
3.072007E+03	1.169985E-16	6.273257E-17
3.072404E+03	1.159974E-16	6.219546E-17
3.072800E+03	1.149669E-16	6.164255E-17
3.072999E+03	1.139331E-16	6.108811E-17
3.073593E+03	1.129056E-16	6.053668E-17
3.073791E+03	1.118776E-16	5.998530E-17
3.074187E+03	1.108349E-16	5.942593E-17
3.074583E+03	1.097746E-16	5.885711E-17
3.074781E+03	1.087170E-16	5.828988E-17
3.075177E+03	1.076682E-16	5.772724E-17
3.075375E+03	1.065929E-16	5.715056E-17
3.075573E+03	1.055116E-16	5.657064E-17
3.075771E+03	1.044245E-16	5.598762E-17
3.076366E+03	1.033548E-16	5.541362E-17
3.076762E+03	1.022645E-16	5.482875E-17
3.076959E+03	1.011829E-16	5.424871E-17
3.077157E+03	1.001071E-16	5.367177E-17
3.077356E+03	9.900780E-17	5.308225E-17
3.077553E+03	9.790844E-17	5.249270E-17
3.077949E+03	9.682348E-17	5.191071E-17
3.078346E+03	9.570911E-17	5.131297E-17
3.078544E+03	9.460952E-17	5.072330E-17
3.078742E+03	9.349817E-17	5.012733E-17
3.078940E+03	9.238675E-17	4.953132E-17
3.079138E+03	9.125767E-17	4.892585E-17
3.079930E+03	9.013612E-17	4.832401E-17
3.080129E+03	8.900682E-17	4.771844E-17
3.080327E+03	8.787164E-17	4.710971E-17
3.080723E+03	8.673289E-17	4.649894E-17
3.080921E+03	8.560337E-17	4.589326E-17
3.081119E+03	8.446790E-17	4.528439E-17
3.081317E+03	8.333243E-17	4.467553E-17
3.081713E+03	8.218738E-17	4.406140E-17
3.081911E+03	8.104586E-17	4.344930E-17
3.082109E+03	7.990428E-17	4.283717E-17
3.082505E+03	7.876481E-17	4.222605E-17
3.082703E+03	7.761717E-17	4.161068E-17
3.083297E+03	7.647383E-17	4.099740E-17
3.083495E+03	7.532600E-17	4.038193E-17
3.083694E+03	7.417812E-17	3.976644E-17
3.083892E+03	7.303016E-17	3.915092E-17
3.084091E+03	7.188215E-17	3.853537E-17
3.084289E+03	7.072820E-17	3.791664E-17
3.085081E+03	6.958602E-17	3.730391E-17
3.085279E+03	6.843184E-17	3.668507E-17
3.085477E+03	6.728932E-17	3.607249E-17
3.085873E+03	6.613690E-17	3.545450E-17
3.086071E+03	6.496488E-17	3.482610E-17
3.086269E+03	6.380452E-17	3.420397E-17
3.087259E+03	6.263957E-17	3.357899E-17
3.087655E+03	6.146898E-17	3.295129E-17
3.088250E+03	6.031761E-17	3.233381E-17
3.088448E+03	5.916264E-17	3.171459E-17
3.089241E+03	5.799735E-17	3.108957E-17
3.089834E+03	5.682957E-17	3.046332E-17
3.090032E+03	5.566131E-17	2.983700E-17
3.090626E+03	5.449966E-17	2.921405E-17
3.091022E+03	5.333803E-17	2.859121E-17
3.091220E+03	5.219414E-17	2.797796E-17
3.091616E+03	5.102933E-17	2.735343E-17
3.092013E+03	4.986734E-17	2.673041E-17
3.092211E+03	4.871614E-17	2.611325E-17
3.092607E+03	4.757917E-17	2.550366E-17
3.092805E+03	4.642898E-17	2.488706E-17
3.093003E+03	4.528165E-17	2.427199E-17
3.093201E+03	4.412839E-17	2.365375E-17
3.093399E+03	4.298857E-17	2.304272E-17
3.093597E+03	4.184222E-17	2.242819E-17
3.093993E+03	4.069230E-17	2.181168E-17
3.094588E+03	3.953809E-17	2.119283E-17
3.094984E+03	3.840726E-17	2.058658E-17
3.096371E+03	3.728289E-17	1.998351E-17
3.096569E+03	3.613706E-17	1.936929E-17
3.097361E+03	3.500362E-17	1.876156E-17
3.097955E+03	3.386070E-17	1.814881E-17
3.099143E+03	3.273928E-17	1.754744E-17
3.099739E+03	3.160881E-17	1.694139E-17
3.100135E+03	3.046725E-17	1.632946E-17
3.100333E+03	2.932764E-17	1.571862E-17
3.101125E+03	2.821162E-17	1.512030E-17
3.101520E+03	2.707963E-17	1.451351E-17
3.101718E+03	2.596205E-17	1.391450E-17
3.101916E+03	2.486381E-17	1.332586E-17
3.102114E+03	2.374787E-17	1.272773E-17
3.102312E+03	2.264657E-17	1.213744E-17
3.102510E+03	2.153343E-17	1.154082E-17
3.102708E+03	2.044788E-17	1.095899E-17
3.102906E+03	1.935580E-17	1.037367E-17
3.103104E+03	1.827131E-17	9.792409E-18
3.103897E+03	1.719002E-17	9.212795E-18
3.104293E+03	1.610048E-17	8.628815E-18
3.104887E+03	1.501360E-17	8.046250E-18
3.105284E+03	1.393084E-17	7.465920E-18
3.105482E+03	1.286758E-17	6.896071E-18
3.105680E+03	1.180014E-17	6.323985E-18
3.106472E+03	1.073947E-17	5.755479E-18
3.107066E+03	9.682975E-18	5.189240E-18
3.107265E+03	8.634035E-18	4.627085E-18
3.107463E+03	7.607403E-18	4.076889E-18
3.107661E+03	6.570708E-18	3.521302E-18
3.108057E+03	5.543296E-18	2.970686E-18
3.108453E+03	4.518532E-18	2.421495E-18
3.108849E+03	3.512611E-18	1.882408E-18
3.109245E+03	2.499210E-18	1.339319E-18
3.110235E+03	1.497485E-18	8.024855E-19
3.110434E+03	5.136378E-19	2.752520E-19
3.110830E+03	-4.758594E-19	-2.550056E-19
3.111227E+03	-1.458586E-18	-7.816286E-19
3.111425E+03	-2.421130E-18	-1.297435E-18
3.112019E+03	-3.392474E-18	-1.817942E-18
3.113008E+03	-4.356996E-18	-2.334772E-18
3.113206E+03	-5.301670E-18	-2.840983E-18
3.113405E+03	-6.254534E-18	-3.351580E-18
3.114394E+03	-7.189084E-18	-3.852316E-18
3.114592E+03	-8.108805E-18	-4.345142E-18
3.114790E+03	-9.017389E-18	-4.831997E-18
3.115583E+03	-9.932788E-18	-5.322455E-18
3.115782E+03	-1.083802E-17	-5.807505E-18
3.115980E+03	-1.170793E-17	-6.273622E-18
3.116178E+03	-1.256963E-17	-6.735341E-18
3.116376E+03	-1.342431E-17	-7.193295E-18
3.116574E+03	-1.427020E-17	-7.646535E-18
3.116772E+03	-1.510847E-17	-8.095688E-18
3.116970E+03	-1.593736E-17	-8.539814E-18
3.117366E+03	-1.675794E-17	-8.979459E-18
3.117564E+03	-1.757044E-17	-9.414794E-18
3.118158E+03	-1.837404E-17	-9.845303E-18
3.118356E+03	-1.916722E-17	-1.027028E-17
3.119347E+03	-1.995335E-17	-1.069135E-17
3.120139E+03	-2.072967E-17	-1.110719E-17
3.120535E+03	-2.149429E-17	-1.151681E-17
3.120733E+03	-2.224889E-17	-1.192110E-17
3.120932E+03	-2.299412E-17	-1.232036E-17
3.121130E+03	-2.372875E-17	-1.271394E-17
3.121328E+03	-2.445223E-17	-1.310154E-17
3.121526E+03	-2.516453E-17	-1.348316E-17
3.121724E+03	-2.586625E-17	-1.385910E-17
3.122120E+03	-2.655640E-17	-1.422880E-17
3.122318E+03	-2.723521E-17	-1.459246E-17
3.122516E+03	-2.790168E-17	-1.494950E-17
3.122913E+03	-2.855662E-17	-1.530033E-17
3.123309E+03	-2.919984E-17	-1.564486E-17
3.123705E+03	-2.983074E-17	-1.598280E-17
3.123903E+03	-3.046317E-17	-1.632160E-17
3.124497E+03	-3.108035E-17	-1.665212E-17
3.124694E+03	-3.167925E-17	-1.697295E-17
3.125288E+03	-3.226945E-17	-1.728901E-17
3.125487E+03	-3.284071E-17	-1.759502E-17
3.125684E+03	-3.340314E-17	-1.789630E-17
3.126279E+03	-3.394694E-17	-1.818749E-17
3.126477E+03	-3.448586E-17	-1.847617E-17
3.126676E+03	-3.500354E-17	-1.875347E-17
3.126874E+03	-3.551417E-17	-1.902699E-17
3.127072E+03	-3.597818E-17	-1.927553E-17
3.127468E+03	-3.645746E-17	-1.953219E-17
3.127666E+03	-3.690323E-17	-1.977095E-17
3.127864E+03	-3.733603E-17	-2.000277E-17
3.128062E+03	-3.776827E-17	-2.023428E-17
3.129448E+03	-3.817652E-17	-2.045258E-17
3.129646E+03	-3.855158E-17	-2.065345E-17
3.130438E+03	-3.892417E-17	-2.085282E-17
3.130637E+03	-3.927921E-17	-2.104296E-17
3.130835E+03	-3.962187E-17	-2.122647E-17
3.131033E+03	-3.995274E-17	-2.140366E-17
3.131231E+03	-4.027003E-17	-2.157358E-17
3.131429E+03	-4.056843E-17	-2.173337E-17
3.131826E+03	-4.085386E-17	-2.188615E-17
3.132222E+03	-4.111628E-17	-2.202660E-17
3.132618E+03	-4.136217E-17	-2.215820E-17
3.132816E+03	-4.158619E-17	-2.227815E-17
3.133014E+03	-4.179132E-17	-2.238797E-17
3.133212E+03	-4.198345E-17	-2.249083E-17
3.133806E+03	-4.215263E-17	-2.258126E-17
3.134202E+03	-4.230760E-17	-2.266415E-17
3.134400E+03	-4.244303E-17	-2.273662E-17
3.134599E+03	-4.255068E-17	-2.279422E-17
3.134995E+03	-4.261878E-17	-2.283057E-17
3.135193E+03	-4.266792E-17	-2.285682E-17
3.135589E+03	-4.270114E-17	-2.287449E-17
3.135787E+03	-4.271598E-17	-2.288237E-17
3.136183E+03	-4.271315E-17	-2.288072E-17
3.136975E+03	-4.269565E-17	-2.287107E-17
3.137372E+03	-4.265555E-17	-2.284945E-17
3.137569E+03	-4.259527E-17	-2.281710E-17
3.137767E+03	-4.251666E-17	-2.277492E-17
3.138163E+03	-4.241859E-17	-2.272225E-17
3.138362E+03	-4.230093E-17	-2.265915E-17
3.138758E+03	-4.216378E-17	-2.258555E-17
3.138956E+03	-4.200705E-17	-2.250153E-17
3.139154E+03	-4.183198E-17	-2.240769E-17
3.139352E+03	-4.163974E-17	-2.230465E-17
3.139550E+03	-4.141614E-17	-2.218481E-17
3.139748E+03	-4.116886E-17	-2.205228E-17
3.139946E+03	-4.088903E-17	-2.190233E-17
3.141332E+03	-4.059789E-17	-2.174592E-17
3.141728E+03	-4.029250E-17	-2.158221E-17
3.141926E+03	-3.996225E-17	-2.140525E-17
3.142522E+03	-3.961120E-17	-2.121703E-17
3.142720E+03	-3.922170E-17	-2.100834E-17
3.142918E+03	-3.879370E-17	-2.077903E-17
3.143710E+03	-3.835598E-17	-2.054433E-17
3.144106E+03	-3.790827E-17	-2.030440E-17
3.144502E+03	-3.743447E-17	-2.005050E-17
3.144898E+03	-3.693514E-17	-1.978294E-17
3.145096E+03	-3.640806E-17	-1.950057E-17
3.145492E+03	-3.585534E-17	-1.920441E-17
3.145888E+03	-3.527591E-17	-1.889395E-17
3.146681E+03	-3.467294E-17	-1.857077E-17
3.146879E+03	-3.403906E-17	-1.823121E-17
3.147870E+03	-3.338232E-17	-1.787920E-17
3.148464E+03	-3.269567E-17	-1.751128E-17
3.149057E+03	-3.198105E-17	-1.712838E-17
3.149651E+03	-3.123965E-17	-1.673115E-17
3.150444E+03	-3.047528E-17	-1.632158E-17
3.150642E+03	-2.968449E-17	-1.589801E-17
3.150840E+03	-2.885454E-17	-1.545347E-17
3.151236E+03	-2.800816E-17	-1.500009E-17
3.151632E+03	-2.713146E-17	-1.453047E-17
3.151830E+03	-2.622427E-17	-1.404458E-17
3.152226E+03	-2.529285E-17	-1.354567E-17
3.152622E+03	-2.432281E-17	-1.302608E-17
3.152820E+03	-2.333776E-17	-1.249850E-17
3.153415E+03	-2.231836E-17	-1.195245E-17
3.153811E+03	-2.125964E-17	-1.138540E-17
3.154010E+03	-2.018007E-17	-1.080721E-17
3.154208E+03	-1.905894E-17	-1.020677E-17
3.154406E+03	-1.791700E-17	-9.595186E-18
3.154604E+03	-1.673111E-17	-8.960073E-18
3.155396E+03	-1.551386E-17	-8.308097E-18
3.155792E+03	-1.427062E-17	-7.642261E-18
3.155990E+03	-1.301145E-17	-6.967925E-18
3.156980E+03	-1.170432E-17	-6.267829E-18
3.157178E+03	-1.037190E-17	-5.554286E-18
3.158169E+03	-9.022646E-18	-4.831668E-18
3.158368E+03	-7.626461E-18	-4.083992E-18
3.158764E+03	-6.201297E-18	-3.320793E-18
3.158962E+03	-4.735616E-18	-2.535913E-18
3.159556E+03	-3.234615E-18	-1.732114E-18
3.160150E+03	-1.718703E-18	-9.203453E-19
3.160347E+03	-1.595742E-19	-8.544985E-20
3.160942E+03	1.433097E-18	7.673973E-19
3.162328E+03	3.058891E-18	1.637945E-18
3.162526E+03	4.707447E-18	2.520691E-18
3.162922E+03	6.393730E-18	3.423622E-18
3.163120E+03	8.113633E-18	4.344557E-18
3.163318E+03	9.868657E-18	5.284293E-18
3.163715E+03	1.165735E-17	6.242034E-18
3.164507E+03	1.348263E-17	7.219306E-18
3.164903E+03	1.534249E-17	8.215119E-18
3.165894E+03	1.724021E-17	9.231115E-18
3.166488E+03	1.917303E-17	1.026593E-17
3.167082E+03	2.114240E-17	1.132030E-17
3.167280E+03	2.314764E-17	1.239393E-17
3.167676E+03	2.519052E-17	1.348766E-17
3.168468E+03	2.727197E-17	1.460195E-17
3.169261E+03	2.939072E-17	1.573617E-17
3.169658E+03	3.154621E-17	1.689015E-17
3.169856E+03	3.373903E-17	1.806415E-17
3.170648E+03	3.597240E-17	1.925967E-17
3.171044E+03	3.824277E-17	2.047510E-17
3.171638E+03	4.055314E-17	2.171187E-17
3.172232E+03	4.290311E-17	2.296982E-17
3.172429E+03	4.528960E-17	2.424745E-17
3.173618E+03	4.772322E-17	2.554990E-17
3.174807E+03	4.998995E-17	2.676296E-17
3.175005E+03	5.243992E-17	2.807450E-17
3.175797E+03	5.498909E-17	2.943887E-17
3.175995E+03	5.732417E-17	3.068888E-17
3.176193E+03	5.986930E-17	3.205134E-17
3.176391E+03	6.243420E-17	3.342437E-17
3.176589E+03	5.734611E-17	3.070035E-17
3.176787E+03	5.850448E-17	3.132038E-17
3.177184E+03	5.649192E-17	3.024278E-17
3.177580E+03	5.022796E-17	2.688922E-17
3.178174E+03	5.127368E-17	2.744878E-17
3.178372E+03	5.262190E-17	2.817044E-17
3.178570E+03	5.119913E-17	2.740870E-17
3.178966E+03	4.365515E-17	2.337000E-17
3.179561E+03	3.676226E-17	1.967983E-17
3.179759E+03	3.467481E-17	1.856230E-17
3.180353E+03	3.518223E-17	1.883376E-17
3.180551E+03	3.550630E-17	1.900718E-17
3.181146E+03	3.650599E-17	1.954216E-17
3.181740E+03	2.837548E-17	1.518964E-17
3.181938E+03	2.368863E-17	1.268069E-17
3.182928E+03	2.233285E-17	1.195475E-17
3.183126E+03	1.917136E-17	1.026237E-17
3.183324E+03	1.606566E-17	8.599872E-18
3.183522E+03	1.438674E-17	7.701129E-18
3.183720E+03	1.463835E-17	7.835792E-18
3.183918E+03	1.378800E-17	7.380585E-18
3.184511E+03	1.342414E-17	7.185744E-18
3.184710E+03	1.336972E-17	7.156594E-18
3.185503E+03	1.283345E-17	6.869451E-18
3.185701E+03	1.251283E-17	6.697811E-18
3.185899E+03	9.864400E-18	5.280153E-18
3.186097E+03	9.173870E-18	4.910515E-18
3.186889E+03	9.323147E-18	4.990357E-18
3.187879E+03	9.123052E-18	4.883176E-18
3.188473E+03	9.014765E-18	4.825170E-18
3.188671E+03	8.686764E-18	4.649591E-18
3.189266E+03	8.863208E-18	4.743989E-18
3.189464E+03	8.538145E-18	4.569986E-18
3.189860E+03	8.639887E-18	4.624414E-18
3.190455E+03	8.343835E-18	4.465913E-18
3.190653E+03	7.492545E-18	4.010260E-18
3.191643E+03	7.221779E-18	3.865276E-18
3.192237E+03	7.309961E-18	3.912437E-18
3.192633E+03	7.433127E-18	3.978333E-18
3.192832E+03	7.343321E-18	3.930254E-18
3.193030E+03	7.251719E-18	3.881216E-18
3.193426E+03	7.024391E-18	3.759523E-18
3.193624E+03	7.049612E-18	3.773010E-18
3.193822E+03	7.042643E-18	3.769268E-18
3.194020E+03	6.893195E-18	3.689271E-18
3.194218E+03	7.007839E-18	3.750617E-18
3.194614E+03	7.082133E-18	3.790355E-18
3.195208E+03	6.832864E-18	3.656912E-18
3.195605E+03	6.963207E-18	3.726647E-18
3.196001E+03	6.983845E-18	3.737669E-18
