#wls	flux	fluxerr
1.584409E+03	1.264586E-16	9.871455E-18
1.624020E+03	1.319266E-16	1.029377E-17
1.663630E+03	1.371146E-16	1.069374E-17
1.703240E+03	1.419687E-16	1.106718E-17
1.742850E+03	1.463872E-16	1.140619E-17
1.782461E+03	1.502510E-16	1.170151E-17
1.822071E+03	1.533682E-16	1.193826E-17
1.861681E+03	1.555425E-16	1.210124E-17
1.901291E+03	1.565489E-16	1.217306E-17
1.940902E+03	1.561908E-16	1.213857E-17
1.980512E+03	1.543683E-16	1.199020E-17
2.020122E+03	1.512745E-16	1.174312E-17
2.059732E+03	1.475119E-16	1.144426E-17
2.099342E+03	1.440817E-16	1.117134E-17
2.138953E+03	1.421046E-16	1.101117E-17
2.178563E+03	1.422436E-16	1.101487E-17
2.218173E+03	1.443492E-16	1.117057E-17
2.257783E+03	1.476152E-16	1.141560E-17
2.297394E+03	1.510090E-16	1.166996E-17
2.337004E+03	1.537293E-16	1.187175E-17
2.376614E+03	1.552785E-16	1.198264E-17
2.416224E+03	1.554375E-16	1.198594E-17
2.455835E+03	1.541964E-16	1.188111E-17
2.495445E+03	1.516338E-16	1.167447E-17
2.535055E+03	1.478708E-16	1.137558E-17
2.574665E+03	1.430697E-16	1.099713E-17
2.614276E+03	1.373712E-16	1.055016E-17
2.653886E+03	1.309296E-16	1.004672E-17
2.693496E+03	1.238814E-16	9.497424E-18
2.733106E+03	1.163767E-16	8.913946E-18
2.772716E+03	1.085496E-16	8.306659E-18
2.812327E+03	1.005402E-16	7.686391E-18
2.851937E+03	9.248627E-17	7.063741E-18
2.891547E+03	8.452082E-17	6.448903E-18
2.931157E+03	7.676825E-17	5.851378E-18
2.970768E+03	6.933894E-17	5.279559E-18
2.980670E+03	6.754267E-17	5.141419E-18
2.990573E+03	6.577429E-17	5.005467E-18
3.000475E+03	6.403314E-17	4.871652E-18
3.010378E+03	6.232282E-17	4.740246E-18
3.020280E+03	6.064256E-17	4.611189E-18
3.030183E+03	5.899300E-17	4.484530E-18
3.040086E+03	5.737542E-17	4.360363E-18
3.049988E+03	5.579489E-17	4.239072E-18
3.059891E+03	5.425137E-17	4.120653E-18
3.069793E+03	5.274632E-17	4.005215E-18
3.079696E+03	5.127792E-17	3.892617E-18
3.089598E+03	4.984661E-17	3.782891E-18
3.099501E+03	4.845184E-17	3.675993E-18
3.109403E+03	4.709313E-17	3.571885E-18
3.119306E+03	4.577007E-17	3.470534E-18
3.129209E+03	4.448316E-17	3.371976E-18
3.139111E+03	4.323119E-17	3.276118E-18
3.149014E+03	4.201465E-17	3.182994E-18
3.158916E+03	4.083317E-17	3.092575E-18
3.168819E+03	3.968644E-17	3.004835E-18
3.178721E+03	3.857475E-17	2.919794E-18
3.188624E+03	3.749641E-17	2.837323E-18
3.198526E+03	3.645298E-17	2.757537E-18
3.208429E+03	3.544217E-17	2.680261E-18
3.218332E+03	3.446537E-17	2.605599E-18
3.228234E+03	3.352095E-17	2.533424E-18
3.238137E+03	3.260901E-17	2.463745E-18
3.248039E+03	3.172903E-17	2.396516E-18
3.257942E+03	3.088001E-17	2.331664E-18
3.267844E+03	3.006238E-17	2.269218E-18
3.277747E+03	2.927464E-17	2.209061E-18
3.287650E+03	2.851627E-17	2.151155E-18
3.297552E+03	2.778754E-17	2.095516E-18
3.307455E+03	2.708700E-17	2.042034E-18
3.317357E+03	2.641407E-17	1.990665E-18
3.327260E+03	2.576821E-17	1.941363E-18
3.337162E+03	2.514912E-17	1.894107E-18
3.347065E+03	2.455552E-17	1.848796E-18
3.356967E+03	2.398683E-17	1.805387E-18
3.366870E+03	2.344277E-17	1.763856E-18
3.376773E+03	2.292243E-17	1.724134E-18
3.386675E+03	2.242522E-17	1.686174E-18
3.396578E+03	2.194999E-17	1.649889E-18
3.406480E+03	2.149649E-17	1.615258E-18
3.416383E+03	2.106416E-17	1.582237E-18
3.426285E+03	2.065195E-17	1.550747E-18
3.436188E+03	2.025937E-17	1.520748E-18
3.446090E+03	1.988569E-17	1.492185E-18
3.455993E+03	1.953069E-17	1.465041E-18
3.465896E+03	1.919322E-17	1.439227E-18
3.475798E+03	1.887309E-17	1.414729E-18
3.485701E+03	1.856949E-17	1.391483E-18
3.495603E+03	1.828181E-17	1.369444E-18
3.505506E+03	1.800953E-17	1.348571E-18
3.515408E+03	1.775192E-17	1.328808E-18
3.525311E+03	1.750871E-17	1.310134E-18
3.535213E+03	1.727904E-17	1.292484E-18
3.545116E+03	1.706250E-17	1.275825E-18
3.555019E+03	1.685887E-17	1.260142E-18
3.564921E+03	1.666757E-17	1.245389E-18
3.574824E+03	1.648825E-17	1.231539E-18
3.584726E+03	1.632040E-17	1.218553E-18
3.594629E+03	1.616352E-17	1.206393E-18
3.604531E+03	1.601731E-17	1.195037E-18
3.614434E+03	1.588118E-17	1.184438E-18
3.624337E+03	1.575505E-17	1.174589E-18
3.634239E+03	1.563833E-17	1.165448E-18
3.644142E+03	1.553080E-17	1.156996E-18
3.654044E+03	1.543239E-17	1.149227E-18
3.663947E+03	1.534258E-17	1.142103E-18
3.673849E+03	1.526119E-17	1.135607E-18
3.683752E+03	1.518826E-17	1.129744E-18
3.693654E+03	1.512349E-17	1.124490E-18
3.703557E+03	1.506664E-17	1.119827E-18
3.713460E+03	1.501781E-17	1.115761E-18
3.723362E+03	1.497665E-17	1.112266E-18
3.733265E+03	1.494312E-17	1.109337E-18
3.743167E+03	1.491726E-17	1.106978E-18
3.753070E+03	1.489888E-17	1.105173E-18
3.762972E+03	1.488790E-17	1.103917E-18
3.772875E+03	1.488426E-17	1.103203E-18
3.782777E+03	1.488788E-17	1.103025E-18
3.792680E+03	1.489883E-17	1.103388E-18
3.802583E+03	1.491690E-17	1.104276E-18
3.812485E+03	1.494213E-17	1.105692E-18
3.822388E+03	1.497460E-17	1.107638E-18
3.832290E+03	1.501409E-17	1.110100E-18
3.842193E+03	1.506051E-17	1.113071E-18
3.852095E+03	1.511405E-17	1.116563E-18
3.861998E+03	1.517463E-17	1.120569E-18
3.871900E+03	1.524203E-17	1.125073E-18
3.881803E+03	1.531642E-17	1.130087E-18
3.891706E+03	1.539784E-17	1.135613E-18
3.901608E+03	1.548593E-17	1.141624E-18
3.911511E+03	1.558083E-17	1.148129E-18
3.921413E+03	1.568258E-17	1.155130E-18
3.931316E+03	1.579105E-17	1.162619E-18
3.941218E+03	1.590599E-17	1.170575E-18
3.951121E+03	1.602766E-17	1.179017E-18
3.961024E+03	1.615581E-17	1.187925E-18
3.970926E+03	1.629027E-17	1.197287E-18
3.980829E+03	1.643116E-17	1.207111E-18
3.990731E+03	1.657820E-17	1.217375E-18
4.000634E+03	1.673147E-17	1.228086E-18
4.010536E+03	1.689056E-17	1.239211E-18
4.020439E+03	1.705568E-17	1.250766E-18
4.030341E+03	1.722652E-17	1.262727E-18
4.040244E+03	1.740288E-17	1.275081E-18
4.050147E+03	1.758486E-17	1.287831E-18
4.060049E+03	1.777195E-17	1.300942E-18
4.069952E+03	1.796441E-17	1.314432E-18
4.079854E+03	1.816172E-17	1.328261E-18
4.089757E+03	1.836381E-17	1.342424E-18
4.099659E+03	1.857062E-17	1.356916E-18
4.109562E+03	1.878174E-17	1.371708E-18
4.119464E+03	1.899711E-17	1.386793E-18
4.129367E+03	1.921647E-17	1.402153E-18
4.139270E+03	1.943943E-17	1.417758E-18
4.149172E+03	1.966602E-17	1.433611E-18
4.159075E+03	1.989567E-17	1.449669E-18
4.168977E+03	2.012840E-17	1.465933E-18
4.178880E+03	2.036360E-17	1.482359E-18
4.188782E+03	2.060112E-17	1.498935E-18
4.198685E+03	2.084064E-17	1.515639E-18
4.208587E+03	2.108149E-17	1.532419E-18
4.218490E+03	2.132363E-17	1.549276E-18
4.228393E+03	2.156655E-17	1.566169E-18
4.238295E+03	2.180967E-17	1.583057E-18
4.248198E+03	2.205241E-17	1.599899E-18
4.258100E+03	2.229454E-17	1.616677E-18
4.268003E+03	2.253560E-17	1.633359E-18
4.277905E+03	2.277464E-17	1.649874E-18
4.287808E+03	2.301153E-17	1.666215E-18
4.297711E+03	2.324528E-17	1.682309E-18
4.307613E+03	2.347578E-17	1.698150E-18
4.317516E+03	2.370222E-17	1.713677E-18
4.327418E+03	2.392435E-17	1.728875E-18
4.337321E+03	2.414200E-17	1.743732E-18
4.347223E+03	2.435503E-17	1.758237E-18
4.357126E+03	2.456342E-17	1.772389E-18
4.367028E+03	2.476735E-17	1.786202E-18
4.376931E+03	2.496718E-17	1.799703E-18
4.386834E+03	2.516304E-17	1.812901E-18
4.396736E+03	2.535536E-17	1.825827E-18
4.406639E+03	2.554416E-17	1.838485E-18
4.416541E+03	2.573017E-17	1.850924E-18
4.426444E+03	2.591342E-17	1.863151E-18
4.436346E+03	2.609425E-17	1.875186E-18
4.446249E+03	2.627294E-17	1.887054E-18
4.456151E+03	2.644983E-17	1.898777E-18
4.466054E+03	2.662522E-17	1.910376E-18
4.475957E+03	2.679944E-17	1.921877E-18
4.485859E+03	2.697234E-17	1.933268E-18
4.495762E+03	2.714471E-17	1.944605E-18
4.505664E+03	2.731639E-17	1.955878E-18
4.515567E+03	2.748767E-17	1.967108E-18
4.525469E+03	2.765863E-17	1.978299E-18
4.535372E+03	2.782979E-17	1.989490E-18
4.545274E+03	2.800122E-17	2.000685E-18
4.555177E+03	2.817271E-17	2.011869E-18
4.565080E+03	2.834503E-17	2.023097E-18
4.574982E+03	2.851796E-17	2.034354E-18
4.584885E+03	2.869152E-17	2.045640E-18
4.594787E+03	2.886624E-17	2.056993E-18
4.604690E+03	2.904237E-17	2.068431E-18
4.614592E+03	2.921942E-17	2.079918E-18
4.624495E+03	2.939816E-17	2.091511E-18
4.634398E+03	2.957863E-17	2.103210E-18
4.644300E+03	2.976081E-17	2.115016E-18
4.654203E+03	2.994501E-17	2.126947E-18
4.664105E+03	3.013123E-17	2.139007E-18
4.674008E+03	3.031980E-17	2.151216E-18
4.683910E+03	3.051017E-17	2.163537E-18
4.693813E+03	3.070270E-17	2.175993E-18
4.703715E+03	3.089769E-17	2.188607E-18
4.713618E+03	3.109436E-17	2.201322E-18
4.723521E+03	3.129331E-17	2.214181E-18
4.733423E+03	3.149430E-17	2.227167E-18
4.743326E+03	3.169708E-17	2.240261E-18
4.753228E+03	3.190228E-17	2.253509E-18
4.763131E+03	3.210903E-17	2.266847E-18
4.773033E+03	3.231825E-17	2.280342E-18
4.782936E+03	3.252903E-17	2.293928E-18
4.792838E+03	3.274196E-17	2.307648E-18
4.802741E+03	3.295643E-17	2.321457E-18
4.812644E+03	3.317303E-17	2.335397E-18
4.822546E+03	3.339108E-17	2.349420E-18
4.832449E+03	3.361088E-17	2.363547E-18
4.842351E+03	3.383236E-17	2.377772E-18
4.852254E+03	3.405515E-17	2.392070E-18
4.862156E+03	3.427918E-17	2.406436E-18
4.872059E+03	3.450438E-17	2.420864E-18
4.881961E+03	3.473099E-17	2.435372E-18
4.891864E+03	3.495828E-17	2.449907E-18
4.901767E+03	3.518682E-17	2.464510E-18
4.911669E+03	3.541583E-17	2.479126E-18
4.921572E+03	3.564552E-17	2.493769E-18
4.931474E+03	3.587542E-17	2.508408E-18
4.941377E+03	3.610537E-17	2.523030E-18
4.951279E+03	3.633517E-17	2.537621E-18
4.961182E+03	3.656500E-17	2.552195E-18
4.971085E+03	3.679392E-17	2.566685E-18
4.980987E+03	3.702199E-17	2.581097E-18
4.990890E+03	3.724857E-17	2.595385E-18
5.000792E+03	3.747373E-17	2.609554E-18
5.010695E+03	3.769670E-17	2.623552E-18
5.020597E+03	3.791674E-17	2.637328E-18
5.030500E+03	3.813380E-17	2.650877E-18
5.040402E+03	3.834741E-17	2.664168E-18
5.050305E+03	3.855671E-17	2.677142E-18
5.060208E+03	3.876081E-17	2.689737E-18
5.070110E+03	3.895992E-17	2.701969E-18
5.080013E+03	3.915272E-17	2.713746E-18
5.089915E+03	3.933859E-17	2.725028E-18
5.099818E+03	3.951693E-17	2.735772E-18
5.109720E+03	3.968713E-17	2.745939E-18
5.119623E+03	3.984815E-17	2.755457E-18
5.129525E+03	3.999975E-17	2.764310E-18
5.139428E+03	4.014046E-17	2.772400E-18
5.149331E+03	4.027003E-17	2.779708E-18
5.159233E+03	4.038699E-17	2.786137E-18
5.169136E+03	4.049145E-17	2.791694E-18
5.179038E+03	4.058194E-17	2.796280E-18
5.188941E+03	4.065816E-17	2.799877E-18
5.198843E+03	4.071861E-17	2.802384E-18
5.208746E+03	4.076301E-17	2.803781E-18
5.218648E+03	4.079067E-17	2.804026E-18
5.228551E+03	4.080011E-17	2.803017E-18
5.238454E+03	4.079068E-17	2.800712E-18
5.248356E+03	4.076215E-17	2.797099E-18
5.258259E+03	4.071355E-17	2.792114E-18
5.268161E+03	4.064395E-17	2.785694E-18
5.278064E+03	4.055293E-17	2.777813E-18
5.287966E+03	4.044011E-17	2.768450E-18
5.297869E+03	4.030525E-17	2.757589E-18
5.307772E+03	4.014779E-17	2.745196E-18
5.317674E+03	3.996816E-17	2.731302E-18
5.327577E+03	3.976609E-17	2.715892E-18
5.337479E+03	3.954230E-17	2.699018E-18
5.347382E+03	3.929690E-17	2.680689E-18
5.357284E+03	3.903131E-17	2.661007E-18
5.367187E+03	3.874680E-17	2.640059E-18
5.377089E+03	3.844400E-17	2.617891E-18
5.386992E+03	3.812531E-17	2.594668E-18
5.396895E+03	3.779209E-17	2.570485E-18
5.406797E+03	3.744443E-17	2.545350E-18
5.416700E+03	3.708523E-17	2.519462E-18
5.426602E+03	3.671568E-17	2.492902E-18
5.436505E+03	3.633712E-17	2.465763E-18
5.446407E+03	3.595149E-17	2.438177E-18
5.456310E+03	3.556044E-17	2.410258E-18
5.466212E+03	3.516579E-17	2.382129E-18
5.476115E+03	3.477007E-17	2.353961E-18
5.486018E+03	3.437517E-17	2.325882E-18
5.495920E+03	3.398391E-17	2.298084E-18
5.505823E+03	3.359875E-17	2.270731E-18
5.515725E+03	3.322166E-17	2.243955E-18
5.525628E+03	3.285514E-17	2.217926E-18
5.535530E+03	3.250119E-17	2.192775E-18
5.545433E+03	3.216167E-17	2.168628E-18
5.555335E+03	3.183851E-17	2.145612E-18
5.565238E+03	3.153313E-17	2.123821E-18
5.575141E+03	3.124673E-17	2.103333E-18
5.585043E+03	3.098060E-17	2.084234E-18
5.594946E+03	3.073549E-17	2.066571E-18
5.604848E+03	3.051225E-17	2.050399E-18
5.614751E+03	3.031119E-17	2.035737E-18
5.624653E+03	3.013244E-17	2.022590E-18
5.634556E+03	2.997625E-17	2.010972E-18
5.644459E+03	2.984241E-17	2.000867E-18
5.654361E+03	2.973056E-17	1.992249E-18
5.664264E+03	2.964055E-17	1.985104E-18
5.674166E+03	2.957184E-17	1.979394E-18
5.684069E+03	2.952413E-17	1.975098E-18
5.693971E+03	2.949648E-17	1.972148E-18
5.703874E+03	2.948887E-17	1.970542E-18
5.713776E+03	2.950036E-17	1.970216E-18
5.723679E+03	2.953037E-17	1.971127E-18
5.733582E+03	2.957897E-17	1.973279E-18
5.743484E+03	2.964502E-17	1.976594E-18
5.753387E+03	2.972874E-17	1.981084E-18
5.763289E+03	2.982972E-17	1.986721E-18
5.773192E+03	2.994765E-17	1.993481E-18
5.783094E+03	3.008191E-17	2.001322E-18
5.792997E+03	3.023290E-17	2.010270E-18
5.802899E+03	3.040010E-17	2.020286E-18
5.812802E+03	3.058364E-17	2.031379E-18
5.822705E+03	3.078337E-17	2.043536E-18
5.832607E+03	3.099879E-17	2.056723E-18
5.842510E+03	3.123008E-17	2.070951E-18
5.852412E+03	3.147745E-17	2.086232E-18
5.862315E+03	3.174004E-17	2.102506E-18
5.872217E+03	3.201803E-17	2.119785E-18
5.882120E+03	3.231121E-17	2.138053E-18
5.892022E+03	3.261975E-17	2.157320E-18
5.901925E+03	3.294269E-17	2.177521E-18
5.911828E+03	3.328050E-17	2.198687E-18
5.921730E+03	3.363216E-17	2.220746E-18
5.931633E+03	3.399774E-17	2.243705E-18
5.941535E+03	3.437688E-17	2.267537E-18
5.951438E+03	3.476883E-17	2.292191E-18
5.961340E+03	3.517358E-17	2.317667E-18
5.971243E+03	3.558988E-17	2.343881E-18
5.981146E+03	3.601807E-17	2.370853E-18
5.991048E+03	3.645637E-17	2.398467E-18
6.000951E+03	3.690506E-17	2.426739E-18
6.010853E+03	3.736269E-17	2.455574E-18
6.020756E+03	3.782902E-17	2.484955E-18
6.030658E+03	3.830243E-17	2.514776E-18
6.040561E+03	3.878217E-17	2.544987E-18
6.050463E+03	3.926691E-17	2.575500E-18
6.060366E+03	3.975576E-17	2.606256E-18
6.070269E+03	4.024681E-17	2.637131E-18
6.080171E+03	4.073853E-17	2.668024E-18
6.090074E+03	4.122985E-17	2.698867E-18
6.099976E+03	4.171917E-17	2.729554E-18
6.109879E+03	4.220383E-17	2.759912E-18
6.119781E+03	4.268271E-17	2.789868E-18
6.129684E+03	4.315418E-17	2.819318E-18
6.139586E+03	4.361725E-17	2.848198E-18
6.149489E+03	4.407158E-17	2.876487E-18
6.159392E+03	4.451698E-17	2.904172E-18
6.169294E+03	4.495392E-17	2.931288E-18
6.179197E+03	4.538420E-17	2.957952E-18
6.189099E+03	4.580804E-17	2.984178E-18
6.199002E+03	4.622511E-17	3.009948E-18
6.208904E+03	4.663759E-17	3.035404E-18
6.218807E+03	4.704590E-17	3.060573E-18
6.228709E+03	4.744929E-17	3.085409E-18
6.238612E+03	4.785017E-17	3.110067E-18
6.248515E+03	4.824719E-17	3.134461E-18
6.258417E+03	4.864221E-17	3.158713E-18
6.268320E+03	4.903456E-17	3.182778E-18
6.278222E+03	4.942485E-17	3.206698E-18
6.288125E+03	4.981307E-17	3.230472E-18
6.298027E+03	5.019918E-17	3.254097E-18
6.307930E+03	5.058314E-17	3.277572E-18
6.317833E+03	5.096420E-17	3.300849E-18
6.327735E+03	5.134158E-17	3.323877E-18
6.337638E+03	5.171589E-17	3.346696E-18
6.347540E+03	5.208559E-17	3.369207E-18
6.357443E+03	5.245130E-17	3.391452E-18
6.367345E+03	5.281216E-17	3.413374E-18
6.377248E+03	5.316806E-17	3.434968E-18
6.387150E+03	5.351966E-17	3.456277E-18
6.397053E+03	5.386850E-17	3.477400E-18
6.406956E+03	5.421460E-17	3.498340E-18
6.416858E+03	5.455876E-17	3.519148E-18
6.426761E+03	5.490189E-17	3.539884E-18
6.436663E+03	5.524323E-17	3.560499E-18
6.446566E+03	5.558457E-17	3.581109E-18
6.456468E+03	5.592605E-17	3.601722E-18
6.466371E+03	5.626694E-17	3.622293E-18
6.476273E+03	5.660914E-17	3.642943E-18
6.486176E+03	5.695190E-17	3.663626E-18
6.496079E+03	5.729449E-17	3.684293E-18
6.505981E+03	5.763884E-17	3.705071E-18
6.515884E+03	5.798419E-17	3.725908E-18
6.525786E+03	5.833065E-17	3.746814E-18
6.535689E+03	5.867930E-17	3.767857E-18
6.545591E+03	5.902834E-17	3.788923E-18
6.555494E+03	5.937781E-17	3.810014E-18
6.565396E+03	5.972972E-17	3.831259E-18
6.575299E+03	6.008213E-17	3.852535E-18
6.585202E+03	6.043503E-17	3.873840E-18
6.595104E+03	6.078940E-17	3.895239E-18
6.605007E+03	6.114416E-17	3.916662E-18
6.614909E+03	6.149923E-17	3.938103E-18
6.624812E+03	6.185552E-17	3.959623E-18
6.634714E+03	6.221079E-17	3.981078E-18
6.644617E+03	6.256483E-17	4.002455E-18
6.654520E+03	6.291959E-17	4.023879E-18
6.664422E+03	6.327268E-17	4.045198E-18
6.674325E+03	6.362382E-17	4.066394E-18
6.684227E+03	6.397383E-17	4.087521E-18
6.694130E+03	6.432129E-17	4.108488E-18
6.704032E+03	6.466587E-17	4.129274E-18
6.713935E+03	6.500722E-17	4.149859E-18
6.723837E+03	6.534498E-17	4.170218E-18
6.733740E+03	6.567759E-17	4.190256E-18
6.743643E+03	6.600584E-17	4.210021E-18
6.753545E+03	6.632935E-17	4.229490E-18
6.763448E+03	6.664652E-17	4.248562E-18
6.773350E+03	6.695817E-17	4.267291E-18
6.783253E+03	6.726268E-17	4.285574E-18
6.793155E+03	6.755965E-17	4.303386E-18
6.803058E+03	6.784871E-17	4.320704E-18
6.812960E+03	6.812820E-17	4.337425E-18
6.822863E+03	6.840028E-17	4.353685E-18
6.832766E+03	6.866339E-17	4.369387E-18
6.842668E+03	6.891588E-17	4.384428E-18
6.852571E+03	6.915872E-17	4.398869E-18
6.862473E+03	6.939035E-17	4.412611E-18
6.872376E+03	6.961045E-17	4.425637E-18
6.882278E+03	6.982013E-17	4.438017E-18
6.892181E+03	7.001781E-17	4.449653E-18
6.902083E+03	7.020332E-17	4.460533E-18
6.911986E+03	7.037648E-17	4.470649E-18
6.921889E+03	7.053718E-17	4.479992E-18
6.931791E+03	7.068395E-17	4.488473E-18
6.941694E+03	7.081947E-17	4.496261E-18
6.951596E+03	7.094102E-17	4.503184E-18
6.961499E+03	7.104861E-17	4.509245E-18
6.971401E+03	7.114376E-17	4.514541E-18
6.981304E+03	7.122522E-17	4.518993E-18
6.991207E+03	7.129319E-17	4.522614E-18
7.001109E+03	7.134796E-17	4.525425E-18
7.011012E+03	7.138987E-17	4.527448E-18
7.020914E+03	7.142076E-17	4.528799E-18
7.030817E+03	7.143825E-17	4.529330E-18
7.040719E+03	7.144290E-17	4.529074E-18
7.050622E+03	7.143673E-17	4.528163E-18
7.060524E+03	7.142043E-17	4.526641E-18
7.070427E+03	7.139330E-17	4.524462E-18
7.080330E+03	7.135757E-17	4.521770E-18
7.090232E+03	7.131120E-17	4.518435E-18
7.100135E+03	7.125798E-17	4.514700E-18
7.110037E+03	7.119739E-17	4.510529E-18
7.119940E+03	7.113039E-17	4.505986E-18
7.129842E+03	7.105648E-17	4.501038E-18
7.139745E+03	7.097957E-17	4.495934E-18
7.149647E+03	7.089771E-17	4.490551E-18
7.159550E+03	7.081332E-17	4.485043E-18
7.169453E+03	7.072585E-17	4.479375E-18
7.179355E+03	7.063763E-17	4.473694E-18
7.189258E+03	7.054801E-17	4.467960E-18
7.199160E+03	7.045772E-17	4.462221E-18
7.209063E+03	7.036892E-17	4.456611E-18
7.218965E+03	7.028071E-17	4.451077E-18
7.228868E+03	7.019508E-17	4.445742E-18
7.238770E+03	7.010946E-17	4.440446E-18
7.248673E+03	7.002565E-17	4.435301E-18
7.258576E+03	6.994542E-17	4.430422E-18
7.268478E+03	6.986592E-17	4.425627E-18
7.278381E+03	6.978876E-17	4.421020E-18
7.288283E+03	6.971247E-17	4.416507E-18
7.298186E+03	6.963853E-17	4.412183E-18
7.308088E+03	6.956537E-17	4.407948E-18
7.317991E+03	6.949283E-17	4.403792E-18
7.327894E+03	6.942073E-17	4.399705E-18
7.337796E+03	6.934730E-17	4.395575E-18
7.347699E+03	6.927221E-17	4.391381E-18
7.357601E+03	6.919510E-17	4.387101E-18
7.367504E+03	6.911549E-17	4.382704E-18
7.377406E+03	6.903442E-17	4.378258E-18
7.387309E+03	6.894978E-17	4.373627E-18
7.397211E+03	6.886404E-17	4.368970E-18
7.407114E+03	6.877661E-17	4.364248E-18
7.417017E+03	6.868698E-17	4.359430E-18
7.426919E+03	6.859477E-17	4.354493E-18
7.436822E+03	6.849987E-17	4.349428E-18
7.446724E+03	6.840563E-17	4.344447E-18
7.456627E+03	6.830944E-17	4.339385E-18
7.466529E+03	6.821366E-17	4.334389E-18
7.476432E+03	6.811924E-17	4.329520E-18
7.486334E+03	6.802876E-17	4.324941E-18
7.496237E+03	6.794001E-17	4.320511E-18
7.506140E+03	6.785544E-17	4.316385E-18
7.516042E+03	6.777585E-17	4.312614E-18
7.525945E+03	6.770348E-17	4.309339E-18
7.535847E+03	6.763567E-17	4.306391E-18
7.545750E+03	6.757603E-17	4.304000E-18
7.555652E+03	6.752328E-17	4.302084E-18
7.565555E+03	6.747605E-17	4.300554E-18
7.575457E+03	6.743764E-17	4.299623E-18
7.585360E+03	6.740652E-17	4.299191E-18
7.595263E+03	6.738266E-17	4.299257E-18
7.605165E+03	6.736597E-17	4.299815E-18
7.615068E+03	6.735629E-17	4.300855E-18
7.624970E+03	6.735340E-17	4.302363E-18
7.634873E+03	6.735870E-17	4.304428E-18
7.644775E+03	6.736857E-17	4.306818E-18
7.654678E+03	6.738596E-17	4.309723E-18
7.664581E+03	6.740878E-17	4.313008E-18
7.674483E+03	6.743661E-17	4.316648E-18
7.684386E+03	6.746894E-17	4.320607E-18
