#wls	flux	fluxerr
1.584409E+03	5.978840E-17	3.030351E-17
1.624020E+03	6.238230E-17	3.161354E-17
1.663630E+03	6.481724E-17	3.284238E-17
1.703240E+03	6.706363E-17	3.397504E-17
1.742850E+03	6.906968E-17	3.498531E-17
1.782461E+03	7.077613E-17	3.584321E-17
1.822071E+03	7.209057E-17	3.650200E-17
1.861681E+03	7.292027E-17	3.691483E-17
1.901291E+03	7.316148E-17	3.702929E-17
1.940902E+03	7.272650E-17	3.680120E-17
1.980512E+03	7.157609E-17	3.621093E-17
2.020122E+03	6.980919E-17	3.530875E-17
2.059732E+03	6.771311E-17	3.424020E-17
2.099342E+03	6.575281E-17	3.324048E-17
2.138953E+03	6.443688E-17	3.256659E-17
2.178563E+03	6.405339E-17	3.236385E-17
2.218173E+03	6.451670E-17	3.258859E-17
2.257783E+03	6.544964E-17	3.304999E-17
2.297394E+03	6.638554E-17	3.351223E-17
2.337004E+03	6.697411E-17	3.379849E-17
2.376614E+03	6.700946E-17	3.380508E-17
2.416224E+03	6.641450E-17	3.349338E-17
2.455835E+03	6.520578E-17	3.287205E-17
2.495445E+03	6.343834E-17	3.196920E-17
2.535055E+03	6.118432E-17	3.082149E-17
2.574665E+03	5.853096E-17	2.947319E-17
2.614276E+03	5.555392E-17	2.796264E-17
2.653886E+03	5.233142E-17	2.632947E-17
2.693496E+03	4.893100E-17	2.460784E-17
2.733106E+03	4.542234E-17	2.283299E-17
2.772716E+03	4.186495E-17	2.103494E-17
2.812327E+03	3.831748E-17	1.924327E-17
2.851937E+03	3.483408E-17	1.748521E-17
2.891547E+03	3.146392E-17	1.578546E-17
2.931157E+03	2.825014E-17	1.416564E-17
2.970768E+03	2.522847E-17	1.264361E-17
2.980670E+03	2.450620E-17	1.227993E-17
2.990573E+03	2.379823E-17	1.192351E-17
3.000475E+03	2.310421E-17	1.157417E-17
3.010378E+03	2.242531E-17	1.123249E-17
3.020280E+03	2.176113E-17	1.089826E-17
3.030183E+03	2.111178E-17	1.057155E-17
3.040086E+03	2.047759E-17	1.025250E-17
3.049988E+03	1.986023E-17	9.941964E-18
3.059891E+03	1.925954E-17	9.639852E-18
3.069793E+03	1.867589E-17	9.346345E-18
3.079696E+03	1.810848E-17	9.061043E-18
3.089598E+03	1.755733E-17	8.783949E-18
3.099501E+03	1.702209E-17	8.514885E-18
3.109403E+03	1.650243E-17	8.253689E-18
3.119306E+03	1.599808E-17	8.000217E-18
3.129209E+03	1.550904E-17	7.754474E-18
3.139111E+03	1.503477E-17	7.516180E-18
3.149014E+03	1.457530E-17	7.285344E-18
3.158916E+03	1.413034E-17	7.061830E-18
3.168819E+03	1.369966E-17	6.845511E-18
3.178721E+03	1.328323E-17	6.636377E-18
3.188624E+03	1.288035E-17	6.434066E-18
3.198526E+03	1.249143E-17	6.238784E-18
3.208429E+03	1.211556E-17	6.050078E-18
3.218332E+03	1.175311E-17	5.868127E-18
3.228234E+03	1.140341E-17	5.692595E-18
3.238137E+03	1.106640E-17	5.523444E-18
3.248039E+03	1.074180E-17	5.360537E-18
3.257942E+03	1.042916E-17	5.203650E-18
3.267844E+03	1.012856E-17	5.052812E-18
3.277747E+03	9.839382E-18	4.907719E-18
3.287650E+03	9.561377E-18	4.768240E-18
3.297552E+03	9.294553E-18	4.634380E-18
3.307455E+03	9.038343E-18	4.505851E-18
3.317357E+03	8.792486E-18	4.382522E-18
3.327260E+03	8.556713E-18	4.264256E-18
3.337162E+03	8.330875E-18	4.150978E-18
3.347065E+03	8.114464E-18	4.042431E-18
3.356967E+03	7.907228E-18	3.938488E-18
3.366870E+03	7.709020E-18	3.839074E-18
3.376773E+03	7.519479E-18	3.744006E-18
3.386675E+03	7.338356E-18	3.653159E-18
3.396578E+03	7.165225E-18	3.566319E-18
3.406480E+03	6.999946E-18	3.483414E-18
3.416383E+03	6.842295E-18	3.404331E-18
3.426285E+03	6.691881E-18	3.328873E-18
3.436188E+03	6.548497E-18	3.256936E-18
3.446090E+03	6.411865E-18	3.188380E-18
3.455993E+03	6.281870E-18	3.123146E-18
3.465896E+03	6.158101E-18	3.061027E-18
3.475798E+03	6.040461E-18	3.001975E-18
3.485701E+03	5.928640E-18	2.945833E-18
3.495603E+03	5.822418E-18	2.892491E-18
3.505506E+03	5.721581E-18	2.841841E-18
3.515408E+03	5.625869E-18	2.793752E-18
3.525311E+03	5.535159E-18	2.748163E-18
3.535213E+03	5.449147E-18	2.704920E-18
3.545116E+03	5.367672E-18	2.663944E-18
3.555019E+03	5.290635E-18	2.625182E-18
3.564921E+03	5.217829E-18	2.588532E-18
3.574824E+03	5.149106E-18	2.553919E-18
3.584726E+03	5.084288E-18	2.521253E-18
3.594629E+03	5.023190E-18	2.490442E-18
3.604531E+03	4.965701E-18	2.461430E-18
3.614434E+03	4.911606E-18	2.434109E-18
3.624337E+03	4.860851E-18	2.408451E-18
3.634239E+03	4.813245E-18	2.384361E-18
3.644142E+03	4.768690E-18	2.361789E-18
3.654044E+03	4.727146E-18	2.340715E-18
3.663947E+03	4.688430E-18	2.321047E-18
3.673849E+03	4.652464E-18	2.302746E-18
3.683752E+03	4.619247E-18	2.285810E-18
3.693654E+03	4.588663E-18	2.270181E-18
3.703557E+03	4.560627E-18	2.255817E-18
3.713460E+03	4.535148E-18	2.242721E-18
3.723362E+03	4.512104E-18	2.230832E-18
3.733265E+03	4.491464E-18	2.220133E-18
3.743167E+03	4.473230E-18	2.210626E-18
3.753070E+03	4.457330E-18	2.202273E-18
3.762972E+03	4.443724E-18	2.195054E-18
3.772875E+03	4.432382E-18	2.188955E-18
3.782777E+03	4.423267E-18	2.183954E-18
3.792680E+03	4.416381E-18	2.180054E-18
3.802583E+03	4.411651E-18	2.177217E-18
3.812485E+03	4.409083E-18	2.175445E-18
3.822388E+03	4.408675E-18	2.174737E-18
3.832290E+03	4.410357E-18	2.175057E-18
3.842193E+03	4.414096E-18	2.176388E-18
3.852095E+03	4.419926E-18	2.178747E-18
3.861998E+03	4.427818E-18	2.182118E-18
3.871900E+03	4.437696E-18	2.186464E-18
3.881803E+03	4.449603E-18	2.191804E-18
3.891706E+03	4.463534E-18	2.198136E-18
3.901608E+03	4.479389E-18	2.205409E-18
3.911511E+03	4.497204E-18	2.213640E-18
3.921413E+03	4.516977E-18	2.222828E-18
3.931316E+03	4.538679E-18	2.232958E-18
3.941218E+03	4.562235E-18	2.243992E-18
3.951121E+03	4.587724E-18	2.255968E-18
3.961024E+03	4.615073E-18	2.268850E-18
3.970926E+03	4.644247E-18	2.282620E-18
3.980829E+03	4.675288E-18	2.297298E-18
3.990731E+03	4.708124E-18	2.312846E-18
4.000634E+03	4.742794E-18	2.329285E-18
4.010536E+03	4.779191E-18	2.346561E-18
4.020439E+03	4.817394E-18	2.364711E-18
4.030341E+03	4.857332E-18	2.383700E-18
4.040244E+03	4.898968E-18	2.403510E-18
4.050147E+03	4.942352E-18	2.424164E-18
4.060049E+03	4.987366E-18	2.445603E-18
4.069952E+03	5.034100E-18	2.467871E-18
4.079854E+03	5.082441E-18	2.490912E-18
4.089757E+03	5.132395E-18	2.514729E-18
4.099659E+03	5.183973E-18	2.539324E-18
4.109562E+03	5.237096E-18	2.564660E-18
4.119464E+03	5.291777E-18	2.590742E-18
4.129367E+03	5.347985E-18	2.617555E-18
4.139270E+03	5.405644E-18	2.645059E-18
4.149172E+03	5.464805E-18	2.673280E-18
4.159075E+03	5.525351E-18	2.702160E-18
4.168977E+03	5.587339E-18	2.731726E-18
4.178880E+03	5.650648E-18	2.761917E-18
4.188782E+03	5.715285E-18	2.792738E-18
4.198685E+03	5.781221E-18	2.824173E-18
4.208587E+03	5.848325E-18	2.856157E-18
4.218490E+03	5.916659E-18	2.888720E-18
4.228393E+03	5.986136E-18	2.921819E-18
4.238295E+03	6.056672E-18	2.955413E-18
4.248198E+03	6.128179E-18	2.989458E-18
4.258100E+03	6.200663E-18	3.023957E-18
4.268003E+03	6.274080E-18	3.058887E-18
4.277905E+03	6.348241E-18	3.094155E-18
4.287808E+03	6.423190E-18	3.129784E-18
4.297711E+03	6.498724E-18	3.165674E-18
4.307613E+03	6.574898E-18	3.201850E-18
4.317516E+03	6.651541E-18	3.238230E-18
4.327418E+03	6.728653E-18	3.274813E-18
4.337321E+03	6.806223E-18	3.311593E-18
4.347223E+03	6.884252E-18	3.348571E-18
4.357126E+03	6.962731E-18	3.385742E-18
4.367028E+03	7.041712E-18	3.423131E-18
4.376931E+03	7.121254E-18	3.460766E-18
4.386834E+03	7.201355E-18	3.498646E-18
4.396736E+03	7.282079E-18	3.536802E-18
4.406639E+03	7.363373E-18	3.575207E-18
4.416541E+03	7.445362E-18	3.613923E-18
4.426444E+03	7.527998E-18	3.652924E-18
4.436346E+03	7.611288E-18	3.692214E-18
4.446249E+03	7.695244E-18	3.731800E-18
4.456151E+03	7.779885E-18	3.771688E-18
4.466054E+03	7.865230E-18	3.811889E-18
4.475957E+03	7.951290E-18	3.852407E-18
4.485859E+03	8.037958E-18	3.893190E-18
4.495762E+03	8.125388E-18	3.934312E-18
4.505664E+03	8.213471E-18	3.975719E-18
4.515567E+03	8.302228E-18	4.017422E-18
4.525469E+03	8.391618E-18	4.059400E-18
4.535372E+03	8.481745E-18	4.101702E-18
4.545274E+03	8.572573E-18	4.144311E-18
4.555177E+03	8.663987E-18	4.187172E-18
4.565080E+03	8.756178E-18	4.230375E-18
4.574982E+03	8.849041E-18	4.273870E-18
4.584885E+03	8.942539E-18	4.317638E-18
4.594787E+03	9.036805E-18	4.361742E-18
4.604690E+03	9.131892E-18	4.406208E-18
4.614592E+03	9.227622E-18	4.450950E-18
4.624495E+03	9.324213E-18	4.496072E-18
4.634398E+03	9.421661E-18	4.541571E-18
4.644300E+03	9.519949E-18	4.587439E-18
4.654203E+03	9.619154E-18	4.633712E-18
4.664105E+03	9.719273E-18	4.680389E-18
4.674008E+03	9.820390E-18	4.727508E-18
4.683910E+03	9.922328E-18	4.774984E-18
4.693813E+03	1.002517E-17	4.822858E-18
4.703715E+03	1.012902E-17	4.871176E-18
4.713618E+03	1.023360E-17	4.919802E-18
4.723521E+03	1.033908E-17	4.968827E-18
4.733423E+03	1.044539E-17	5.018207E-18
4.743326E+03	1.055242E-17	5.067894E-18
4.753228E+03	1.066038E-17	5.117984E-18
4.763131E+03	1.076897E-17	5.168333E-18
4.773033E+03	1.087849E-17	5.219086E-18
4.782936E+03	1.098863E-17	5.270094E-18
4.792838E+03	1.109960E-17	5.321458E-18
4.802741E+03	1.121119E-17	5.373075E-18
4.812644E+03	1.132361E-17	5.425040E-18
4.822546E+03	1.143663E-17	5.477250E-18
4.832449E+03	1.155034E-17	5.529749E-18
4.842351E+03	1.166474E-17	5.582531E-18
4.852254E+03	1.177971E-17	5.635533E-18
4.862156E+03	1.189520E-17	5.688745E-18
4.872059E+03	1.201120E-17	5.742149E-18
4.881961E+03	1.212779E-17	5.795788E-18
4.891864E+03	1.224469E-17	5.849528E-18
4.901767E+03	1.236211E-17	5.903464E-18
4.911669E+03	1.247974E-17	5.957452E-18
4.921572E+03	1.259764E-17	6.011525E-18
4.931474E+03	1.271564E-17	6.065588E-18
4.941377E+03	1.283364E-17	6.119605E-18
4.951279E+03	1.295156E-17	6.173534E-18
4.961182E+03	1.306943E-17	6.227388E-18
4.971085E+03	1.318690E-17	6.281000E-18
4.980987E+03	1.330397E-17	6.334371E-18
4.990890E+03	1.342039E-17	6.387382E-18
5.000792E+03	1.353616E-17	6.440028E-18
5.010695E+03	1.365098E-17	6.492177E-18
5.020597E+03	1.376458E-17	6.543689E-18
5.030500E+03	1.387691E-17	6.594549E-18
5.040402E+03	1.398779E-17	6.644671E-18
5.050305E+03	1.409690E-17	6.693899E-18
5.060208E+03	1.420389E-17	6.742073E-18
5.070110E+03	1.430883E-17	6.789225E-18
5.080013E+03	1.441123E-17	6.835121E-18
5.089915E+03	1.451085E-17	6.879653E-18
5.099818E+03	1.460746E-17	6.922708E-18
5.109720E+03	1.470081E-17	6.964176E-18
5.119623E+03	1.479052E-17	7.003871E-18
5.129525E+03	1.487648E-17	7.041747E-18
5.139428E+03	1.495814E-17	7.077545E-18
5.149331E+03	1.503540E-17	7.111218E-18
5.159233E+03	1.510770E-17	7.142511E-18
5.169136E+03	1.517510E-17	7.171446E-18
5.179038E+03	1.523706E-17	7.197772E-18
5.188941E+03	1.529349E-17	7.221452E-18
5.198843E+03	1.534385E-17	7.242240E-18
5.208746E+03	1.538810E-17	7.260110E-18
5.218648E+03	1.542604E-17	7.274975E-18
5.228551E+03	1.545719E-17	7.286614E-18
5.238454E+03	1.548140E-17	7.294959E-18
5.248356E+03	1.549869E-17	7.300025E-18
5.258259E+03	1.550882E-17	7.301701E-18
5.268161E+03	1.551157E-17	7.299886E-18
5.278064E+03	1.550690E-17	7.294573E-18
5.287966E+03	1.549483E-17	7.285767E-18
5.297869E+03	1.547540E-17	7.273499E-18
5.307772E+03	1.544856E-17	7.257742E-18
5.317674E+03	1.541459E-17	7.238638E-18
5.327577E+03	1.537351E-17	7.216201E-18
5.337479E+03	1.532571E-17	7.190615E-18
5.347382E+03	1.527130E-17	7.161939E-18
5.357284E+03	1.521090E-17	7.130467E-18
5.367187E+03	1.514503E-17	7.096444E-18
5.377089E+03	1.507392E-17	7.059984E-18
5.386992E+03	1.499847E-17	7.021509E-18
5.396895E+03	1.491913E-17	6.981239E-18
5.406797E+03	1.483583E-17	6.939134E-18
5.416700E+03	1.474953E-17	6.895655E-18
5.426602E+03	1.466051E-17	6.850927E-18
5.436505E+03	1.456903E-17	6.805084E-18
5.446407E+03	1.447558E-17	6.758343E-18
5.456310E+03	1.438047E-17	6.710859E-18
5.466212E+03	1.428404E-17	6.662788E-18
5.476115E+03	1.418692E-17	6.614429E-18
5.486018E+03	1.408946E-17	6.565945E-18
5.495920E+03	1.399242E-17	6.517689E-18
5.505823E+03	1.389643E-17	6.469951E-18
5.515725E+03	1.380193E-17	6.422937E-18
5.525628E+03	1.370963E-17	6.376982E-18
5.535530E+03	1.362008E-17	6.332336E-18
5.545433E+03	1.353381E-17	6.289242E-18
5.555335E+03	1.345144E-17	6.247990E-18
5.565238E+03	1.337344E-17	6.208791E-18
5.575141E+03	1.330022E-17	6.171839E-18
5.585043E+03	1.323232E-17	6.137378E-18
5.594946E+03	1.317010E-17	6.105570E-18
5.604848E+03	1.311403E-17	6.076626E-18
5.614751E+03	1.306439E-17	6.050681E-18
5.624653E+03	1.302144E-17	6.027848E-18
5.634556E+03	1.298557E-17	6.008300E-18
5.644459E+03	1.295698E-17	5.992124E-18
5.654361E+03	1.293585E-17	5.979401E-18
5.664264E+03	1.292247E-17	5.970264E-18
5.674166E+03	1.291699E-17	5.964768E-18
5.684069E+03	1.291966E-17	5.963029E-18
5.693971E+03	1.293044E-17	5.965024E-18
5.703874E+03	1.294971E-17	5.970918E-18
5.713776E+03	1.297740E-17	5.980674E-18
5.723679E+03	1.301358E-17	5.994319E-18
5.733582E+03	1.305858E-17	6.012002E-18
5.743484E+03	1.311218E-17	6.033612E-18
5.753387E+03	1.317470E-17	6.059293E-18
5.763289E+03	1.324619E-17	6.089054E-18
5.773192E+03	1.332667E-17	6.122910E-18
5.783094E+03	1.341605E-17	6.160801E-18
5.792997E+03	1.351462E-17	6.202866E-18
5.802899E+03	1.362228E-17	6.249042E-18
5.812802E+03	1.373918E-17	6.299396E-18
5.822705E+03	1.386535E-17	6.353934E-18
5.832607E+03	1.400064E-17	6.412577E-18
5.842510E+03	1.414518E-17	6.475388E-18
5.852412E+03	1.429915E-17	6.542431E-18
5.862315E+03	1.446219E-17	6.613544E-18
5.872217E+03	1.463444E-17	6.688775E-18
5.882120E+03	1.481585E-17	6.768100E-18
5.892022E+03	1.500652E-17	6.851559E-18
5.901925E+03	1.520604E-17	6.938954E-18
5.911828E+03	1.541465E-17	7.030391E-18
5.921730E+03	1.563188E-17	7.125651E-18
5.931633E+03	1.585778E-17	7.224739E-18
5.941535E+03	1.609216E-17	7.327576E-18
5.951438E+03	1.633465E-17	7.433978E-18
5.961340E+03	1.658522E-17	7.543927E-18
5.971243E+03	1.684323E-17	7.657126E-18
5.981146E+03	1.710878E-17	7.773616E-18
5.991048E+03	1.738095E-17	7.892976E-18
6.000951E+03	1.765980E-17	8.015222E-18
6.010853E+03	1.794454E-17	8.139992E-18
6.020756E+03	1.823494E-17	8.267181E-18
6.030658E+03	1.853013E-17	8.396390E-18
6.040561E+03	1.882963E-17	8.527392E-18
6.050463E+03	1.913269E-17	8.659849E-18
6.060366E+03	1.943876E-17	8.793508E-18
6.070269E+03	1.974680E-17	8.927898E-18
6.080171E+03	2.005597E-17	9.062635E-18
6.090074E+03	2.036564E-17	9.197431E-18
6.099976E+03	2.067491E-17	9.331888E-18
6.109879E+03	2.098237E-17	9.465364E-18
6.119781E+03	2.128734E-17	9.597555E-18
6.129684E+03	2.158887E-17	9.728034E-18
6.139586E+03	2.188628E-17	9.856502E-18
6.149489E+03	2.217921E-17	9.982791E-18
6.159392E+03	2.246731E-17	1.010675E-17
6.169294E+03	2.275058E-17	1.022839E-17
6.179197E+03	2.302970E-17	1.034802E-17
6.189099E+03	2.330454E-17	1.046557E-17
6.199002E+03	2.357474E-17	1.058089E-17
6.208904E+03	2.384119E-17	1.069439E-17
6.218807E+03	2.410399E-17	1.080612E-17
6.228709E+03	2.436262E-17	1.091583E-17
6.238612E+03	2.461821E-17	1.102405E-17
6.248515E+03	2.487000E-17	1.113043E-17
6.258417E+03	2.511895E-17	1.123540E-17
6.268320E+03	2.536467E-17	1.133881E-17
6.278222E+03	2.560753E-17	1.144079E-17
6.288125E+03	2.584756E-17	1.154139E-17
6.298027E+03	2.608480E-17	1.164062E-17
6.307930E+03	2.631933E-17	1.173851E-17
6.317833E+03	2.655088E-17	1.183494E-17
6.327735E+03	2.677913E-17	1.192978E-17
6.337638E+03	2.700457E-17	1.202325E-17
6.347540E+03	2.722652E-17	1.211504E-17
6.357443E+03	2.744545E-17	1.220537E-17
6.367345E+03	2.766108E-17	1.229412E-17
6.377248E+03	2.787350E-17	1.238132E-17
6.387150E+03	2.808322E-17	1.246721E-17
6.397053E+03	2.829121E-17	1.255221E-17
6.406956E+03	2.849762E-17	1.263641E-17
6.416858E+03	2.870304E-17	1.272005E-17
6.426761E+03	2.890809E-17	1.280342E-17
6.436663E+03	2.911251E-17	1.288640E-17
6.446566E+03	2.931739E-17	1.296946E-17
6.456468E+03	2.952292E-17	1.305271E-17
6.466371E+03	2.972885E-17	1.313602E-17
6.476273E+03	2.993629E-17	1.321988E-17
6.486176E+03	3.014498E-17	1.330419E-17
6.496079E+03	3.035464E-17	1.338881E-17
6.505981E+03	3.056640E-17	1.347424E-17
6.515884E+03	3.077996E-17	1.356035E-17
6.525786E+03	3.099550E-17	1.364721E-17
6.535689E+03	3.121367E-17	1.373512E-17
6.545591E+03	3.143363E-17	1.382369E-17
6.555494E+03	3.165550E-17	1.391298E-17
6.565396E+03	3.188045E-17	1.400351E-17
6.575299E+03	3.210757E-17	1.409487E-17
6.585202E+03	3.233694E-17	1.418709E-17
6.595104E+03	3.256921E-17	1.428047E-17
6.605007E+03	3.280391E-17	1.437478E-17
6.614909E+03	3.304113E-17	1.447007E-17
6.624812E+03	3.328148E-17	1.456660E-17
6.634714E+03	3.352389E-17	1.466391E-17
6.644617E+03	3.376837E-17	1.476199E-17
6.654520E+03	3.401611E-17	1.486137E-17
6.664422E+03	3.426595E-17	1.496153E-17
6.674325E+03	3.451790E-17	1.506248E-17
6.684227E+03	3.477253E-17	1.516447E-17
6.694130E+03	3.502923E-17	1.526722E-17
6.704032E+03	3.528795E-17	1.537072E-17
6.713935E+03	3.554865E-17	1.547495E-17
6.723837E+03	3.581127E-17	1.557987E-17
6.733740E+03	3.607510E-17	1.568519E-17
6.743643E+03	3.634071E-17	1.579114E-17
6.753545E+03	3.660802E-17	1.589769E-17
6.763448E+03	3.687627E-17	1.600451E-17
6.773350E+03	3.714604E-17	1.611185E-17
6.783253E+03	3.741653E-17	1.621938E-17
6.793155E+03	3.768764E-17	1.632702E-17
6.803058E+03	3.795923E-17	1.643474E-17
6.812960E+03	3.823045E-17	1.654217E-17
6.822863E+03	3.850261E-17	1.664986E-17
6.832766E+03	3.877486E-17	1.675745E-17
6.842668E+03	3.904632E-17	1.686457E-17
6.852571E+03	3.931759E-17	1.697147E-17
6.862473E+03	3.958778E-17	1.707777E-17
6.872376E+03	3.985673E-17	1.718341E-17
6.882278E+03	4.012507E-17	1.728865E-17
6.892181E+03	4.039189E-17	1.739310E-17
6.902083E+03	4.065706E-17	1.749672E-17
6.911986E+03	4.092043E-17	1.759944E-17
6.921889E+03	4.118189E-17	1.770122E-17
6.931791E+03	4.144051E-17	1.780165E-17
6.941694E+03	4.169779E-17	1.790139E-17
6.951596E+03	4.195201E-17	1.799969E-17
6.961499E+03	4.220307E-17	1.809653E-17
6.971401E+03	4.245172E-17	1.819222E-17
6.981304E+03	4.269705E-17	1.828638E-17
6.991207E+03	4.293900E-17	1.837898E-17
7.001109E+03	4.317751E-17	1.847001E-17
7.011012E+03	4.341257E-17	1.855946E-17
7.020914E+03	4.364501E-17	1.864769E-17
7.030817E+03	4.387311E-17	1.873398E-17
7.040719E+03	4.409684E-17	1.881830E-17
7.050622E+03	4.431709E-17	1.890106E-17
7.060524E+03	4.453391E-17	1.898227E-17
7.070427E+03	4.474649E-17	1.906158E-17
7.080330E+03	4.495570E-17	1.913939E-17
7.090232E+03	4.515981E-17	1.921495E-17
7.100135E+03	4.536074E-17	1.928908E-17
7.110037E+03	4.555760E-17	1.936142E-17
7.119940E+03	4.575051E-17	1.943201E-17
7.129842E+03	4.593854E-17	1.950047E-17
7.139745E+03	4.612373E-17	1.956767E-17
7.149647E+03	4.630424E-17	1.963283E-17
7.159550E+03	4.648105E-17	1.969637E-17
7.169453E+03	4.665336E-17	1.975796E-17
7.179355E+03	4.682218E-17	1.981803E-17
7.189258E+03	4.698656E-17	1.987618E-17
7.199160E+03	4.714662E-17	1.993246E-17
7.209063E+03	4.730342E-17	1.998734E-17
7.218965E+03	4.745596E-17	2.004039E-17
7.228868E+03	4.760540E-17	2.009211E-17
7.238770E+03	4.774971E-17	2.014164E-17
7.248673E+03	4.788999E-17	2.018945E-17
7.258576E+03	4.802731E-17	2.023601E-17
7.268478E+03	4.815964E-17	2.028045E-17
7.278381E+03	4.828813E-17	2.032327E-17
7.288283E+03	4.841174E-17	2.036404E-17
7.298186E+03	4.853162E-17	2.040324E-17
7.308088E+03	4.864678E-17	2.044045E-17
7.317991E+03	4.875732E-17	2.047575E-17
7.327894E+03	4.886328E-17	2.050913E-17
7.337796E+03	4.896366E-17	2.054019E-17
7.347699E+03	4.905863E-17	2.056900E-17
7.357601E+03	4.914815E-17	2.059556E-17
7.367504E+03	4.923250E-17	2.061998E-17
7.377406E+03	4.931273E-17	2.064271E-17
7.387309E+03	4.938798E-17	2.066340E-17
7.397211E+03	4.946059E-17	2.068303E-17
7.407114E+03	4.953062E-17	2.070162E-17
7.417017E+03	4.959831E-17	2.071929E-17
7.426919E+03	4.966374E-17	2.073607E-17
7.436822E+03	4.972712E-17	2.075205E-17
7.446724E+03	4.979078E-17	2.076819E-17
7.456627E+03	4.985247E-17	2.078359E-17
7.466529E+03	4.991337E-17	2.079871E-17
7.476432E+03	4.997353E-17	2.081359E-17
7.486334E+03	5.003409E-17	2.082870E-17
7.496237E+03	5.009271E-17	2.084306E-17
7.506140E+03	5.015063E-17	2.085719E-17
7.516042E+03	5.020774E-17	2.087105E-17
7.525945E+03	5.026518E-17	2.088511E-17
7.535847E+03	5.032058E-17	2.089838E-17
7.545750E+03	5.037632E-17	2.091186E-17
7.555652E+03	5.043110E-17	2.092500E-17
7.565555E+03	5.048372E-17	2.093732E-17
7.575457E+03	5.053643E-17	2.094973E-17
7.585360E+03	5.058804E-17	2.096175E-17
7.595263E+03	5.063845E-17	2.097334E-17
7.605165E+03	5.068760E-17	2.098447E-17
7.615068E+03	5.073540E-17	2.099511E-17
7.624970E+03	5.078170E-17	2.100519E-17
7.634873E+03	5.082771E-17	2.101522E-17
7.644775E+03	5.087077E-17	2.102410E-17
7.654678E+03	5.091329E-17	2.103282E-17
7.664581E+03	5.095392E-17	2.104083E-17
7.674483E+03	5.099247E-17	2.104805E-17
7.684386E+03	5.102884E-17	2.105443E-17
