#wls	flux	fluxerr
1.584409E+03	6.603868E-17	3.313825E-17
1.624020E+03	6.886966E-17	3.455415E-17
1.663630E+03	7.152596E-17	3.588172E-17
1.703240E+03	7.397567E-17	3.710495E-17
1.742850E+03	7.616242E-17	3.819558E-17
1.782461E+03	7.802153E-17	3.912119E-17
1.822071E+03	7.945179E-17	3.983111E-17
1.861681E+03	8.035163E-17	4.027450E-17
1.901291E+03	8.060709E-17	4.039438E-17
1.940902E+03	8.012189E-17	4.014270E-17
1.980512E+03	7.885276E-17	3.949801E-17
2.020122E+03	7.690839E-17	3.851503E-17
2.059732E+03	7.460487E-17	3.735226E-17
2.099342E+03	7.245392E-17	3.626601E-17
2.138953E+03	7.101552E-17	3.553646E-17
2.178563E+03	7.060705E-17	3.532211E-17
2.218173E+03	7.113432E-17	3.557541E-17
2.257783E+03	7.218160E-17	3.608809E-17
2.297394E+03	7.323398E-17	3.660252E-17
2.337004E+03	7.390441E-17	3.692528E-17
2.376614E+03	7.396458E-17	3.694252E-17
2.416224E+03	7.332810E-17	3.661139E-17
2.455835E+03	7.201188E-17	3.594072E-17
2.495445E+03	7.007540E-17	3.496060E-17
2.535055E+03	6.759730E-17	3.371062E-17
2.574665E+03	6.467315E-17	3.223880E-17
2.614276E+03	6.138615E-17	3.058694E-17
2.653886E+03	5.782263E-17	2.879834E-17
2.693496E+03	5.405752E-17	2.691055E-17
2.733106E+03	5.016848E-17	2.496246E-17
2.772716E+03	4.622232E-17	2.298745E-17
2.812327E+03	4.228493E-17	2.101842E-17
2.851937E+03	3.841758E-17	1.908588E-17
2.891547E+03	3.467593E-17	1.721752E-17
2.931157E+03	3.110891E-17	1.543760E-17
2.970768E+03	2.775700E-17	1.376615E-17
2.980670E+03	2.695618E-17	1.336698E-17
2.990573E+03	2.617140E-17	1.297586E-17
3.000475E+03	2.540225E-17	1.259260E-17
3.010378E+03	2.465006E-17	1.221785E-17
3.020280E+03	2.391438E-17	1.185138E-17
3.030183E+03	2.319532E-17	1.149324E-17
3.040086E+03	2.249326E-17	1.114363E-17
3.049988E+03	2.181003E-17	1.080344E-17
3.059891E+03	2.114546E-17	1.047258E-17
3.069793E+03	2.049993E-17	1.015124E-17
3.079696E+03	1.987257E-17	9.838999E-18
3.089598E+03	1.926339E-17	9.535839E-18
3.099501E+03	1.867199E-17	9.241569E-18
3.109403E+03	1.809802E-17	8.956011E-18
3.119306E+03	1.754115E-17	8.678999E-18
3.129209E+03	1.700141E-17	8.410539E-18
3.139111E+03	1.647816E-17	8.150313E-18
3.149014E+03	1.597141E-17	7.898331E-18
3.158916E+03	1.548088E-17	7.654438E-18
3.168819E+03	1.500626E-17	7.418489E-18
3.178721E+03	1.454753E-17	7.190464E-18
3.188624E+03	1.410388E-17	6.969963E-18
3.198526E+03	1.367576E-17	6.757207E-18
3.208429E+03	1.326218E-17	6.551694E-18
3.218332E+03	1.286351E-17	6.353613E-18
3.228234E+03	1.247900E-17	6.162591E-18
3.238137E+03	1.210858E-17	5.978582E-18
3.248039E+03	1.175192E-17	5.801426E-18
3.257942E+03	1.140853E-17	5.630881E-18
3.267844E+03	1.107847E-17	5.466966E-18
3.277747E+03	1.076107E-17	5.309349E-18
3.287650E+03	1.045603E-17	5.157882E-18
3.297552E+03	1.016335E-17	5.012561E-18
3.307455E+03	9.882401E-18	4.873077E-18
3.317357E+03	9.612888E-18	4.739275E-18
3.327260E+03	9.354512E-18	4.611008E-18
3.337162E+03	9.107095E-18	4.488185E-18
3.347065E+03	8.870077E-18	4.370528E-18
3.356967E+03	8.643179E-18	4.257896E-18
3.366870E+03	8.426227E-18	4.150202E-18
3.376773E+03	8.218825E-18	4.047247E-18
3.386675E+03	8.020689E-18	3.948890E-18
3.396578E+03	7.831348E-18	3.854897E-18
3.406480E+03	7.650650E-18	3.765190E-18
3.416383E+03	7.478339E-18	3.679641E-18
3.426285E+03	7.313985E-18	3.598036E-18
3.436188E+03	7.157359E-18	3.520262E-18
3.446090E+03	7.008154E-18	3.446163E-18
3.455993E+03	6.866239E-18	3.375676E-18
3.465896E+03	6.731165E-18	3.308575E-18
3.475798E+03	6.602816E-18	3.244803E-18
3.485701E+03	6.480856E-18	3.184193E-18
3.495603E+03	6.365039E-18	3.126622E-18
3.505506E+03	6.255134E-18	3.071975E-18
3.515408E+03	6.150850E-18	3.020108E-18
3.525311E+03	6.052052E-18	2.970951E-18
3.535213E+03	5.958408E-18	2.924342E-18
3.545116E+03	5.869740E-18	2.880191E-18
3.555019E+03	5.785938E-18	2.838443E-18
3.564921E+03	5.706772E-18	2.798983E-18
3.574824E+03	5.632082E-18	2.761732E-18
3.584726E+03	5.561670E-18	2.726591E-18
3.594629E+03	5.495341E-18	2.693463E-18
3.604531E+03	5.432960E-18	2.662282E-18
3.614434E+03	5.374302E-18	2.632935E-18
3.624337E+03	5.319302E-18	2.605390E-18
3.634239E+03	5.267750E-18	2.579543E-18
3.644142E+03	5.219544E-18	2.555342E-18
3.654044E+03	5.174631E-18	2.532761E-18
3.663947E+03	5.132822E-18	2.511705E-18
3.673849E+03	5.094021E-18	2.492128E-18
3.683752E+03	5.058235E-18	2.474031E-18
3.693654E+03	5.025327E-18	2.457347E-18
3.703557E+03	4.995213E-18	2.442034E-18
3.713460E+03	4.967898E-18	2.428093E-18
3.723362E+03	4.943252E-18	2.415459E-18
3.733265E+03	4.921237E-18	2.404114E-18
3.743167E+03	4.901856E-18	2.394057E-18
3.753070E+03	4.885030E-18	2.385249E-18
3.762972E+03	4.870717E-18	2.377670E-18
3.772875E+03	4.858878E-18	2.371298E-18
3.782777E+03	4.849478E-18	2.366116E-18
3.792680E+03	4.842516E-18	2.362123E-18
3.802583E+03	4.837914E-18	2.359280E-18
3.812485E+03	4.835674E-18	2.357586E-18
3.822388E+03	4.835801E-18	2.357044E-18
3.832290E+03	4.838207E-18	2.357609E-18
3.842193E+03	4.842864E-18	2.359267E-18
3.852095E+03	4.849805E-18	2.362034E-18
3.861998E+03	4.858994E-18	2.365891E-18
3.871900E+03	4.870356E-18	2.370800E-18
3.881803E+03	4.883925E-18	2.376778E-18
3.891706E+03	4.899706E-18	2.383825E-18
3.901608E+03	4.917578E-18	2.391883E-18
3.911511E+03	4.937585E-18	2.400970E-18
3.921413E+03	4.959722E-18	2.411086E-18
3.931316E+03	4.983954E-18	2.422211E-18
3.941218E+03	5.010198E-18	2.434304E-18
3.951121E+03	5.038534E-18	2.447403E-18
3.961024E+03	5.068881E-18	2.461468E-18
3.970926E+03	5.101201E-18	2.476481E-18
3.980829E+03	5.135534E-18	2.492458E-18
3.990731E+03	5.171797E-18	2.509360E-18
4.000634E+03	5.210030E-18	2.527205E-18
4.010536E+03	5.250111E-18	2.545932E-18
4.020439E+03	5.292124E-18	2.565582E-18
4.030341E+03	5.335987E-18	2.586114E-18
4.040244E+03	5.381658E-18	2.607507E-18
4.050147E+03	5.429180E-18	2.629781E-18
4.060049E+03	5.478426E-18	2.652874E-18
4.069952E+03	5.529488E-18	2.676829E-18
4.079854E+03	5.582236E-18	2.701582E-18
4.089757E+03	5.636678E-18	2.727137E-18
4.099659E+03	5.692816E-18	2.753494E-18
4.109562E+03	5.750562E-18	2.780610E-18
4.119464E+03	5.809930E-18	2.808489E-18
4.129367E+03	5.870873E-18	2.837110E-18
4.139270E+03	5.933308E-18	2.866432E-18
4.149172E+03	5.997293E-18	2.896480E-18
4.159075E+03	6.062692E-18	2.927189E-18
4.168977E+03	6.129560E-18	2.958586E-18
4.178880E+03	6.197769E-18	2.990607E-18
4.188782E+03	6.267319E-18	3.023251E-18
4.198685E+03	6.338178E-18	3.056503E-18
4.208587E+03	6.410201E-18	3.090292E-18
4.218490E+03	6.483450E-18	3.124646E-18
4.228393E+03	6.557838E-18	3.159525E-18
4.238295E+03	6.633263E-18	3.194878E-18
4.248198E+03	6.709634E-18	3.230660E-18
4.258100E+03	6.786955E-18	3.266873E-18
4.268003E+03	6.865184E-18	3.303496E-18
4.277905E+03	6.944106E-18	3.340426E-18
4.287808E+03	7.023787E-18	3.377693E-18
4.297711E+03	7.103998E-18	3.415188E-18
4.307613E+03	7.184803E-18	3.452939E-18
4.317516E+03	7.266023E-18	3.490862E-18
4.327418E+03	7.347664E-18	3.528959E-18
4.337321E+03	7.429721E-18	3.567226E-18
4.347223E+03	7.512194E-18	3.605665E-18
4.357126E+03	7.595083E-18	3.644273E-18
4.367028E+03	7.678450E-18	3.683082E-18
4.376931E+03	7.762363E-18	3.722123E-18
4.386834E+03	7.846828E-18	3.761398E-18
4.396736E+03	7.931920E-18	3.800943E-18
4.406639E+03	8.017578E-18	3.840729E-18
4.416541E+03	8.103955E-18	3.880829E-18
4.426444E+03	8.190996E-18	3.921215E-18
4.436346E+03	8.278717E-18	3.961895E-18
4.446249E+03	8.367139E-18	4.002879E-18
4.456151E+03	8.456283E-18	4.044177E-18
4.466054E+03	8.546178E-18	4.085800E-18
4.475957E+03	8.636844E-18	4.127760E-18
4.485859E+03	8.728161E-18	4.169997E-18
4.495762E+03	8.820307E-18	4.212596E-18
4.505664E+03	8.913170E-18	4.255504E-18
4.515567E+03	9.006773E-18	4.298730E-18
4.525469E+03	9.101077E-18	4.342256E-18
4.535372E+03	9.196197E-18	4.386136E-18
4.545274E+03	9.292096E-18	4.430350E-18
4.555177E+03	9.388654E-18	4.474844E-18
4.565080E+03	9.486082E-18	4.519714E-18
4.574982E+03	9.584263E-18	4.564906E-18
4.584885E+03	9.683163E-18	4.610403E-18
4.594787E+03	9.782919E-18	4.656270E-18
4.604690E+03	9.883603E-18	4.702538E-18
4.614592E+03	9.985000E-18	4.749107E-18
4.624495E+03	1.008737E-17	4.796099E-18
4.634398E+03	1.019069E-17	4.843501E-18
4.644300E+03	1.029495E-17	4.891310E-18
4.654203E+03	1.040022E-17	4.939561E-18
4.664105E+03	1.050652E-17	4.988252E-18
4.674008E+03	1.061392E-17	5.037427E-18
4.683910E+03	1.072223E-17	5.086991E-18
4.693813E+03	1.083155E-17	5.136989E-18
4.703715E+03	1.094198E-17	5.187470E-18
4.713618E+03	1.105322E-17	5.238287E-18
4.723521E+03	1.116547E-17	5.289540E-18
4.733423E+03	1.127864E-17	5.341182E-18
4.743326E+03	1.139262E-17	5.393159E-18
4.753228E+03	1.150762E-17	5.445575E-18
4.763131E+03	1.162333E-17	5.498277E-18
4.773033E+03	1.174008E-17	5.551420E-18
4.782936E+03	1.185753E-17	5.604847E-18
4.792838E+03	1.197591E-17	5.658664E-18
4.802741E+03	1.209499E-17	5.712760E-18
4.812644E+03	1.221499E-17	5.767242E-18
4.822546E+03	1.233568E-17	5.821995E-18
4.832449E+03	1.245716E-17	5.877071E-18
4.842351E+03	1.257942E-17	5.932462E-18
4.852254E+03	1.270232E-17	5.988103E-18
4.862156E+03	1.282585E-17	6.043984E-18
4.872059E+03	1.294997E-17	6.100089E-18
4.881961E+03	1.307478E-17	6.156463E-18
4.891864E+03	1.319998E-17	6.212970E-18
4.901767E+03	1.332580E-17	6.269706E-18
4.911669E+03	1.345191E-17	6.326526E-18
4.921572E+03	1.357839E-17	6.383464E-18
4.931474E+03	1.370505E-17	6.440424E-18
4.941377E+03	1.383180E-17	6.497371E-18
4.951279E+03	1.395854E-17	6.554259E-18
4.961182E+03	1.408534E-17	6.611111E-18
4.971085E+03	1.421180E-17	6.667745E-18
4.980987E+03	1.433793E-17	6.724168E-18
4.990890E+03	1.446348E-17	6.780255E-18
5.000792E+03	1.458843E-17	6.836005E-18
5.010695E+03	1.471249E-17	6.891278E-18
5.020597E+03	1.483535E-17	6.945929E-18
5.030500E+03	1.495697E-17	6.999939E-18
5.040402E+03	1.507716E-17	7.053219E-18
5.050305E+03	1.519556E-17	7.105605E-18
5.060208E+03	1.531182E-17	7.156928E-18
5.070110E+03	1.542599E-17	7.207219E-18
5.080013E+03	1.553754E-17	7.256229E-18
5.089915E+03	1.564622E-17	7.303840E-18
5.099818E+03	1.575176E-17	7.349933E-18
5.109720E+03	1.585390E-17	7.394384E-18
5.119623E+03	1.595222E-17	7.436996E-18
5.129525E+03	1.604658E-17	7.477712E-18
5.139428E+03	1.613639E-17	7.516257E-18
5.149331E+03	1.622152E-17	7.552571E-18
5.159233E+03	1.630136E-17	7.586374E-18
5.169136E+03	1.637594E-17	7.617687E-18
5.179038E+03	1.644467E-17	7.646233E-18
5.188941E+03	1.650743E-17	7.671959E-18
5.198843E+03	1.656362E-17	7.694597E-18
5.208746E+03	1.661316E-17	7.714109E-18
5.218648E+03	1.665582E-17	7.730389E-18
5.228551E+03	1.669104E-17	7.743188E-18
5.238454E+03	1.671863E-17	7.752420E-18
5.248356E+03	1.673859E-17	7.758089E-18
5.258259E+03	1.675062E-17	7.760062E-18
5.268161E+03	1.675445E-17	7.758219E-18
5.278064E+03	1.675003E-17	7.752539E-18
5.287966E+03	1.673732E-17	7.743014E-18
5.297869E+03	1.671637E-17	7.729665E-18
5.307772E+03	1.668707E-17	7.712457E-18
5.317674E+03	1.664973E-17	7.691529E-18
5.327577E+03	1.660435E-17	7.666892E-18
5.337479E+03	1.655133E-17	7.638739E-18
5.347382E+03	1.649082E-17	7.607133E-18
5.357284E+03	1.642346E-17	7.572387E-18
5.367187E+03	1.634984E-17	7.534766E-18
5.377089E+03	1.627022E-17	7.494403E-18
5.386992E+03	1.618559E-17	7.451757E-18
5.396895E+03	1.609648E-17	7.407075E-18
5.406797E+03	1.600284E-17	7.360331E-18
5.416700E+03	1.590576E-17	7.312035E-18
5.426602E+03	1.580556E-17	7.262342E-18
5.436505E+03	1.570262E-17	7.211418E-18
5.446407E+03	1.559748E-17	7.159519E-18
5.456310E+03	1.549055E-17	7.106834E-18
5.466212E+03	1.538226E-17	7.053560E-18
5.476115E+03	1.527334E-17	7.000036E-18
5.486018E+03	1.516423E-17	6.946462E-18
5.495920E+03	1.505581E-17	6.893242E-18
5.505823E+03	1.494879E-17	6.840702E-18
5.515725E+03	1.484371E-17	6.789086E-18
5.525628E+03	1.474138E-17	6.738767E-18
5.535530E+03	1.464245E-17	6.690032E-18
5.545433E+03	1.454749E-17	6.643149E-18
5.555335E+03	1.445722E-17	6.598438E-18
5.565238E+03	1.437215E-17	6.556131E-18
5.575141E+03	1.429276E-17	6.516440E-18
5.585043E+03	1.421961E-17	6.479622E-18
5.594946E+03	1.415310E-17	6.445851E-18
5.604848E+03	1.409371E-17	6.415341E-18
5.614751E+03	1.404175E-17	6.388226E-18
5.624653E+03	1.399748E-17	6.364621E-18
5.634556E+03	1.396126E-17	6.344685E-18
5.644459E+03	1.393328E-17	6.328500E-18
5.654361E+03	1.391371E-17	6.316132E-18
5.664264E+03	1.390281E-17	6.307699E-18
5.674166E+03	1.390070E-17	6.303241E-18
5.684069E+03	1.390759E-17	6.302854E-18
5.693971E+03	1.392342E-17	6.306497E-18
5.703874E+03	1.394851E-17	6.314316E-18
5.713776E+03	1.398277E-17	6.326255E-18
5.723679E+03	1.402621E-17	6.342317E-18
5.733582E+03	1.407915E-17	6.362642E-18
5.743484E+03	1.414131E-17	6.387088E-18
5.753387E+03	1.421300E-17	6.415794E-18
5.763289E+03	1.429422E-17	6.448751E-18
5.773192E+03	1.438499E-17	6.485960E-18
5.783094E+03	1.448515E-17	6.527340E-18
5.792997E+03	1.459502E-17	6.573026E-18
5.802899E+03	1.471443E-17	6.622942E-18
5.812802E+03	1.484355E-17	6.677150E-18
5.822705E+03	1.498237E-17	6.735637E-18
5.832607E+03	1.513072E-17	6.798319E-18
5.842510E+03	1.528873E-17	6.865252E-18
5.852412E+03	1.545657E-17	6.936495E-18
5.862315E+03	1.563384E-17	7.011871E-18
5.872217E+03	1.582068E-17	7.091424E-18
5.882120E+03	1.601701E-17	7.175122E-18
5.892022E+03	1.622295E-17	7.263001E-18
5.901925E+03	1.643804E-17	7.354849E-18
5.911828E+03	1.666253E-17	7.450774E-18
5.921730E+03	1.689591E-17	7.550535E-18
5.931633E+03	1.713820E-17	7.654139E-18
5.941535E+03	1.738923E-17	7.761497E-18
5.951438E+03	1.764859E-17	7.872419E-18
5.961340E+03	1.791622E-17	7.986878E-18
5.971243E+03	1.819146E-17	8.104561E-18
5.981146E+03	1.847441E-17	8.225516E-18
5.991048E+03	1.876410E-17	8.349300E-18
6.000951E+03	1.906060E-17	8.475939E-18
6.010853E+03	1.936306E-17	8.605048E-18
6.020756E+03	1.967127E-17	8.736532E-18
6.030658E+03	1.998432E-17	8.869977E-18
6.040561E+03	2.030170E-17	9.005154E-18
6.050463E+03	2.062265E-17	9.141723E-18
6.060366E+03	2.094661E-17	9.279429E-18
6.070269E+03	2.127249E-17	9.417793E-18
6.080171E+03	2.159943E-17	9.556429E-18
6.090074E+03	2.192680E-17	9.695055E-18
6.099976E+03	2.225367E-17	9.833266E-18
6.109879E+03	2.257859E-17	9.970413E-18
6.119781E+03	2.290084E-17	1.010619E-17
6.129684E+03	2.321947E-17	1.024016E-17
6.139586E+03	2.353377E-17	1.037204E-17
6.149489E+03	2.384338E-17	1.050166E-17
6.159392E+03	2.414796E-17	1.062887E-17
6.169294E+03	2.444753E-17	1.075369E-17
6.179197E+03	2.474283E-17	1.087645E-17
6.189099E+03	2.503374E-17	1.099710E-17
6.199002E+03	2.531986E-17	1.111547E-17
6.208904E+03	2.560219E-17	1.123200E-17
6.218807E+03	2.588081E-17	1.134672E-17
6.228709E+03	2.615517E-17	1.145941E-17
6.238612E+03	2.642648E-17	1.157059E-17
6.248515E+03	2.669394E-17	1.167992E-17
6.258417E+03	2.695855E-17	1.178783E-17
6.268320E+03	2.721993E-17	1.189417E-17
6.278222E+03	2.747843E-17	1.199909E-17
6.288125E+03	2.773410E-17	1.210260E-17
6.298027E+03	2.798697E-17	1.220474E-17
6.307930E+03	2.823714E-17	1.230554E-17
6.317833E+03	2.848428E-17	1.240486E-17
6.327735E+03	2.872808E-17	1.250257E-17
6.337638E+03	2.896901E-17	1.259888E-17
6.347540E+03	2.920637E-17	1.269348E-17
6.357443E+03	2.944066E-17	1.278659E-17
6.367345E+03	2.967155E-17	1.287808E-17
6.377248E+03	2.989913E-17	1.296799E-17
6.387150E+03	3.012396E-17	1.305656E-17
6.397053E+03	3.034706E-17	1.314423E-17
6.406956E+03	3.056858E-17	1.323107E-17
6.416858E+03	3.078916E-17	1.331737E-17
6.426761E+03	3.100945E-17	1.340339E-17
6.436663E+03	3.122918E-17	1.348903E-17
6.446566E+03	3.144949E-17	1.357478E-17
6.456468E+03	3.167060E-17	1.366073E-17
6.466371E+03	3.189223E-17	1.374676E-17
6.476273E+03	3.211558E-17	1.383339E-17
6.486176E+03	3.234036E-17	1.392049E-17
6.496079E+03	3.256626E-17	1.400792E-17
6.505981E+03	3.279450E-17	1.409622E-17
6.515884E+03	3.302475E-17	1.418522E-17
6.525786E+03	3.325719E-17	1.427502E-17
6.535689E+03	3.349254E-17	1.436592E-17
6.545591E+03	3.372987E-17	1.445751E-17
6.555494E+03	3.396931E-17	1.454986E-17
6.565396E+03	3.421212E-17	1.464349E-17
6.575299E+03	3.445730E-17	1.473797E-17
6.585202E+03	3.470493E-17	1.483335E-17
6.595104E+03	3.495570E-17	1.492991E-17
6.605007E+03	3.520910E-17	1.502744E-17
6.614909E+03	3.546519E-17	1.512594E-17
6.624812E+03	3.572463E-17	1.522571E-17
6.634714E+03	3.598624E-17	1.532624E-17
6.644617E+03	3.625002E-17	1.542753E-17
6.654520E+03	3.651723E-17	1.553011E-17
6.664422E+03	3.678660E-17	1.563344E-17
6.674325E+03	3.705809E-17	1.573750E-17
6.684227E+03	3.733232E-17	1.584255E-17
6.694130E+03	3.760859E-17	1.594829E-17
6.704032E+03	3.788682E-17	1.605469E-17
6.713935E+03	3.816694E-17	1.616171E-17
6.723837E+03	3.844886E-17	1.626932E-17
6.733740E+03	3.873178E-17	1.637718E-17
6.743643E+03	3.901628E-17	1.648554E-17
6.753545E+03	3.930224E-17	1.659433E-17
6.763448E+03	3.958883E-17	1.670321E-17
6.773350E+03	3.987662E-17	1.681243E-17
6.783253E+03	4.016476E-17	1.692161E-17
6.793155E+03	4.045306E-17	1.703069E-17
6.803058E+03	4.074139E-17	1.713960E-17
6.812960E+03	4.102881E-17	1.724796E-17
6.822863E+03	4.131667E-17	1.735633E-17
6.832766E+03	4.160405E-17	1.746433E-17
6.842668E+03	4.189001E-17	1.757156E-17
6.852571E+03	4.217515E-17	1.767828E-17
6.862473E+03	4.245851E-17	1.778409E-17
6.872376E+03	4.273992E-17	1.788891E-17
6.882278E+03	4.302002E-17	1.799303E-17
6.892181E+03	4.329784E-17	1.809603E-17
6.902083E+03	4.357323E-17	1.819786E-17
6.911986E+03	4.384604E-17	1.829845E-17
6.921889E+03	4.411613E-17	1.839776E-17
6.931791E+03	4.438253E-17	1.849538E-17
6.941694E+03	4.464685E-17	1.859199E-17
6.951596E+03	4.490724E-17	1.868682E-17
6.961499E+03	4.516362E-17	1.877984E-17
6.971401E+03	4.541679E-17	1.887139E-17
6.981304E+03	4.566580E-17	1.896108E-17
6.991207E+03	4.591061E-17	1.904890E-17
7.001109E+03	4.615120E-17	1.913484E-17
7.011012E+03	4.638755E-17	1.921891E-17
7.020914E+03	4.662060E-17	1.930150E-17
7.030817E+03	4.684854E-17	1.938185E-17
7.040719E+03	4.707138E-17	1.946000E-17
7.050622E+03	4.729013E-17	1.953635E-17
7.060524E+03	4.750488E-17	1.961094E-17
7.070427E+03	4.771475E-17	1.968344E-17
7.080330E+03	4.792082E-17	1.975427E-17
7.090232E+03	4.812124E-17	1.982270E-17
7.100135E+03	4.831811E-17	1.988957E-17
7.110037E+03	4.851056E-17	1.995456E-17
7.119940E+03	4.869873E-17	2.001771E-17
7.129842E+03	4.888175E-17	2.007868E-17
7.139745E+03	4.906176E-17	2.013836E-17
7.149647E+03	4.923689E-17	2.019597E-17
7.159550E+03	4.940826E-17	2.025199E-17
7.169453E+03	4.957499E-17	2.030606E-17
7.179355E+03	4.973820E-17	2.035864E-17
7.189258E+03	4.989692E-17	2.040935E-17
7.199160E+03	5.005133E-17	2.045826E-17
7.209063E+03	5.020251E-17	2.050582E-17
7.218965E+03	5.034951E-17	2.055165E-17
7.228868E+03	5.049341E-17	2.059619E-17
7.238770E+03	5.063216E-17	2.063861E-17
7.248673E+03	5.076683E-17	2.067936E-17
7.258576E+03	5.089862E-17	2.071893E-17
7.268478E+03	5.102536E-17	2.075644E-17
7.278381E+03	5.114819E-17	2.079237E-17
7.288283E+03	5.126605E-17	2.082628E-17
7.298186E+03	5.138013E-17	2.085867E-17
7.308088E+03	5.148930E-17	2.088908E-17
7.317991E+03	5.159371E-17	2.091758E-17
7.327894E+03	5.169333E-17	2.094417E-17
7.337796E+03	5.178726E-17	2.096849E-17
7.347699E+03	5.187546E-17	2.099053E-17
7.357601E+03	5.195814E-17	2.101037E-17
7.367504E+03	5.203541E-17	2.102807E-17
7.377406E+03	5.210858E-17	2.104418E-17
7.387309E+03	5.217667E-17	2.105829E-17
7.397211E+03	5.224216E-17	2.107142E-17
7.407114E+03	5.230533E-17	2.108368E-17
7.417017E+03	5.236634E-17	2.109513E-17
7.426919E+03	5.242542E-17	2.110589E-17
7.436822E+03	5.248263E-17	2.111598E-17
7.446724E+03	5.254061E-17	2.112645E-17
7.456627E+03	5.259686E-17	2.113631E-17
7.466529E+03	5.265271E-17	2.114610E-17
7.476432E+03	5.270809E-17	2.115578E-17
7.486334E+03	5.276412E-17	2.116581E-17
7.496237E+03	5.281836E-17	2.117520E-17
7.506140E+03	5.287198E-17	2.118443E-17
7.516042E+03	5.292491E-17	2.119347E-17
7.525945E+03	5.297833E-17	2.120279E-17
7.535847E+03	5.302969E-17	2.121136E-17
7.545750E+03	5.308142E-17	2.122017E-17
7.555652E+03	5.313221E-17	2.122869E-17
7.565555E+03	5.318075E-17	2.123640E-17
7.575457E+03	5.322945E-17	2.124425E-17
7.585360E+03	5.327709E-17	2.125177E-17
7.595263E+03	5.332350E-17	2.125888E-17
7.605165E+03	5.336872E-17	2.126560E-17
7.615068E+03	5.341259E-17	2.127187E-17
7.624970E+03	5.345506E-17	2.127767E-17
7.634873E+03	5.349737E-17	2.128349E-17
7.644775E+03	5.353681E-17	2.128825E-17
7.654678E+03	5.357587E-17	2.129296E-17
7.664581E+03	5.361319E-17	2.129706E-17
7.674483E+03	5.364867E-17	2.130051E-17
7.684386E+03	5.368207E-17	2.130323E-17
