#wls	flux	fluxerr
1.584409E+03	1.333875E-16	3.096351E-17
1.624020E+03	1.388632E-16	3.218093E-17
1.663630E+03	1.440510E-16	3.332621E-17
1.703240E+03	1.489318E-16	3.439519E-17
1.742850E+03	1.534106E-16	3.536613E-17
1.782461E+03	1.573600E-16	3.621008E-17
1.822071E+03	1.606169E-16	3.689015E-17
1.861681E+03	1.629585E-16	3.735600E-17
1.901291E+03	1.641574E-16	3.755676E-17
1.940902E+03	1.640124E-16	3.744794E-17
1.980512E+03	1.624200E-16	3.700782E-17
2.020122E+03	1.595903E-16	3.628626E-17
2.059732E+03	1.561206E-16	3.542060E-17
2.099342E+03	1.530737E-16	3.465245E-17
2.138953E+03	1.516641E-16	3.425558E-17
2.178563E+03	1.526405E-16	3.439620E-17
2.218173E+03	1.558827E-16	3.504350E-17
2.257783E+03	1.605996E-16	3.601629E-17
2.297394E+03	1.657021E-16	3.706833E-17
2.337004E+03	1.703084E-16	3.800204E-17
2.376614E+03	1.738596E-16	3.869371E-17
2.416224E+03	1.760926E-16	3.908660E-17
2.455835E+03	1.769560E-16	3.917157E-17
2.495445E+03	1.764837E-16	3.895857E-17
2.535055E+03	1.747963E-16	3.847656E-17
2.574665E+03	1.720009E-16	3.775139E-17
2.614276E+03	1.682192E-16	3.681189E-17
2.653886E+03	1.635614E-16	3.568418E-17
2.693496E+03	1.581434E-16	3.439532E-17
2.733106E+03	1.520693E-16	3.296966E-17
2.772716E+03	1.454400E-16	3.143055E-17
2.812327E+03	1.383667E-16	2.980333E-17
2.851937E+03	1.309550E-16	2.811191E-17
2.891547E+03	1.233188E-16	2.638165E-17
2.931157E+03	1.155711E-16	2.463742E-17
2.970768E+03	1.078212E-16	2.290300E-17
2.980670E+03	1.058949E-16	2.247342E-17
2.990573E+03	1.039767E-16	2.204620E-17
3.000475E+03	1.020676E-16	2.162156E-17
3.010378E+03	1.001708E-16	2.120021E-17
3.020280E+03	9.828533E-17	2.078190E-17
3.030183E+03	9.641212E-17	2.036685E-17
3.040086E+03	9.455756E-17	1.995640E-17
3.049988E+03	9.272216E-17	1.955064E-17
3.059891E+03	9.091408E-17	1.915130E-17
3.069793E+03	8.913074E-17	1.875782E-17
3.079696E+03	8.737152E-17	1.837005E-17
3.089598E+03	8.563952E-17	1.798863E-17
3.099501E+03	8.393112E-17	1.761280E-17
3.109403E+03	8.224791E-17	1.724288E-17
3.119306E+03	8.059000E-17	1.687888E-17
3.129209E+03	7.895928E-17	1.652118E-17
3.139111E+03	7.735460E-17	1.616953E-17
3.149014E+03	7.577779E-17	1.582430E-17
3.158916E+03	7.422945E-17	1.548561E-17
3.168819E+03	7.270886E-17	1.515327E-17
3.178721E+03	7.121814E-17	1.482774E-17
3.188624E+03	6.975918E-17	1.450938E-17
3.198526E+03	6.833029E-17	1.419782E-17
3.208429E+03	6.693459E-17	1.389371E-17
3.218332E+03	6.557053E-17	1.359669E-17
3.228234E+03	6.424211E-17	1.330758E-17
3.238137E+03	6.294667E-17	1.302581E-17
3.248039E+03	6.168593E-17	1.275172E-17
3.257942E+03	6.046136E-17	1.248560E-17
3.267844E+03	5.927239E-17	1.222729E-17
3.277747E+03	5.812028E-17	1.197706E-17
3.287650E+03	5.700351E-17	1.173455E-17
3.297552E+03	5.592321E-17	1.149998E-17
3.307455E+03	5.487953E-17	1.127337E-17
3.317357E+03	5.387252E-17	1.105470E-17
3.327260E+03	5.290219E-17	1.084394E-17
3.337162E+03	5.196772E-17	1.064092E-17
3.347065E+03	5.106908E-17	1.044560E-17
3.356967E+03	5.020613E-17	1.025794E-17
3.366870E+03	4.937872E-17	1.007787E-17
3.376773E+03	4.858598E-17	9.905207E-18
3.386675E+03	4.782770E-17	9.739882E-18
3.396578E+03	4.710367E-17	9.581828E-18
3.406480E+03	4.641299E-17	9.430843E-18
3.416383E+03	4.575541E-17	9.286855E-18
3.426285E+03	4.513065E-17	9.149788E-18
3.436188E+03	4.453727E-17	9.019328E-18
3.446090E+03	4.397558E-17	8.895518E-18
3.455993E+03	4.344474E-17	8.778166E-18
3.465896E+03	4.294393E-17	8.667091E-18
3.475798E+03	4.247290E-17	8.562218E-18
3.485701E+03	4.203037E-17	8.463272E-18
3.495603E+03	4.161611E-17	8.370188E-18
3.505506E+03	4.122940E-17	8.282803E-18
3.515408E+03	4.086955E-17	8.200962E-18
3.525311E+03	4.053591E-17	8.124513E-18
3.535213E+03	4.022784E-17	8.053312E-18
3.545116E+03	3.994429E-17	7.987132E-18
3.555019E+03	3.968512E-17	7.925930E-18
3.564921E+03	3.944935E-17	7.869491E-18
3.574824E+03	3.923687E-17	7.817780E-18
3.584726E+03	3.904634E-17	7.770511E-18
3.594629E+03	3.887808E-17	7.727737E-18
3.604531E+03	3.873044E-17	7.689109E-18
3.614434E+03	3.860336E-17	7.654607E-18
3.624337E+03	3.849604E-17	7.624055E-18
3.634239E+03	3.840846E-17	7.597435E-18
3.644142E+03	3.833946E-17	7.574503E-18
3.654044E+03	3.828904E-17	7.555249E-18
3.663947E+03	3.825644E-17	7.539510E-18
3.673849E+03	3.824168E-17	7.527273E-18
3.683752E+03	3.824402E-17	7.518384E-18
3.693654E+03	3.826382E-17	7.512898E-18
3.703557E+03	3.830000E-17	7.510593E-18
3.713460E+03	3.835289E-17	7.511522E-18
3.723362E+03	3.842213E-17	7.515602E-18
3.733265E+03	3.850769E-17	7.522813E-18
3.743167E+03	3.860918E-17	7.533069E-18
3.753070E+03	3.872690E-17	7.546418E-18
3.762972E+03	3.886010E-17	7.562699E-18
3.772875E+03	3.900906E-17	7.581957E-18
3.782777E+03	3.917372E-17	7.604168E-18
3.792680E+03	3.935398E-17	7.629301E-18
3.802583E+03	3.954976E-17	7.657329E-18
3.812485E+03	3.976060E-17	7.688153E-18
3.822388E+03	3.998709E-17	7.721872E-18
3.832290E+03	4.022911E-17	7.758453E-18
3.842193E+03	4.048617E-17	7.797790E-18
3.852095E+03	4.075848E-17	7.839911E-18
3.861998E+03	4.104587E-17	7.884773E-18
3.871900E+03	4.134852E-17	7.932399E-18
3.881803E+03	4.166589E-17	7.982673E-18
3.891706E+03	4.199849E-17	8.035683E-18
3.901608E+03	4.234574E-17	8.091306E-18
3.911511E+03	4.270813E-17	8.149622E-18
3.921413E+03	4.308504E-17	8.210503E-18
3.931316E+03	4.347618E-17	8.273883E-18
3.941218E+03	4.388199E-17	8.339834E-18
3.951121E+03	4.430178E-17	8.408215E-18
3.961024E+03	4.473557E-17	8.479018E-18
3.970926E+03	4.518300E-17	8.552164E-18
3.980829E+03	4.564405E-17	8.627637E-18
3.990731E+03	4.611828E-17	8.705348E-18
4.000634E+03	4.660524E-17	8.785200E-18
4.010536E+03	4.710485E-17	8.867165E-18
4.020439E+03	4.761698E-17	8.951213E-18
4.030341E+03	4.814029E-17	9.037081E-18
4.040244E+03	4.867539E-17	9.124874E-18
4.050147E+03	4.922085E-17	9.214319E-18
4.060049E+03	4.977682E-17	9.305431E-18
4.069952E+03	5.034217E-17	9.397997E-18
4.079854E+03	5.091656E-17	9.491941E-18
4.089757E+03	5.149918E-17	9.587109E-18
4.099659E+03	5.208916E-17	9.683333E-18
4.109562E+03	5.268558E-17	9.780434E-18
4.119464E+03	5.328744E-17	9.878224E-18
4.129367E+03	5.389412E-17	9.976587E-18
4.139270E+03	5.450452E-17	1.007531E-17
4.149172E+03	5.511701E-17	1.017410E-17
4.159075E+03	5.573032E-17	1.027271E-17
4.168977E+03	5.634310E-17	1.037090E-17
4.178880E+03	5.695442E-17	1.046849E-17
4.188782E+03	5.756233E-17	1.056514E-17
4.198685E+03	5.816530E-17	1.066056E-17
4.208587E+03	5.876122E-17	1.075438E-17
4.218490E+03	5.934890E-17	1.084637E-17
4.228393E+03	5.992613E-17	1.093616E-17
4.238295E+03	6.049112E-17	1.102341E-17
4.248198E+03	6.104204E-17	1.110781E-17
4.258100E+03	6.157606E-17	1.118885E-17
4.268003E+03	6.209231E-17	1.126640E-17
4.277905E+03	6.258792E-17	1.133994E-17
4.287808E+03	6.306106E-17	1.140916E-17
4.297711E+03	6.350941E-17	1.147367E-17
4.307613E+03	6.393233E-17	1.153336E-17
4.317516E+03	6.432663E-17	1.158769E-17
4.327418E+03	6.469195E-17	1.163661E-17
4.337321E+03	6.502708E-17	1.167994E-17
4.347223E+03	6.533168E-17	1.171763E-17
4.357126E+03	6.560635E-17	1.174981E-17
4.367028E+03	6.585157E-17	1.177660E-17
4.376931E+03	6.606927E-17	1.179837E-17
4.386834E+03	6.625941E-17	1.181513E-17
4.396736E+03	6.642440E-17	1.182734E-17
4.406639E+03	6.656515E-17	1.183517E-17
4.416541E+03	6.668326E-17	1.183893E-17
4.426444E+03	6.678164E-17	1.183914E-17
4.436346E+03	6.686034E-17	1.183585E-17
4.446249E+03	6.692297E-17	1.182969E-17
4.456151E+03	6.696970E-17	1.182071E-17
4.466054E+03	6.700364E-17	1.180947E-17
4.475957E+03	6.702611E-17	1.179621E-17
4.485859E+03	6.703903E-17	1.178127E-17
4.495762E+03	6.704432E-17	1.176500E-17
4.505664E+03	6.704261E-17	1.174752E-17
4.515567E+03	6.703693E-17	1.172936E-17
4.525469E+03	6.702784E-17	1.171062E-17
4.535372E+03	6.701703E-17	1.169160E-17
4.545274E+03	6.700614E-17	1.167258E-17
4.555177E+03	6.699675E-17	1.165384E-17
4.565080E+03	6.698977E-17	1.163554E-17
4.574982E+03	6.698599E-17	1.161780E-17
4.584885E+03	6.698681E-17	1.160088E-17
4.594787E+03	6.699351E-17	1.158498E-17
4.604690E+03	6.700735E-17	1.157032E-17
4.614592E+03	6.702826E-17	1.155688E-17
4.624495E+03	6.705800E-17	1.154495E-17
4.634398E+03	6.709698E-17	1.153462E-17
4.644300E+03	6.714562E-17	1.152592E-17
4.654203E+03	6.720487E-17	1.151903E-17
4.664105E+03	6.727501E-17	1.151399E-17
4.674008E+03	6.735630E-17	1.151082E-17
4.683910E+03	6.744889E-17	1.150954E-17
4.693813E+03	6.755291E-17	1.151017E-17
4.703715E+03	6.766845E-17	1.151272E-17
4.713618E+03	6.779551E-17	1.151717E-17
4.723521E+03	6.793407E-17	1.152351E-17
4.733423E+03	6.808339E-17	1.153161E-17
4.743326E+03	6.824400E-17	1.154155E-17
4.753228E+03	6.841439E-17	1.155307E-17
4.763131E+03	6.859566E-17	1.156634E-17
4.773033E+03	6.878620E-17	1.158109E-17
4.782936E+03	6.898632E-17	1.159735E-17
4.792838E+03	6.919567E-17	1.161507E-17
4.802741E+03	6.941249E-17	1.163394E-17
4.812644E+03	6.963767E-17	1.165409E-17
4.822546E+03	6.987005E-17	1.167535E-17
4.832449E+03	7.010980E-17	1.169772E-17
4.842351E+03	7.035434E-17	1.172077E-17
4.852254E+03	7.060519E-17	1.174475E-17
4.862156E+03	7.086042E-17	1.176933E-17
4.872059E+03	7.112013E-17	1.179454E-17
4.881961E+03	7.138309E-17	1.182015E-17
4.891864E+03	7.164941E-17	1.184619E-17
4.901767E+03	7.191711E-17	1.187233E-17
4.911669E+03	7.218634E-17	1.189859E-17
4.921572E+03	7.245725E-17	1.192499E-17
4.931474E+03	7.272788E-17	1.195121E-17
4.941377E+03	7.299766E-17	1.197717E-17
4.951279E+03	7.326681E-17	1.200288E-17
4.961182E+03	7.353480E-17	1.202828E-17
4.971085E+03	7.379966E-17	1.205304E-17
4.980987E+03	7.406160E-17	1.207719E-17
4.990890E+03	7.432011E-17	1.210066E-17
5.000792E+03	7.457468E-17	1.212336E-17
5.010695E+03	7.482404E-17	1.214509E-17
5.020597E+03	7.506763E-17	1.216577E-17
5.030500E+03	7.530565E-17	1.218544E-17
5.040402E+03	7.553601E-17	1.220375E-17
5.050305E+03	7.575881E-17	1.222074E-17
5.060208E+03	7.597267E-17	1.223619E-17
5.070110E+03	7.617689E-17	1.224998E-17
5.080013E+03	7.637069E-17	1.226202E-17
5.089915E+03	7.655333E-17	1.227217E-17
5.099818E+03	7.672315E-17	1.228019E-17
5.109720E+03	7.688004E-17	1.228608E-17
5.119623E+03	7.702151E-17	1.228944E-17
5.129525E+03	7.714729E-17	1.229024E-17
5.139428E+03	7.725555E-17	1.228821E-17
5.149331E+03	7.734515E-17	1.228317E-17
5.159233E+03	7.741489E-17	1.227496E-17
5.169136E+03	7.746355E-17	1.226339E-17
5.179038E+03	7.748831E-17	1.224804E-17
5.188941E+03	7.748938E-17	1.222895E-17
5.198843E+03	7.746314E-17	1.220559E-17
5.208746E+03	7.740980E-17	1.217799E-17
5.218648E+03	7.732650E-17	1.214573E-17
5.228551E+03	7.721273E-17	1.210877E-17
5.238454E+03	7.706649E-17	1.206680E-17
5.248356E+03	7.688590E-17	1.201955E-17
5.258259E+03	7.667067E-17	1.196702E-17
5.268161E+03	7.641842E-17	1.190885E-17
5.278064E+03	7.612917E-17	1.184507E-17
5.287966E+03	7.580169E-17	1.177553E-17
5.297869E+03	7.543494E-17	1.170009E-17
5.307772E+03	7.502894E-17	1.161878E-17
5.317674E+03	7.458398E-17	1.153168E-17
5.327577E+03	7.410069E-17	1.143892E-17
5.337479E+03	7.357855E-17	1.134043E-17
5.347382E+03	7.301965E-17	1.123659E-17
5.357284E+03	7.242495E-17	1.112755E-17
5.367187E+03	7.179726E-17	1.101377E-17
5.377089E+03	7.113757E-17	1.089544E-17
5.386992E+03	7.045083E-17	1.077333E-17
5.396895E+03	6.974076E-17	1.064803E-17
5.406797E+03	6.901488E-17	1.052070E-17
5.416700E+03	6.827524E-17	1.039167E-17
5.426602E+03	6.752080E-17	1.026079E-17
5.436505E+03	6.675213E-17	1.012815E-17
5.446407E+03	6.597201E-17	9.994177E-18
5.456310E+03	6.518590E-17	9.859712E-18
5.466212E+03	6.439596E-17	9.725080E-18
5.476115E+03	6.360826E-17	9.591198E-18
5.486018E+03	6.282559E-17	9.458479E-18
5.495920E+03	6.205259E-17	9.327620E-18
5.505823E+03	6.129382E-17	9.199293E-18
5.515725E+03	6.055364E-17	9.074142E-18
5.525628E+03	5.983504E-17	8.952597E-18
5.535530E+03	5.914198E-17	8.835238E-18
5.545433E+03	5.847822E-17	8.722603E-18
5.555335E+03	5.784657E-17	8.615089E-18
5.565238E+03	5.724957E-17	8.513051E-18
5.575141E+03	5.669055E-17	8.416960E-18
5.585043E+03	5.617073E-17	8.326966E-18
5.594946E+03	5.569209E-17	8.243338E-18
5.604848E+03	5.525565E-17	8.166197E-18
5.614751E+03	5.486263E-17	8.095690E-18
5.624653E+03	5.451326E-17	8.031826E-18
5.634556E+03	5.420748E-17	7.974561E-18
5.644459E+03	5.394539E-17	7.923884E-18
5.654361E+03	5.372690E-17	7.879748E-18
5.664264E+03	5.355049E-17	7.841905E-18
5.674166E+03	5.341563E-17	7.810246E-18
5.684069E+03	5.332108E-17	7.784563E-18
5.693971E+03	5.326550E-17	7.764633E-18
5.703874E+03	5.324866E-17	7.750398E-18
5.713776E+03	5.326807E-17	7.741469E-18
5.723679E+03	5.332353E-17	7.737796E-18
5.733582E+03	5.341321E-17	7.739088E-18
5.743484E+03	5.353650E-17	7.745235E-18
5.753387E+03	5.369232E-17	7.756060E-18
5.763289E+03	5.387969E-17	7.771400E-18
5.773192E+03	5.409829E-17	7.791190E-18
5.783094E+03	5.434675E-17	7.815213E-18
5.792997E+03	5.462496E-17	7.843436E-18
5.802899E+03	5.493230E-17	7.875750E-18
5.812802E+03	5.526761E-17	7.911972E-18
5.822705E+03	5.563160E-17	7.952186E-18
5.832607E+03	5.602258E-17	7.996135E-18
5.842510E+03	5.644136E-17	8.043919E-18
5.852412E+03	5.688689E-17	8.095370E-18
5.862315E+03	5.735875E-17	8.150414E-18
5.872217E+03	5.785712E-17	8.209064E-18
5.882120E+03	5.838028E-17	8.271056E-18
5.892022E+03	5.892832E-17	8.336395E-18
5.901925E+03	5.950137E-17	8.405082E-18
5.911828E+03	6.009749E-17	8.476831E-18
5.921730E+03	6.071669E-17	8.551631E-18
5.931633E+03	6.135828E-17	8.629374E-18
5.941535E+03	6.202079E-17	8.709841E-18
5.951438E+03	6.270341E-17	8.792910E-18
5.961340E+03	6.340530E-17	8.878453E-18
5.971243E+03	6.412483E-17	8.966232E-18
5.981146E+03	6.486105E-17	9.056109E-18
5.991048E+03	6.561378E-17	9.148050E-18
6.000951E+03	6.637972E-17	9.241591E-18
6.010853E+03	6.715941E-17	9.336800E-18
6.020756E+03	6.794939E-17	9.433195E-18
6.030658E+03	6.875017E-17	9.530842E-18
6.040561E+03	6.955816E-17	9.629243E-18
6.050463E+03	7.037298E-17	9.728345E-18
6.060366E+03	7.119166E-17	9.827737E-18
6.070269E+03	7.201375E-17	9.927359E-18
6.080171E+03	7.283608E-17	1.002678E-17
6.090074E+03	7.365628E-17	1.012568E-17
6.099976E+03	7.447364E-17	1.022395E-17
6.109879E+03	7.528467E-17	1.032115E-17
6.119781E+03	7.608859E-17	1.041715E-17
6.129684E+03	7.688374E-17	1.051175E-17
6.139586E+03	7.766866E-17	1.060475E-17
6.149489E+03	7.844210E-17	1.069600E-17
6.159392E+03	7.920501E-17	1.078564E-17
6.169294E+03	7.995632E-17	1.087353E-17
6.179197E+03	8.069615E-17	1.095970E-17
6.189099E+03	8.142461E-17	1.104418E-17
6.199002E+03	8.214403E-17	1.112729E-17
6.208904E+03	8.285273E-17	1.120881E-17
6.218807E+03	8.355093E-17	1.128879E-17
6.228709E+03	8.424027E-17	1.136745E-17
6.238612E+03	8.492129E-17	1.144486E-17
6.248515E+03	8.559369E-17	1.152099E-17
6.258417E+03	8.625685E-17	1.159577E-17
6.268320E+03	8.691271E-17	1.166944E-17
6.278222E+03	8.755987E-17	1.174185E-17
6.288125E+03	8.819896E-17	1.181306E-17
6.298027E+03	8.882967E-17	1.188304E-17
6.307930E+03	8.945163E-17	1.195175E-17
6.317833E+03	9.006436E-17	1.201912E-17
6.327735E+03	9.066756E-17	1.208513E-17
6.337638E+03	9.126056E-17	1.214967E-17
6.347540E+03	9.184156E-17	1.221253E-17
6.357443E+03	9.241128E-17	1.227380E-17
6.367345E+03	9.296919E-17	1.233341E-17
6.377248E+03	9.351586E-17	1.239144E-17
6.387150E+03	9.405222E-17	1.244803E-17
6.397053E+03	9.457629E-17	1.250291E-17
6.406956E+03	9.509032E-17	1.255639E-17
6.416858E+03	9.559378E-17	1.260840E-17
6.426761E+03	9.608772E-17	1.265908E-17
6.436663E+03	9.657035E-17	1.270820E-17
6.446566E+03	9.704426E-17	1.275611E-17
6.456468E+03	9.750775E-17	1.280258E-17
6.466371E+03	9.796210E-17	1.284778E-17
6.476273E+03	9.840569E-17	1.289152E-17
6.486176E+03	9.883993E-17	1.293397E-17
6.496079E+03	9.926655E-17	1.297537E-17
6.505981E+03	9.968232E-17	1.301530E-17
6.515884E+03	1.000890E-16	1.305398E-17
6.525786E+03	1.004882E-16	1.309164E-17
6.535689E+03	1.008770E-16	1.312791E-17
6.545591E+03	1.012587E-16	1.316319E-17
6.555494E+03	1.016303E-16	1.319712E-17
6.565396E+03	1.019951E-16	1.323013E-17
6.575299E+03	1.023500E-16	1.326181E-17
6.585202E+03	1.026966E-16	1.329237E-17
6.595104E+03	1.030351E-16	1.332185E-17
6.605007E+03	1.033635E-16	1.335000E-17
6.614909E+03	1.036837E-16	1.337706E-17
6.624812E+03	1.039937E-16	1.340278E-17
6.634714E+03	1.042935E-16	1.342715E-17
6.644617E+03	1.045846E-16	1.345038E-17
6.654520E+03	1.048650E-16	1.347223E-17
6.664422E+03	1.051328E-16	1.349244E-17
6.674325E+03	1.053913E-16	1.351144E-17
6.684227E+03	1.056367E-16	1.352875E-17
6.694130E+03	1.058704E-16	1.354458E-17
6.704032E+03	1.060925E-16	1.355890E-17
6.713935E+03	1.063006E-16	1.357145E-17
6.723837E+03	1.064945E-16	1.358221E-17
6.733740E+03	1.066740E-16	1.359113E-17
6.743643E+03	1.068407E-16	1.359845E-17
6.753545E+03	1.069925E-16	1.360389E-17
6.763448E+03	1.071271E-16	1.360718E-17
6.773350E+03	1.072462E-16	1.360853E-17
6.783253E+03	1.073495E-16	1.360793E-17
6.793155E+03	1.074370E-16	1.360537E-17
6.803058E+03	1.075062E-16	1.360055E-17
6.812960E+03	1.075571E-16	1.359346E-17
6.822863E+03	1.075914E-16	1.358435E-17
6.832766E+03	1.076068E-16	1.357294E-17
6.842668E+03	1.076033E-16	1.355922E-17
6.852571E+03	1.075808E-16	1.354318E-17
6.862473E+03	1.075390E-16	1.352482E-17
6.872376E+03	1.074779E-16	1.350414E-17
6.882278E+03	1.073975E-16	1.348113E-17
6.892181E+03	1.072956E-16	1.345554E-17
6.902083E+03	1.071722E-16	1.342738E-17
6.911986E+03	1.070294E-16	1.339692E-17
6.921889E+03	1.068673E-16	1.336419E-17
6.931791E+03	1.066818E-16	1.332868E-17
6.941694E+03	1.064774E-16	1.329095E-17
6.951596E+03	1.062520E-16	1.325077E-17
6.961499E+03	1.060061E-16	1.320820E-17
6.971401E+03	1.057377E-16	1.316301E-17
6.981304E+03	1.054494E-16	1.311552E-17
6.991207E+03	1.051417E-16	1.306580E-17
7.001109E+03	1.048148E-16	1.301391E-17
7.011012E+03	1.044675E-16	1.295968E-17
7.020914E+03	1.041001E-16	1.290318E-17
7.030817E+03	1.037154E-16	1.284474E-17
7.040719E+03	1.033120E-16	1.278422E-17
7.050622E+03	1.028885E-16	1.272144E-17
7.060524E+03	1.024499E-16	1.265704E-17
7.070427E+03	1.019950E-16	1.259086E-17
7.080330E+03	1.015247E-16	1.252304E-17
7.090232E+03	1.010380E-16	1.245343E-17
7.100135E+03	1.005378E-16	1.238244E-17
7.110037E+03	1.000256E-16	1.231022E-17
7.119940E+03	9.950017E-17	1.223665E-17
7.129842E+03	9.896291E-17	1.216190E-17
7.139745E+03	9.841713E-17	1.208638E-17
7.149647E+03	9.786211E-17	1.201000E-17
7.159550E+03	9.729914E-17	1.193294E-17
7.169453E+03	9.672956E-17	1.185535E-17
7.179355E+03	9.615466E-17	1.177739E-17
7.189258E+03	9.557363E-17	1.169898E-17
7.199160E+03	9.499186E-17	1.162078E-17
7.209063E+03	9.440832E-17	1.154265E-17
7.218965E+03	9.382033E-17	1.146428E-17
7.228868E+03	9.323470E-17	1.138649E-17
7.238770E+03	9.264668E-17	1.130871E-17
7.248673E+03	9.206103E-17	1.123153E-17
7.258576E+03	9.147688E-17	1.115483E-17
7.268478E+03	9.089504E-17	1.107871E-17
7.278381E+03	9.031462E-17	1.100307E-17
7.288283E+03	8.973674E-17	1.092804E-17
7.298186E+03	8.916240E-17	1.085375E-17
7.308088E+03	8.859285E-17	1.078035E-17
7.317991E+03	8.802560E-17	1.070753E-17
7.327894E+03	8.746415E-17	1.063573E-17
7.337796E+03	8.690631E-17	1.056466E-17
7.347699E+03	8.635194E-17	1.049433E-17
7.357601E+03	8.580125E-17	1.042474E-17
7.367504E+03	8.525808E-17	1.035637E-17
7.377406E+03	8.472465E-17	1.028949E-17
7.387309E+03	8.420673E-17	1.022480E-17
7.397211E+03	8.370999E-17	1.016298E-17
7.407114E+03	8.323455E-17	1.010403E-17
7.417017E+03	8.278381E-17	1.004837E-17
7.426919E+03	8.236268E-17	9.996563E-18
7.436822E+03	8.196844E-17	9.948285E-18
7.446724E+03	8.160500E-17	9.903995E-18
7.456627E+03	8.127221E-17	9.863669E-18
7.466529E+03	8.096950E-17	9.827231E-18
7.476432E+03	8.069575E-17	9.794536E-18
7.486334E+03	8.044996E-17	9.765456E-18
7.496237E+03	8.023243E-17	9.740024E-18
7.506140E+03	8.003996E-17	9.717845E-18
7.516042E+03	7.987285E-17	9.698950E-18
7.525945E+03	7.972777E-17	9.682929E-18
7.535847E+03	7.960495E-17	9.669809E-18
7.545750E+03	7.950308E-17	9.659423E-18
7.555652E+03	7.941881E-17	9.651365E-18
7.565555E+03	7.935263E-17	9.645687E-18
7.575457E+03	7.930336E-17	9.642244E-18
7.585360E+03	7.926782E-17	9.640647E-18
7.595263E+03	7.924664E-17	9.640968E-18
7.605165E+03	7.923694E-17	9.642855E-18
7.615068E+03	7.924133E-17	9.646624E-18
7.624970E+03	7.925510E-17	9.651697E-18
7.634873E+03	7.927900E-17	9.658165E-18
7.644775E+03	7.931033E-17	9.665694E-18
7.654678E+03	7.935006E-17	9.674401E-18
7.664581E+03	7.939726E-17	9.684171E-18
7.674483E+03	7.945113E-17	9.694904E-18
7.684386E+03	7.950897E-17	9.706267E-18
