#wls	flux	fluxerr
1.584409E+03	1.092738E-16	3.554592E-17
1.624020E+03	1.134720E-16	3.685154E-17
1.663630E+03	1.173619E-16	3.805061E-17
1.703240E+03	1.208978E-16	3.912850E-17
1.742850E+03	1.239942E-16	4.005802E-17
1.782461E+03	1.265536E-16	4.080821E-17
1.822071E+03	1.284202E-16	4.132968E-17
1.861681E+03	1.294393E-16	4.157391E-17
1.901291E+03	1.294376E-16	4.148685E-17
1.940902E+03	1.282710E-16	4.102444E-17
1.980512E+03	1.258811E-16	4.017039E-17
2.020122E+03	1.224501E-16	3.898553E-17
2.059732E+03	1.184868E-16	3.763385E-17
2.099342E+03	1.148037E-16	3.637427E-17
2.138953E+03	1.122823E-16	3.548489E-17
2.178563E+03	1.114140E-16	3.511796E-17
2.218173E+03	1.120395E-16	3.521925E-17
2.257783E+03	1.134959E-16	3.557711E-17
2.297394E+03	1.149701E-16	3.593495E-17
2.337004E+03	1.158539E-16	3.610310E-17
2.376614E+03	1.157910E-16	3.597237E-17
2.416224E+03	1.146480E-16	3.550410E-17
2.455835E+03	1.124525E-16	3.471012E-17
2.495445E+03	1.092984E-16	3.362261E-17
2.535055E+03	1.053084E-16	3.228245E-17
2.574665E+03	1.006317E-16	3.073816E-17
2.614276E+03	9.539762E-17	2.903176E-17
2.653886E+03	8.974078E-17	2.720635E-17
2.693496E+03	8.377809E-17	2.529920E-17
2.733106E+03	7.763117E-17	2.334848E-17
2.772716E+03	7.140514E-17	2.138687E-17
2.812327E+03	6.520384E-17	1.944620E-17
2.851937E+03	5.912371E-17	1.755556E-17
2.891547E+03	5.325202E-17	1.574081E-17
2.931157E+03	4.766497E-17	1.402407E-17
2.970768E+03	4.242446E-17	1.242282E-17
2.980670E+03	4.117379E-17	1.204199E-17
2.990573E+03	3.994865E-17	1.166943E-17
3.000475E+03	3.874842E-17	1.130494E-17
3.010378E+03	3.757507E-17	1.094907E-17
3.020280E+03	3.642788E-17	1.060159E-17
3.030183E+03	3.530702E-17	1.026252E-17
3.040086E+03	3.421301E-17	9.932004E-18
3.049988E+03	3.314861E-17	9.610809E-18
3.059891E+03	3.211352E-17	9.298821E-18
3.069793E+03	3.110830E-17	8.996182E-18
3.079696E+03	3.013162E-17	8.702474E-18
3.089598E+03	2.918346E-17	8.417666E-18
3.099501E+03	2.826323E-17	8.141564E-18
3.109403E+03	2.737041E-17	7.873992E-18
3.119306E+03	2.650456E-17	7.614793E-18
3.129209E+03	2.566570E-17	7.363952E-18
3.139111E+03	2.485292E-17	7.121181E-18
3.149014E+03	2.406628E-17	6.886469E-18
3.158916E+03	2.330533E-17	6.659664E-18
3.168819E+03	2.256964E-17	6.440618E-18
3.178721E+03	2.185916E-17	6.229291E-18
3.188624E+03	2.117269E-17	6.025315E-18
3.198526E+03	2.051088E-17	5.828850E-18
3.208429E+03	1.987220E-17	5.639438E-18
3.218332E+03	1.925720E-17	5.457206E-18
3.228234E+03	1.866472E-17	5.281809E-18
3.238137E+03	1.809459E-17	5.113171E-18
3.248039E+03	1.754631E-17	4.951124E-18
3.257942E+03	1.701908E-17	4.795426E-18
3.267844E+03	1.651294E-17	4.646057E-18
3.277747E+03	1.602683E-17	4.502703E-18
3.287650E+03	1.556026E-17	4.365204E-18
3.297552E+03	1.511317E-17	4.233518E-18
3.307455E+03	1.468457E-17	4.107351E-18
3.317357E+03	1.427398E-17	3.986543E-18
3.327260E+03	1.388088E-17	3.870931E-18
3.337162E+03	1.350496E-17	3.760410E-18
3.347065E+03	1.314533E-17	3.654715E-18
3.356967E+03	1.280153E-17	3.553693E-18
3.366870E+03	1.247323E-17	3.457242E-18
3.376773E+03	1.215981E-17	3.365164E-18
3.386675E+03	1.186076E-17	3.277310E-18
3.396578E+03	1.157535E-17	3.193453E-18
3.406480E+03	1.130329E-17	3.113502E-18
3.416383E+03	1.104415E-17	3.037323E-18
3.426285E+03	1.079723E-17	2.964707E-18
3.436188E+03	1.056216E-17	2.895537E-18
3.446090E+03	1.033843E-17	2.829663E-18
3.455993E+03	1.012582E-17	2.767006E-18
3.465896E+03	9.923621E-18	2.707363E-18
3.475798E+03	9.731639E-18	2.650666E-18
3.485701E+03	9.549354E-18	2.596763E-18
3.495603E+03	9.376372E-18	2.545533E-18
3.505506E+03	9.212340E-18	2.496870E-18
3.515408E+03	9.056804E-18	2.450641E-18
3.525311E+03	8.909543E-18	2.406773E-18
3.535213E+03	8.770057E-18	2.365123E-18
3.545116E+03	8.638065E-18	2.325605E-18
3.555019E+03	8.513383E-18	2.288160E-18
3.564921E+03	8.395662E-18	2.252685E-18
3.574824E+03	8.284657E-18	2.219105E-18
3.584726E+03	8.180047E-18	2.187327E-18
3.594629E+03	8.081533E-18	2.157261E-18
3.604531E+03	7.988922E-18	2.128849E-18
3.614434E+03	7.901865E-18	2.101991E-18
3.624337E+03	7.820257E-18	2.076650E-18
3.634239E+03	7.743788E-18	2.052739E-18
3.644142E+03	7.672305E-18	2.030209E-18
3.654044E+03	7.605728E-18	2.009033E-18
3.663947E+03	7.543779E-18	1.989132E-18
3.673849E+03	7.486319E-18	1.970462E-18
3.683752E+03	7.433358E-18	1.953021E-18
3.693654E+03	7.384698E-18	1.936750E-18
3.703557E+03	7.340214E-18	1.921610E-18
3.713460E+03	7.299910E-18	1.907599E-18
3.723362E+03	7.263584E-18	1.894656E-18
3.733265E+03	7.231187E-18	1.882765E-18
3.743167E+03	7.202708E-18	1.871916E-18
3.753070E+03	7.178033E-18	1.862075E-18
3.762972E+03	7.157086E-18	1.853218E-18
3.772875E+03	7.139808E-18	1.845323E-18
3.782777E+03	7.126139E-18	1.838371E-18
3.792680E+03	7.116081E-18	1.832357E-18
3.802583E+03	7.109516E-18	1.827245E-18
3.812485E+03	7.106445E-18	1.823032E-18
3.822388E+03	7.106875E-18	1.819714E-18
3.832290E+03	7.110683E-18	1.817255E-18
3.842193E+03	7.117829E-18	1.815640E-18
3.852095E+03	7.128368E-18	1.814879E-18
3.861998E+03	7.142244E-18	1.814953E-18
3.871900E+03	7.159352E-18	1.815830E-18
3.881803E+03	7.179743E-18	1.817520E-18
3.891706E+03	7.203426E-18	1.820019E-18
3.901608E+03	7.230218E-18	1.823277E-18
3.911511E+03	7.260180E-18	1.827306E-18
3.921413E+03	7.293296E-18	1.832097E-18
3.931316E+03	7.329506E-18	1.837630E-18
3.941218E+03	7.368670E-18	1.843867E-18
3.951121E+03	7.410900E-18	1.850831E-18
3.961024E+03	7.456047E-18	1.858481E-18
3.970926E+03	7.504037E-18	1.866795E-18
3.980829E+03	7.554901E-18	1.875777E-18
3.990731E+03	7.608497E-18	1.885388E-18
4.000634E+03	7.664853E-18	1.895631E-18
4.010536E+03	7.723756E-18	1.906450E-18
4.020439E+03	7.785306E-18	1.917866E-18
4.030341E+03	7.849354E-18	1.929840E-18
4.040244E+03	7.915801E-18	1.942344E-18
4.050147E+03	7.984689E-18	1.955384E-18
4.060049E+03	8.055806E-18	1.968908E-18
4.069952E+03	8.129251E-18	1.982935E-18
4.079854E+03	8.204816E-18	1.997413E-18
4.089757E+03	8.282471E-18	2.012331E-18
4.099659E+03	8.362210E-18	2.027687E-18
4.109562E+03	8.443882E-18	2.043440E-18
4.119464E+03	8.527466E-18	2.059585E-18
4.129367E+03	8.612891E-18	2.076101E-18
4.139270E+03	8.700001E-18	2.092950E-18
4.149172E+03	8.788867E-18	2.110146E-18
4.159075E+03	8.879273E-18	2.127638E-18
4.168977E+03	8.971280E-18	2.145436E-18
4.178880E+03	9.064667E-18	2.163488E-18
4.188782E+03	9.159436E-18	2.181793E-18
4.198685E+03	9.255506E-18	2.200331E-18
4.208587E+03	9.352643E-18	2.219046E-18
4.218490E+03	9.450922E-18	2.237954E-18
4.228393E+03	9.550178E-18	2.257016E-18
4.238295E+03	9.650250E-18	2.276194E-18
4.248198E+03	9.750975E-18	2.295450E-18
4.258100E+03	9.852341E-18	2.314781E-18
4.268003E+03	9.954269E-18	2.334168E-18
4.277905E+03	1.005642E-17	2.353533E-18
4.287808E+03	1.015887E-17	2.372896E-18
4.297711E+03	1.026129E-17	2.392180E-18
4.307613E+03	1.036377E-17	2.411406E-18
4.317516E+03	1.046604E-17	2.430515E-18
4.327418E+03	1.056813E-17	2.449514E-18
4.337321E+03	1.067004E-17	2.468405E-18
4.347223E+03	1.077181E-17	2.487201E-18
4.357126E+03	1.087347E-17	2.505906E-18
4.367028E+03	1.097511E-17	2.524547E-18
4.376931E+03	1.107685E-17	2.543151E-18
4.386834E+03	1.117874E-17	2.561731E-18
4.396736E+03	1.128092E-17	2.580320E-18
4.406639E+03	1.138334E-17	2.598911E-18
4.416541E+03	1.148627E-17	2.617563E-18
4.426444E+03	1.158967E-17	2.636270E-18
4.436346E+03	1.169361E-17	2.655048E-18
4.446249E+03	1.179816E-17	2.673915E-18
4.456151E+03	1.190339E-17	2.692888E-18
4.466054E+03	1.200938E-17	2.711982E-18
4.475957E+03	1.211618E-17	2.731214E-18
4.485859E+03	1.222367E-17	2.750550E-18
4.495762E+03	1.233213E-17	2.770055E-18
4.505664E+03	1.244141E-17	2.789697E-18
4.515567E+03	1.255160E-17	2.809492E-18
4.525469E+03	1.266265E-17	2.829431E-18
4.535372E+03	1.277475E-17	2.849556E-18
4.545274E+03	1.288788E-17	2.869859E-18
4.555177E+03	1.300187E-17	2.890304E-18
4.565080E+03	1.311703E-17	2.910959E-18
4.574982E+03	1.323320E-17	2.931789E-18
4.584885E+03	1.335034E-17	2.952780E-18
4.594787E+03	1.346863E-17	2.973976E-18
4.604690E+03	1.358815E-17	2.995392E-18
4.614592E+03	1.370861E-17	3.016963E-18
4.624495E+03	1.383034E-17	3.038759E-18
4.634398E+03	1.395327E-17	3.060769E-18
4.644300E+03	1.407737E-17	3.082983E-18
4.654203E+03	1.420275E-17	3.105421E-18
4.664105E+03	1.432935E-17	3.128073E-18
4.674008E+03	1.445730E-17	3.150966E-18
4.683910E+03	1.458633E-17	3.174039E-18
4.693813E+03	1.471659E-17	3.197325E-18
4.703715E+03	1.484826E-17	3.220862E-18
4.713618E+03	1.498097E-17	3.244568E-18
4.723521E+03	1.511503E-17	3.268512E-18
4.733423E+03	1.525037E-17	3.292674E-18
4.743326E+03	1.538686E-17	3.317030E-18
4.753228E+03	1.552485E-17	3.341650E-18
4.763131E+03	1.566391E-17	3.366442E-18
4.773033E+03	1.580451E-17	3.391509E-18
4.782936E+03	1.594621E-17	3.416753E-18
4.792838E+03	1.608932E-17	3.442240E-18
4.802741E+03	1.623352E-17	3.467901E-18
4.812644E+03	1.637913E-17	3.493804E-18
4.822546E+03	1.652582E-17	3.519876E-18
4.832449E+03	1.667373E-17	3.546148E-18
4.842351E+03	1.682285E-17	3.572619E-18
4.852254E+03	1.697301E-17	3.599249E-18
4.862156E+03	1.712420E-17	3.626035E-18
4.872059E+03	1.727639E-17	3.652973E-18
4.881961E+03	1.742975E-17	3.680097E-18
4.891864E+03	1.758392E-17	3.707332E-18
4.901767E+03	1.773925E-17	3.734748E-18
4.911669E+03	1.789537E-17	3.762270E-18
4.921572E+03	1.805246E-17	3.789933E-18
4.931474E+03	1.821030E-17	3.817693E-18
4.941377E+03	1.836887E-17	3.845544E-18
4.951279E+03	1.852812E-17	3.873477E-18
4.961182E+03	1.868817E-17	3.901515E-18
4.971085E+03	1.884857E-17	3.929565E-18
4.980987E+03	1.900940E-17	3.957644E-18
4.990890E+03	1.917034E-17	3.985686E-18
5.000792E+03	1.933143E-17	4.013700E-18
5.010695E+03	1.949232E-17	4.041613E-18
5.020597E+03	1.965262E-17	4.069346E-18
5.030500E+03	1.981232E-17	4.096896E-18
5.040402E+03	1.997116E-17	4.124214E-18
5.050305E+03	2.012871E-17	4.151210E-18
5.060208E+03	2.028448E-17	4.177785E-18
5.070110E+03	2.043856E-17	4.203961E-18
5.080013E+03	2.059023E-17	4.229591E-18
5.089915E+03	2.073915E-17	4.254609E-18
5.099818E+03	2.088496E-17	4.278944E-18
5.109720E+03	2.102732E-17	4.302529E-18
5.119623E+03	2.116565E-17	4.325249E-18
5.129525E+03	2.129980E-17	4.347079E-18
5.139428E+03	2.142900E-17	4.367862E-18
5.149331E+03	2.155308E-17	4.387574E-18
5.159233E+03	2.167126E-17	4.406055E-18
5.169136E+03	2.178359E-17	4.423324E-18
5.179038E+03	2.188923E-17	4.439217E-18
5.188941E+03	2.198799E-17	4.453700E-18
5.198843E+03	2.207901E-17	4.466603E-18
5.208746E+03	2.216205E-17	4.477884E-18
5.218648E+03	2.223662E-17	4.487456E-18
5.228551E+03	2.230180E-17	4.495136E-18
5.238454E+03	2.235709E-17	4.500831E-18
5.248356E+03	2.240219E-17	4.504490E-18
5.258259E+03	2.243638E-17	4.505975E-18
5.268161E+03	2.245895E-17	4.505154E-18
5.278064E+03	2.246941E-17	4.501936E-18
5.287966E+03	2.246734E-17	4.496248E-18
5.297869E+03	2.245234E-17	4.488019E-18
5.307772E+03	2.242387E-17	4.477148E-18
5.317674E+03	2.238189E-17	4.463637E-18
5.327577E+03	2.232600E-17	4.447419E-18
5.337479E+03	2.225636E-17	4.428534E-18
5.347382E+03	2.217281E-17	4.406960E-18
5.357284E+03	2.207600E-17	4.382832E-18
5.367187E+03	2.196648E-17	4.356274E-18
5.377089E+03	2.184456E-17	4.327351E-18
5.386992E+03	2.171156E-17	4.296334E-18
5.396895E+03	2.156830E-17	4.263390E-18
5.406797E+03	2.141489E-17	4.228552E-18
5.416700E+03	2.125313E-17	4.192175E-18
5.426602E+03	2.108383E-17	4.154426E-18
5.436505E+03	2.090793E-17	4.115496E-18
5.446407E+03	2.072667E-17	4.075630E-18
5.456310E+03	2.054110E-17	4.035037E-18
5.466212E+03	2.035232E-17	3.993937E-18
5.476115E+03	2.016189E-17	3.952634E-18
5.486018E+03	1.997098E-17	3.911355E-18
5.495920E+03	1.978136E-17	3.870445E-18
5.505823E+03	1.959461E-17	3.830209E-18
5.515725E+03	1.941206E-17	3.790903E-18
5.525628E+03	1.923540E-17	3.752850E-18
5.535530E+03	1.906606E-17	3.716327E-18
5.545433E+03	1.890539E-17	3.681586E-18
5.555335E+03	1.875481E-17	3.648899E-18
5.565238E+03	1.861541E-17	3.618471E-18
5.575141E+03	1.848817E-17	3.590482E-18
5.585043E+03	1.837403E-17	3.565109E-18
5.594946E+03	1.827364E-17	3.542466E-18
5.604848E+03	1.818760E-17	3.522665E-18
5.614751E+03	1.811619E-17	3.505747E-18
5.624653E+03	1.805947E-17	3.491718E-18
5.634556E+03	1.801758E-17	3.480594E-18
5.644459E+03	1.799032E-17	3.472327E-18
5.654361E+03	1.797733E-17	3.466842E-18
5.664264E+03	1.797840E-17	3.464087E-18
5.674166E+03	1.799302E-17	3.463958E-18
5.684069E+03	1.802084E-17	3.466381E-18
5.693971E+03	1.806113E-17	3.471205E-18
5.703874E+03	1.811374E-17	3.478399E-18
5.713776E+03	1.817803E-17	3.487829E-18
5.723679E+03	1.825360E-17	3.499412E-18
5.733582E+03	1.834050E-17	3.513156E-18
5.743484E+03	1.843815E-17	3.528937E-18
5.753387E+03	1.854675E-17	3.546794E-18
5.763289E+03	1.866626E-17	3.566709E-18
5.773192E+03	1.879663E-17	3.588669E-18
5.783094E+03	1.893768E-17	3.612634E-18
5.792997E+03	1.908987E-17	3.638684E-18
5.802899E+03	1.925306E-17	3.666787E-18
5.812802E+03	1.942752E-17	3.696990E-18
5.822705E+03	1.961335E-17	3.729303E-18
5.832607E+03	1.981037E-17	3.763691E-18
5.842510E+03	2.001889E-17	3.800203E-18
5.852412E+03	2.023918E-17	3.838885E-18
5.862315E+03	2.047081E-17	3.879651E-18
5.872217E+03	2.071402E-17	3.922538E-18
5.882120E+03	2.096877E-17	3.967536E-18
5.892022E+03	2.123525E-17	4.014670E-18
5.901925E+03	2.151287E-17	4.063827E-18
5.911828E+03	2.180199E-17	4.115068E-18
5.921730E+03	2.210196E-17	4.168263E-18
5.931633E+03	2.241281E-17	4.223412E-18
5.941535E+03	2.273430E-17	4.280466E-18
5.951438E+03	2.306590E-17	4.339319E-18
5.961340E+03	2.340756E-17	4.399958E-18
5.971243E+03	2.375839E-17	4.462207E-18
5.981146E+03	2.411856E-17	4.526093E-18
5.991048E+03	2.448677E-17	4.591372E-18
6.000951E+03	2.486313E-17	4.658055E-18
6.010853E+03	2.524652E-17	4.725931E-18
6.020756E+03	2.563666E-17	4.794943E-18
6.030658E+03	2.603234E-17	4.864862E-18
6.040561E+03	2.643286E-17	4.935553E-18
6.050463E+03	2.683718E-17	5.006820E-18
6.060366E+03	2.724448E-17	5.078508E-18
6.070269E+03	2.765328E-17	5.150338E-18
6.080171E+03	2.806231E-17	5.222073E-18
6.090074E+03	2.847060E-17	5.293534E-18
6.099976E+03	2.887683E-17	5.364475E-18
6.109879E+03	2.927892E-17	5.434509E-18
6.119781E+03	2.967585E-17	5.503451E-18
6.129684E+03	3.006629E-17	5.571054E-18
6.139586E+03	3.044932E-17	5.637155E-18
6.149489E+03	3.082460E-17	5.701690E-18
6.159392E+03	3.119183E-17	5.764611E-18
6.169294E+03	3.155131E-17	5.825975E-18
6.179197E+03	3.190421E-17	5.886002E-18
6.189099E+03	3.225065E-17	5.944720E-18
6.199002E+03	3.259042E-17	6.002091E-18
6.208904E+03	3.292504E-17	6.058398E-18
6.218807E+03	3.325486E-17	6.113711E-18
6.228709E+03	3.357940E-17	6.167943E-18
6.238612E+03	3.390043E-17	6.221422E-18
6.248515E+03	3.421711E-17	6.273994E-18
6.258417E+03	3.453087E-17	6.325920E-18
6.268320E+03	3.484134E-17	6.377135E-18
6.278222E+03	3.514910E-17	6.427744E-18
6.288125E+03	3.545426E-17	6.477765E-18
6.298027E+03	3.575694E-17	6.527223E-18
6.307930E+03	3.605727E-17	6.576139E-18
6.317833E+03	3.635484E-17	6.624437E-18
6.327735E+03	3.664924E-17	6.672043E-18
6.337638E+03	3.694104E-17	6.719063E-18
6.347540E+03	3.722926E-17	6.765316E-18
6.357443E+03	3.751447E-17	6.810907E-18
6.367345E+03	3.779618E-17	6.855747E-18
6.377248E+03	3.807441E-17	6.899839E-18
6.387150E+03	3.834976E-17	6.943295E-18
6.397053E+03	3.862346E-17	6.986334E-18
6.406956E+03	3.889562E-17	7.028979E-18
6.416858E+03	3.916699E-17	7.071362E-18
6.426761E+03	3.943833E-17	7.113621E-18
6.436663E+03	3.970925E-17	7.155685E-18
6.446566E+03	3.998116E-17	7.197806E-18
6.456468E+03	4.025430E-17	7.240027E-18
6.466371E+03	4.052828E-17	7.282276E-18
6.476273E+03	4.080457E-17	7.324815E-18
6.486176E+03	4.108278E-17	7.367573E-18
6.496079E+03	4.136248E-17	7.410471E-18
6.505981E+03	4.164516E-17	7.453774E-18
6.515884E+03	4.193038E-17	7.497403E-18
6.525786E+03	4.221835E-17	7.541392E-18
6.535689E+03	4.250995E-17	7.585896E-18
6.545591E+03	4.280398E-17	7.630700E-18
6.555494E+03	4.310057E-17	7.675827E-18
6.565396E+03	4.340127E-17	7.721550E-18
6.575299E+03	4.370478E-17	7.767635E-18
6.585202E+03	4.401116E-17	7.814094E-18
6.595104E+03	4.432118E-17	7.861061E-18
6.605007E+03	4.463415E-17	7.908411E-18
6.614909E+03	4.495003E-17	7.956137E-18
6.624812E+03	4.526955E-17	8.004368E-18
6.634714E+03	4.559111E-17	8.052820E-18
6.644617E+03	4.591460E-17	8.101474E-18
6.654520E+03	4.624150E-17	8.150589E-18
6.664422E+03	4.657007E-17	8.199859E-18
6.674325E+03	4.690014E-17	8.249257E-18
6.684227E+03	4.723235E-17	8.298893E-18
6.694130E+03	4.756567E-17	8.348589E-18
6.704032E+03	4.789989E-17	8.398308E-18
6.713935E+03	4.823474E-17	8.448006E-18
6.723837E+03	4.856998E-17	8.497643E-18
6.733740E+03	4.890446E-17	8.547019E-18
6.743643E+03	4.923877E-17	8.596241E-18
6.753545E+03	4.957263E-17	8.645265E-18
6.763448E+03	4.990485E-17	8.693883E-18
6.773350E+03	5.023602E-17	8.742207E-18
6.783253E+03	5.056493E-17	8.790027E-18
6.793155E+03	5.089129E-17	8.837299E-18
6.803058E+03	5.121476E-17	8.883972E-18
6.812960E+03	5.153414E-17	8.929839E-18
6.822863E+03	5.185103E-17	8.975189E-18
6.832766E+03	5.216424E-17	9.019819E-18
6.842668E+03	5.247253E-17	9.063523E-18
6.852571E+03	5.277663E-17	9.106434E-18
6.862473E+03	5.307532E-17	9.148351E-18
6.872376E+03	5.336833E-17	9.189236E-18
6.882278E+03	5.365646E-17	9.229233E-18
6.892181E+03	5.393846E-17	9.268139E-18
6.902083E+03	5.421411E-17	9.305925E-18
6.911986E+03	5.448318E-17	9.342562E-18
6.921889E+03	5.474551E-17	9.378031E-18
6.931791E+03	5.499983E-17	9.412129E-18
6.941694E+03	5.524816E-17	9.445208E-18
6.951596E+03	5.548821E-17	9.476892E-18
6.961499E+03	5.571991E-17	9.507177E-18
6.971401E+03	5.594427E-17	9.536250E-18
6.981304E+03	5.616018E-17	9.563933E-18
6.991207E+03	5.636765E-17	9.590240E-18
7.001109E+03	5.656674E-17	9.615195E-18
7.011012E+03	5.675756E-17	9.638826E-18
7.020914E+03	5.694140E-17	9.661368E-18
7.030817E+03	5.711622E-17	9.682484E-18
7.040719E+03	5.728225E-17	9.702231E-18
7.050622E+03	5.744100E-17	9.720874E-18
7.060524E+03	5.759285E-17	9.738491E-18
7.070427E+03	5.773710E-17	9.754974E-18
7.080330E+03	5.787540E-17	9.770619E-18
7.090232E+03	5.800595E-17	9.785132E-18
7.100135E+03	5.813169E-17	9.799021E-18
7.110037E+03	5.825207E-17	9.812207E-18
7.119940E+03	5.836774E-17	9.824810E-18
7.129842E+03	5.847817E-17	9.836755E-18
7.139745E+03	5.858647E-17	9.848576E-18
7.149647E+03	5.869092E-17	9.859994E-18
7.159550E+03	5.879339E-17	9.871338E-18
7.169453E+03	5.889328E-17	9.882516E-18
7.179355E+03	5.899238E-17	9.893842E-18
7.189258E+03	5.908994E-17	9.905199E-18
7.199160E+03	5.918631E-17	9.916660E-18
7.209063E+03	5.928299E-17	9.928487E-18
7.218965E+03	5.937885E-17	9.940502E-18
7.228868E+03	5.947515E-17	9.952928E-18
7.238770E+03	5.956921E-17	9.965330E-18
7.248673E+03	5.966206E-17	9.977890E-18
7.258576E+03	5.975464E-17	9.990776E-18
7.268478E+03	5.984397E-17	1.000351E-17
7.278381E+03	5.993087E-17	1.001623E-17
7.288283E+03	6.001359E-17	1.002866E-17
7.298186E+03	6.009292E-17	1.004095E-17
7.308088E+03	6.016715E-17	1.005282E-17
7.317991E+03	6.023587E-17	1.006422E-17
7.327894E+03	6.029878E-17	1.007510E-17
7.337796E+03	6.035433E-17	1.008523E-17
7.347699E+03	6.040241E-17	1.009459E-17
7.357601E+03	6.044301E-17	1.010319E-17
7.367504E+03	6.047624E-17	1.011106E-17
7.377406E+03	6.050369E-17	1.011849E-17
7.387309E+03	6.052437E-17	1.012530E-17
7.397211E+03	6.054143E-17	1.013205E-17
7.407114E+03	6.055543E-17	1.013882E-17
7.417017E+03	6.056698E-17	1.014575E-17
7.426919E+03	6.057671E-17	1.015293E-17
7.436822E+03	6.058522E-17	1.016048E-17
7.446724E+03	6.059563E-17	1.016893E-17
7.456627E+03	6.060516E-17	1.017782E-17
7.466529E+03	6.061509E-17	1.018735E-17
7.476432E+03	6.062526E-17	1.019748E-17
7.486334E+03	6.063690E-17	1.020842E-17
7.496237E+03	6.064705E-17	1.021966E-17
7.506140E+03	6.065699E-17	1.023140E-17
7.516042E+03	6.066666E-17	1.024363E-17
7.525945E+03	6.067745E-17	1.025658E-17
7.535847E+03	6.068655E-17	1.026975E-17
7.545750E+03	6.069688E-17	1.028363E-17
7.555652E+03	6.070716E-17	1.029801E-17
7.565555E+03	6.071608E-17	1.031264E-17
7.575457E+03	6.072672E-17	1.032805E-17
7.585360E+03	6.073788E-17	1.034401E-17
7.595263E+03	6.074978E-17	1.036057E-17
7.605165E+03	6.076266E-17	1.037775E-17
7.615068E+03	6.077675E-17	1.039558E-17
7.624970E+03	6.079225E-17	1.041409E-17
7.634873E+03	6.081078E-17	1.043355E-17
7.644775E+03	6.082949E-17	1.045346E-17
7.654678E+03	6.085140E-17	1.047434E-17
7.664581E+03	6.087500E-17	1.049592E-17
7.674483E+03	6.090023E-17	1.051818E-17
7.684386E+03	6.092697E-17	1.054109E-17
