#wls	flux	fluxerr
1.584409E+03	1.264585E-16	9.871440E-18
1.624020E+03	1.319264E-16	1.029375E-17
1.663630E+03	1.371143E-16	1.069372E-17
1.703240E+03	1.419685E-16	1.106717E-17
1.742850E+03	1.463871E-16	1.140617E-17
1.782461E+03	1.502509E-16	1.170149E-17
1.822071E+03	1.533680E-16	1.193823E-17
1.861681E+03	1.555423E-16	1.210121E-17
1.901291E+03	1.565488E-16	1.217304E-17
1.940902E+03	1.561907E-16	1.213855E-17
1.980512E+03	1.543681E-16	1.199018E-17
2.020122E+03	1.512744E-16	1.174310E-17
2.059732E+03	1.475117E-16	1.144423E-17
2.099342E+03	1.440815E-16	1.117132E-17
2.138953E+03	1.421045E-16	1.101115E-17
2.178563E+03	1.422435E-16	1.101486E-17
2.218173E+03	1.443490E-16	1.117055E-17
2.257783E+03	1.476151E-16	1.141559E-17
2.297394E+03	1.510088E-16	1.166994E-17
2.337004E+03	1.537292E-16	1.187173E-17
2.376614E+03	1.552784E-16	1.198262E-17
2.416224E+03	1.554374E-16	1.198592E-17
2.455835E+03	1.541962E-16	1.188110E-17
2.495445E+03	1.516337E-16	1.167445E-17
2.535055E+03	1.478707E-16	1.137556E-17
2.574665E+03	1.430696E-16	1.099712E-17
2.614276E+03	1.373710E-16	1.055015E-17
2.653886E+03	1.309295E-16	1.004670E-17
2.693496E+03	1.238813E-16	9.497416E-18
2.733106E+03	1.163767E-16	8.913938E-18
2.772716E+03	1.085495E-16	8.306645E-18
2.812327E+03	1.005400E-16	7.686377E-18
2.851937E+03	9.248620E-17	7.063732E-18
2.891547E+03	8.452076E-17	6.448895E-18
2.931157E+03	7.676820E-17	5.851371E-18
2.970768E+03	6.933890E-17	5.279553E-18
2.980670E+03	6.754263E-17	5.141413E-18
2.990573E+03	6.577425E-17	5.005461E-18
3.000475E+03	6.403310E-17	4.871646E-18
3.010378E+03	6.232279E-17	4.740241E-18
3.020280E+03	6.064253E-17	4.611185E-18
3.030183E+03	5.899296E-17	4.484524E-18
3.040086E+03	5.737539E-17	4.360358E-18
3.049988E+03	5.579486E-17	4.239068E-18
3.059891E+03	5.425134E-17	4.120649E-18
3.069793E+03	5.274630E-17	4.005211E-18
3.079696E+03	5.127790E-17	3.892613E-18
3.089598E+03	4.984659E-17	3.782887E-18
3.099501E+03	4.845181E-17	3.675989E-18
3.109403E+03	4.709310E-17	3.571881E-18
3.119306E+03	4.577005E-17	3.470531E-18
3.129209E+03	4.448314E-17	3.371973E-18
3.139111E+03	4.323117E-17	3.276115E-18
3.149014E+03	4.201463E-17	3.182991E-18
3.158916E+03	4.083316E-17	3.092573E-18
3.168819E+03	3.968642E-17	3.004832E-18
3.178721E+03	3.857474E-17	2.919792E-18
3.188624E+03	3.749638E-17	2.837319E-18
3.198526E+03	3.645296E-17	2.757534E-18
3.208429E+03	3.544216E-17	2.680259E-18
3.218332E+03	3.446536E-17	2.605596E-18
3.228234E+03	3.352094E-17	2.533422E-18
3.238137E+03	3.260899E-17	2.463742E-18
3.248039E+03	3.172902E-17	2.396515E-18
3.257942E+03	3.088000E-17	2.331662E-18
3.267844E+03	3.006237E-17	2.269216E-18
3.277747E+03	2.927463E-17	2.209060E-18
3.287650E+03	2.851626E-17	2.151153E-18
3.297552E+03	2.778753E-17	2.095514E-18
3.307455E+03	2.708699E-17	2.042033E-18
3.317357E+03	2.641408E-17	1.990664E-18
3.327260E+03	2.576820E-17	1.941361E-18
3.337162E+03	2.514912E-17	1.894105E-18
3.347065E+03	2.455552E-17	1.848796E-18
3.356967E+03	2.398682E-17	1.805386E-18
3.366870E+03	2.344276E-17	1.763855E-18
3.376773E+03	2.292242E-17	1.724133E-18
3.386675E+03	2.242521E-17	1.686173E-18
3.396578E+03	2.194998E-17	1.649888E-18
3.406480E+03	2.149649E-17	1.615256E-18
3.416383E+03	2.106416E-17	1.582236E-18
3.426285E+03	2.065195E-17	1.550745E-18
3.436188E+03	2.025937E-17	1.520747E-18
3.446090E+03	1.988569E-17	1.492185E-18
3.455993E+03	1.953068E-17	1.465040E-18
3.465896E+03	1.919321E-17	1.439226E-18
3.475798E+03	1.887310E-17	1.414728E-18
3.485701E+03	1.856948E-17	1.391482E-18
3.495603E+03	1.828181E-17	1.369443E-18
3.505506E+03	1.800953E-17	1.348570E-18
3.515408E+03	1.775192E-17	1.328807E-18
3.525311E+03	1.750871E-17	1.310133E-18
3.535213E+03	1.727904E-17	1.292483E-18
3.545116E+03	1.706250E-17	1.275825E-18
3.555019E+03	1.685887E-17	1.260141E-18
3.564921E+03	1.666758E-17	1.245389E-18
3.574824E+03	1.648826E-17	1.231539E-18
3.584726E+03	1.632039E-17	1.218552E-18
3.594629E+03	1.616351E-17	1.206392E-18
3.604531E+03	1.601731E-17	1.195036E-18
3.614434E+03	1.588119E-17	1.184438E-18
3.624337E+03	1.575504E-17	1.174589E-18
3.634239E+03	1.563832E-17	1.165447E-18
3.644142E+03	1.553080E-17	1.156995E-18
3.654044E+03	1.543238E-17	1.149226E-18
3.663947E+03	1.534258E-17	1.142102E-18
3.673849E+03	1.526118E-17	1.135606E-18
3.683752E+03	1.518827E-17	1.129744E-18
3.693654E+03	1.512348E-17	1.124489E-18
3.703557E+03	1.506664E-17	1.119827E-18
3.713460E+03	1.501781E-17	1.115761E-18
3.723362E+03	1.497666E-17	1.112266E-18
3.733265E+03	1.494311E-17	1.109336E-18
3.743167E+03	1.491726E-17	1.106977E-18
3.753070E+03	1.489887E-17	1.105172E-18
3.762972E+03	1.488790E-17	1.103916E-18
3.772875E+03	1.488426E-17	1.103202E-18
3.782777E+03	1.488789E-17	1.103025E-18
3.792680E+03	1.489884E-17	1.103388E-18
3.802583E+03	1.491690E-17	1.104276E-18
3.812485E+03	1.494214E-17	1.105692E-18
3.822388E+03	1.497460E-17	1.107638E-18
3.832290E+03	1.501408E-17	1.110100E-18
3.842193E+03	1.506051E-17	1.113071E-18
3.852095E+03	1.511405E-17	1.116562E-18
3.861998E+03	1.517464E-17	1.120569E-18
3.871900E+03	1.524204E-17	1.125073E-18
3.881803E+03	1.531643E-17	1.130087E-18
3.891706E+03	1.539784E-17	1.135612E-18
3.901608E+03	1.548593E-17	1.141623E-18
3.911511E+03	1.558084E-17	1.148129E-18
3.921413E+03	1.568258E-17	1.155130E-18
3.931316E+03	1.579106E-17	1.162619E-18
3.941218E+03	1.590600E-17	1.170575E-18
3.951121E+03	1.602767E-17	1.179017E-18
3.961024E+03	1.615581E-17	1.187924E-18
3.970926E+03	1.629027E-17	1.197286E-18
3.980829E+03	1.643117E-17	1.207111E-18
3.990731E+03	1.657820E-17	1.217374E-18
4.000634E+03	1.673148E-17	1.228085E-18
4.010536E+03	1.689056E-17	1.239210E-18
4.020439E+03	1.705568E-17	1.250765E-18
4.030341E+03	1.722652E-17	1.262727E-18
4.040244E+03	1.740288E-17	1.275080E-18
4.050147E+03	1.758485E-17	1.287830E-18
4.060049E+03	1.777196E-17	1.300942E-18
4.069952E+03	1.796442E-17	1.314432E-18
4.079854E+03	1.816173E-17	1.328261E-18
4.089757E+03	1.836382E-17	1.342424E-18
4.099659E+03	1.857062E-17	1.356916E-18
4.109562E+03	1.878175E-17	1.371708E-18
4.119464E+03	1.899711E-17	1.386793E-18
4.129367E+03	1.921648E-17	1.402153E-18
4.139270E+03	1.943943E-17	1.417758E-18
4.149172E+03	1.966602E-17	1.433610E-18
4.159075E+03	1.989567E-17	1.449668E-18
4.168977E+03	2.012841E-17	1.465933E-18
4.178880E+03	2.036361E-17	1.482359E-18
4.188782E+03	2.060112E-17	1.498935E-18
4.198685E+03	2.084065E-17	1.515638E-18
4.208587E+03	2.108149E-17	1.532419E-18
4.218490E+03	2.132364E-17	1.549275E-18
4.228393E+03	2.156656E-17	1.566169E-18
4.238295E+03	2.180968E-17	1.583057E-18
4.248198E+03	2.205242E-17	1.599899E-18
4.258100E+03	2.229455E-17	1.616677E-18
4.268003E+03	2.253561E-17	1.633359E-18
4.277905E+03	2.277465E-17	1.649874E-18
4.287808E+03	2.301154E-17	1.666215E-18
4.297711E+03	2.324529E-17	1.682309E-18
4.307613E+03	2.347579E-17	1.698149E-18
4.317516E+03	2.370222E-17	1.713677E-18
4.327418E+03	2.392436E-17	1.728875E-18
4.337321E+03	2.414201E-17	1.743732E-18
4.347223E+03	2.435504E-17	1.758236E-18
4.357126E+03	2.456343E-17	1.772388E-18
4.367028E+03	2.476736E-17	1.786202E-18
4.376931E+03	2.496718E-17	1.799702E-18
4.386834E+03	2.516305E-17	1.812900E-18
4.396736E+03	2.535537E-17	1.825827E-18
4.406639E+03	2.554417E-17	1.838484E-18
4.416541E+03	2.573016E-17	1.850923E-18
4.426444E+03	2.591343E-17	1.863150E-18
4.436346E+03	2.609425E-17	1.875186E-18
4.446249E+03	2.627295E-17	1.887054E-18
4.456151E+03	2.644983E-17	1.898775E-18
4.466054E+03	2.662523E-17	1.910376E-18
4.475957E+03	2.679945E-17	1.921876E-18
4.485859E+03	2.697235E-17	1.933267E-18
4.495762E+03	2.714472E-17	1.944604E-18
4.505664E+03	2.731640E-17	1.955878E-18
4.515567E+03	2.748768E-17	1.967107E-18
4.525469E+03	2.765862E-17	1.978298E-18
4.535372E+03	2.782979E-17	1.989489E-18
4.545274E+03	2.800123E-17	2.000685E-18
4.555177E+03	2.817271E-17	2.011868E-18
4.565080E+03	2.834503E-17	2.023096E-18
4.574982E+03	2.851797E-17	2.034353E-18
4.584885E+03	2.869153E-17	2.045639E-18
4.594787E+03	2.886624E-17	2.056992E-18
4.604690E+03	2.904238E-17	2.068431E-18
4.614592E+03	2.921942E-17	2.079918E-18
4.624495E+03	2.939817E-17	2.091511E-18
4.634398E+03	2.957863E-17	2.103209E-18
4.644300E+03	2.976081E-17	2.115014E-18
4.654203E+03	2.994500E-17	2.126946E-18
4.664105E+03	3.013123E-17	2.139006E-18
4.674008E+03	3.031980E-17	2.151215E-18
4.683910E+03	3.051018E-17	2.163537E-18
4.693813E+03	3.070270E-17	2.175992E-18
4.703715E+03	3.089770E-17	2.188607E-18
4.713618E+03	3.109436E-17	2.201321E-18
4.723521E+03	3.129331E-17	2.214180E-18
4.733423E+03	3.149430E-17	2.227166E-18
4.743326E+03	3.169709E-17	2.240261E-18
4.753228E+03	3.190229E-17	2.253509E-18
4.763131E+03	3.210904E-17	2.266847E-18
4.773033E+03	3.231825E-17	2.280341E-18
4.782936E+03	3.252903E-17	2.293927E-18
4.792838E+03	3.274196E-17	2.307647E-18
4.802741E+03	3.295643E-17	2.321456E-18
4.812644E+03	3.317303E-17	2.335396E-18
4.822546E+03	3.339109E-17	2.349420E-18
4.832449E+03	3.361088E-17	2.363546E-18
4.842351E+03	3.383236E-17	2.377771E-18
4.852254E+03	3.405515E-17	2.392069E-18
4.862156E+03	3.427919E-17	2.406435E-18
4.872059E+03	3.450438E-17	2.420863E-18
4.881961E+03	3.473099E-17	2.435371E-18
4.891864E+03	3.495829E-17	2.449906E-18
4.901767E+03	3.518682E-17	2.464509E-18
4.911669E+03	3.541583E-17	2.479125E-18
4.921572E+03	3.564553E-17	2.493769E-18
4.931474E+03	3.587542E-17	2.508406E-18
4.941377E+03	3.610537E-17	2.523028E-18
4.951279E+03	3.633517E-17	2.537620E-18
4.961182E+03	3.656500E-17	2.552194E-18
4.971085E+03	3.679392E-17	2.566684E-18
4.980987E+03	3.702199E-17	2.581096E-18
4.990890E+03	3.724857E-17	2.595384E-18
5.000792E+03	3.747373E-17	2.609553E-18
5.010695E+03	3.769670E-17	2.623551E-18
5.020597E+03	3.791674E-17	2.637326E-18
5.030500E+03	3.813380E-17	2.650875E-18
5.040402E+03	3.834741E-17	2.664166E-18
5.050305E+03	3.855671E-17	2.677140E-18
5.060208E+03	3.876081E-17	2.689736E-18
5.070110E+03	3.895992E-17	2.701967E-18
5.080013E+03	3.915272E-17	2.713745E-18
5.089915E+03	3.933859E-17	2.725026E-18
5.099818E+03	3.951693E-17	2.735771E-18
5.109720E+03	3.968713E-17	2.745938E-18
5.119623E+03	3.984815E-17	2.755456E-18
5.129525E+03	3.999974E-17	2.764308E-18
5.139428E+03	4.014045E-17	2.772398E-18
5.149331E+03	4.027002E-17	2.779707E-18
5.159233E+03	4.038698E-17	2.786135E-18
5.169136E+03	4.049145E-17	2.791693E-18
5.179038E+03	4.058194E-17	2.796279E-18
5.188941E+03	4.065816E-17	2.799876E-18
5.198843E+03	4.071860E-17	2.802382E-18
5.208746E+03	4.076301E-17	2.803780E-18
5.218648E+03	4.079067E-17	2.804025E-18
5.228551E+03	4.080010E-17	2.803015E-18
5.238454E+03	4.079067E-17	2.800711E-18
5.248356E+03	4.076214E-17	2.797097E-18
5.258259E+03	4.071354E-17	2.792112E-18
5.268161E+03	4.064396E-17	2.785693E-18
5.278064E+03	4.055293E-17	2.777812E-18
5.287966E+03	4.044011E-17	2.768449E-18
5.297869E+03	4.030524E-17	2.757587E-18
5.307772E+03	4.014778E-17	2.745194E-18
5.317674E+03	3.996815E-17	2.731300E-18
5.327577E+03	3.976609E-17	2.715891E-18
5.337479E+03	3.954229E-17	2.699016E-18
5.347382E+03	3.929689E-17	2.680688E-18
5.357284E+03	3.903130E-17	2.661005E-18
5.367187E+03	3.874679E-17	2.640057E-18
5.377089E+03	3.844399E-17	2.617889E-18
5.386992E+03	3.812530E-17	2.594666E-18
5.396895E+03	3.779208E-17	2.570483E-18
5.406797E+03	3.744443E-17	2.545349E-18
5.416700E+03	3.708523E-17	2.519460E-18
5.426602E+03	3.671567E-17	2.492900E-18
5.436505E+03	3.633712E-17	2.465762E-18
5.446407E+03	3.595148E-17	2.438176E-18
5.456310E+03	3.556044E-17	2.410257E-18
5.466212E+03	3.516578E-17	2.382127E-18
5.476115E+03	3.477006E-17	2.353959E-18
5.486018E+03	3.437516E-17	2.325881E-18
5.495920E+03	3.398391E-17	2.298082E-18
5.505823E+03	3.359876E-17	2.270730E-18
5.515725E+03	3.322165E-17	2.243954E-18
5.525628E+03	3.285513E-17	2.217924E-18
5.535530E+03	3.250120E-17	2.192775E-18
5.545433E+03	3.216167E-17	2.168626E-18
5.555335E+03	3.183850E-17	2.145610E-18
5.565238E+03	3.153313E-17	2.123819E-18
5.575141E+03	3.124673E-17	2.103332E-18
5.585043E+03	3.098060E-17	2.084234E-18
5.594946E+03	3.073549E-17	2.066571E-18
5.604848E+03	3.051225E-17	2.050399E-18
5.614751E+03	3.031120E-17	2.035737E-18
5.624653E+03	3.013245E-17	2.022589E-18
5.634556E+03	2.997626E-17	2.010972E-18
5.644459E+03	2.984241E-17	2.000867E-18
5.654361E+03	2.973056E-17	1.992248E-18
5.664264E+03	2.964055E-17	1.985104E-18
5.674166E+03	2.957183E-17	1.979393E-18
5.684069E+03	2.952413E-17	1.975096E-18
5.693971E+03	2.949647E-17	1.972147E-18
5.703874E+03	2.948886E-17	1.970541E-18
5.713776E+03	2.950037E-17	1.970215E-18
5.723679E+03	2.953037E-17	1.971126E-18
5.733582E+03	2.957897E-17	1.973278E-18
5.743484E+03	2.964503E-17	1.976594E-18
5.753387E+03	2.972874E-17	1.981083E-18
5.763289E+03	2.982973E-17	1.986720E-18
5.773192E+03	2.994765E-17	1.993480E-18
5.783094E+03	3.008190E-17	2.001321E-18
5.792997E+03	3.023290E-17	2.010269E-18
5.802899E+03	3.040009E-17	2.020284E-18
5.812802E+03	3.058364E-17	2.031378E-18
5.822705E+03	3.078336E-17	2.043535E-18
5.832607E+03	3.099879E-17	2.056722E-18
5.842510E+03	3.123008E-17	2.070950E-18
5.852412E+03	3.147745E-17	2.086231E-18
5.862315E+03	3.174004E-17	2.102505E-18
5.872217E+03	3.201802E-17	2.119784E-18
5.882120E+03	3.231120E-17	2.138052E-18
5.892022E+03	3.261975E-17	2.157319E-18
5.901925E+03	3.294269E-17	2.177520E-18
5.911828E+03	3.328050E-17	2.198686E-18
5.921730E+03	3.363216E-17	2.220746E-18
5.931633E+03	3.399773E-17	2.243703E-18
5.941535E+03	3.437687E-17	2.267535E-18
5.951438E+03	3.476883E-17	2.292190E-18
5.961340E+03	3.517358E-17	2.317666E-18
5.971243E+03	3.558987E-17	2.343879E-18
5.981146E+03	3.601806E-17	2.370851E-18
5.991048E+03	3.645636E-17	2.398465E-18
6.000951E+03	3.690506E-17	2.426738E-18
6.010853E+03	3.736269E-17	2.455573E-18
6.020756E+03	3.782901E-17	2.484954E-18
6.030658E+03	3.830243E-17	2.514775E-18
6.040561E+03	3.878216E-17	2.544985E-18
6.050463E+03	3.926690E-17	2.575498E-18
6.060366E+03	3.975575E-17	2.606254E-18
6.070269E+03	4.024680E-17	2.637130E-18
6.080171E+03	4.073853E-17	2.668024E-18
6.090074E+03	4.122985E-17	2.698866E-18
6.099976E+03	4.171916E-17	2.729552E-18
6.109879E+03	4.220383E-17	2.759910E-18
6.119781E+03	4.268270E-17	2.789867E-18
6.129684E+03	4.315417E-17	2.819317E-18
6.139586E+03	4.361724E-17	2.848197E-18
6.149489E+03	4.407158E-17	2.876485E-18
6.159392E+03	4.451697E-17	2.904171E-18
6.169294E+03	4.495392E-17	2.931287E-18
6.179197E+03	4.538420E-17	2.957950E-18
6.189099E+03	4.580803E-17	2.984177E-18
6.199002E+03	4.622511E-17	3.009947E-18
6.208904E+03	4.663759E-17	3.035402E-18
6.218807E+03	4.704590E-17	3.060572E-18
6.228709E+03	4.744929E-17	3.085407E-18
6.238612E+03	4.785017E-17	3.110065E-18
6.248515E+03	4.824719E-17	3.134460E-18
6.258417E+03	4.864221E-17	3.158712E-18
6.268320E+03	4.903456E-17	3.182777E-18
6.278222E+03	4.942485E-17	3.206697E-18
6.288125E+03	4.981307E-17	3.230470E-18
6.298027E+03	5.019918E-17	3.254096E-18
6.307930E+03	5.058314E-17	3.277571E-18
6.317833E+03	5.096420E-17	3.300848E-18
6.327735E+03	5.134158E-17	3.323875E-18
6.337638E+03	5.171590E-17	3.346695E-18
6.347540E+03	5.208559E-17	3.369206E-18
6.357443E+03	5.245131E-17	3.391451E-18
6.367345E+03	5.281216E-17	3.413373E-18
6.377248E+03	5.316806E-17	3.434967E-18
6.387150E+03	5.351967E-17	3.456276E-18
6.397053E+03	5.386851E-17	3.477399E-18
6.406956E+03	5.421459E-17	3.498338E-18
6.416858E+03	5.455876E-17	3.519147E-18
6.426761E+03	5.490190E-17	3.539883E-18
6.436663E+03	5.524324E-17	3.560498E-18
6.446566E+03	5.558458E-17	3.581108E-18
6.456468E+03	5.592606E-17	3.601721E-18
6.466371E+03	5.626695E-17	3.622292E-18
6.476273E+03	5.660914E-17	3.642943E-18
6.486176E+03	5.695191E-17	3.663625E-18
6.496079E+03	5.729450E-17	3.684292E-18
6.505981E+03	5.763885E-17	3.705070E-18
6.515884E+03	5.798420E-17	3.725907E-18
6.525786E+03	5.833066E-17	3.746813E-18
6.535689E+03	5.867931E-17	3.767857E-18
6.545591E+03	5.902835E-17	3.788922E-18
6.555494E+03	5.937782E-17	3.810013E-18
6.565396E+03	5.972972E-17	3.831258E-18
6.575299E+03	6.008214E-17	3.852534E-18
6.585202E+03	6.043504E-17	3.873840E-18
6.595104E+03	6.078941E-17	3.895238E-18
6.605007E+03	6.114418E-17	3.916661E-18
6.614909E+03	6.149923E-17	3.938102E-18
6.624812E+03	6.185553E-17	3.959622E-18
6.634714E+03	6.221081E-17	3.981078E-18
6.644617E+03	6.256485E-17	4.002455E-18
6.654520E+03	6.291961E-17	4.023879E-18
6.664422E+03	6.327270E-17	4.045198E-18
6.674325E+03	6.362383E-17	4.066393E-18
6.684227E+03	6.397384E-17	4.087520E-18
6.694130E+03	6.432131E-17	4.108487E-18
6.704032E+03	6.466589E-17	4.129274E-18
6.713935E+03	6.500723E-17	4.149858E-18
6.723837E+03	6.534499E-17	4.170217E-18
6.733740E+03	6.567760E-17	4.190255E-18
6.743643E+03	6.600585E-17	4.210020E-18
6.753545E+03	6.632936E-17	4.229489E-18
6.763448E+03	6.664653E-17	4.248561E-18
6.773350E+03	6.695818E-17	4.267290E-18
6.783253E+03	6.726269E-17	4.285573E-18
6.793155E+03	6.755967E-17	4.303385E-18
6.803058E+03	6.784872E-17	4.320704E-18
6.812960E+03	6.812820E-17	4.337423E-18
6.822863E+03	6.840030E-17	4.353685E-18
6.832766E+03	6.866340E-17	4.369387E-18
6.842668E+03	6.891589E-17	4.384427E-18
6.852571E+03	6.915874E-17	4.398868E-18
6.862473E+03	6.939036E-17	4.412610E-18
6.872376E+03	6.961047E-17	4.425636E-18
6.882278E+03	6.982013E-17	4.438016E-18
6.892181E+03	7.001783E-17	4.449652E-18
6.902083E+03	7.020334E-17	4.460532E-18
6.911986E+03	7.037650E-17	4.470648E-18
6.921889E+03	7.053720E-17	4.479992E-18
6.931791E+03	7.068395E-17	4.488471E-18
6.941694E+03	7.081949E-17	4.496260E-18
6.951596E+03	7.094103E-17	4.503183E-18
6.961499E+03	7.104863E-17	4.509245E-18
6.971401E+03	7.114377E-17	4.514539E-18
6.981304E+03	7.122523E-17	4.518991E-18
6.991207E+03	7.129319E-17	4.522613E-18
7.001109E+03	7.134797E-17	4.525424E-18
7.011012E+03	7.138987E-17	4.527446E-18
7.020914E+03	7.142077E-17	4.528798E-18
7.030817E+03	7.143826E-17	4.529329E-18
7.040719E+03	7.144291E-17	4.529073E-18
7.050622E+03	7.143673E-17	4.528162E-18
7.060524E+03	7.142044E-17	4.526639E-18
7.070427E+03	7.139329E-17	4.524460E-18
7.080330E+03	7.135757E-17	4.521769E-18
7.090232E+03	7.131120E-17	4.518434E-18
7.100135E+03	7.125798E-17	4.514698E-18
7.110037E+03	7.119739E-17	4.510527E-18
7.119940E+03	7.113039E-17	4.505984E-18
7.129842E+03	7.105648E-17	4.501036E-18
7.139745E+03	7.097957E-17	4.495933E-18
7.149647E+03	7.089771E-17	4.490550E-18
7.159550E+03	7.081332E-17	4.485041E-18
7.169453E+03	7.072584E-17	4.479372E-18
7.179355E+03	7.063763E-17	4.473692E-18
7.189258E+03	7.054800E-17	4.467958E-18
7.199160E+03	7.045771E-17	4.462218E-18
7.209063E+03	7.036892E-17	4.456610E-18
7.218965E+03	7.028071E-17	4.451075E-18
7.228868E+03	7.019509E-17	4.445741E-18
7.238770E+03	7.010945E-17	4.440443E-18
7.248673E+03	7.002565E-17	4.435300E-18
7.258576E+03	6.994541E-17	4.430420E-18
7.268478E+03	6.986592E-17	4.425626E-18
7.278381E+03	6.978875E-17	4.421018E-18
7.288283E+03	6.971246E-17	4.416505E-18
7.298186E+03	6.963852E-17	4.412181E-18
7.308088E+03	6.956536E-17	4.407945E-18
7.317991E+03	6.949282E-17	4.403790E-18
7.327894E+03	6.942072E-17	4.399703E-18
7.337796E+03	6.934729E-17	4.395573E-18
7.347699E+03	6.927221E-17	4.391379E-18
7.357601E+03	6.919508E-17	4.387098E-18
7.367504E+03	6.911547E-17	4.382702E-18
7.377406E+03	6.903442E-17	4.378255E-18
7.387309E+03	6.894976E-17	4.373624E-18
7.397211E+03	6.886402E-17	4.368967E-18
7.407114E+03	6.877660E-17	4.364246E-18
7.417017E+03	6.868696E-17	4.359427E-18
7.426919E+03	6.859475E-17	4.354490E-18
7.436822E+03	6.849986E-17	4.349426E-18
7.446724E+03	6.840561E-17	4.344444E-18
7.456627E+03	6.830942E-17	4.339382E-18
7.466529E+03	6.821365E-17	4.334387E-18
7.476432E+03	6.811922E-17	4.329518E-18
7.486334E+03	6.802874E-17	4.324938E-18
7.496237E+03	6.793999E-17	4.320508E-18
7.506140E+03	6.785544E-17	4.316383E-18
7.516042E+03	6.777584E-17	4.312611E-18
7.525945E+03	6.770346E-17	4.309336E-18
7.535847E+03	6.763565E-17	4.306388E-18
7.545750E+03	6.757601E-17	4.303997E-18
7.555652E+03	6.752327E-17	4.302081E-18
7.565555E+03	6.747603E-17	4.300552E-18
7.575457E+03	6.743763E-17	4.299621E-18
7.585360E+03	6.740651E-17	4.299189E-18
7.595263E+03	6.738265E-17	4.299255E-18
7.605165E+03	6.736595E-17	4.299813E-18
7.615068E+03	6.735628E-17	4.300853E-18
7.624970E+03	6.735339E-17	4.302361E-18
7.634873E+03	6.735869E-17	4.304425E-18
7.644775E+03	6.736856E-17	4.306816E-18
7.654678E+03	6.738595E-17	4.309721E-18
7.664581E+03	6.740877E-17	4.313006E-18
7.674483E+03	6.743661E-17	4.316645E-18
7.684386E+03	6.746893E-17	4.320605E-18
