#wls	flux	fluxerr
1.584409E+03	7.353577E-17	2.779550E-17
1.624020E+03	7.806622E-17	2.940102E-17
1.663630E+03	8.253845E-17	3.097231E-17
1.703240E+03	8.688620E-17	3.247637E-17
1.742850E+03	9.105506E-17	3.390112E-17
1.782461E+03	9.493014E-17	3.519493E-17
1.822071E+03	9.836321E-17	3.631345E-17
1.861681E+03	1.012109E-16	3.719502E-17
1.901291E+03	1.032622E-16	3.777572E-17
1.940902E+03	1.043607E-16	3.799063E-17
1.980512E+03	1.043918E-16	3.781498E-17
2.020122E+03	1.034599E-16	3.727959E-17
2.059732E+03	1.019194E-16	3.652973E-17
2.099342E+03	1.004735E-16	3.580664E-17
2.138953E+03	9.990467E-17	3.540032E-17
2.178563E+03	1.007022E-16	3.546415E-17
2.218173E+03	1.027585E-16	3.596523E-17
2.257783E+03	1.055088E-16	3.668386E-17
2.297394E+03	1.081930E-16	3.736711E-17
2.337004E+03	1.102411E-16	3.780339E-17
2.376614E+03	1.112646E-16	3.788097E-17
2.416224E+03	1.111140E-16	3.753946E-17
2.455835E+03	1.097670E-16	3.679785E-17
2.495445E+03	1.072955E-16	3.567190E-17
2.535055E+03	1.037970E-16	3.422127E-17
2.574665E+03	9.942191E-17	3.248667E-17
2.614276E+03	9.430185E-17	3.053680E-17
2.653886E+03	8.860020E-17	2.841484E-17
2.693496E+03	8.244903E-17	2.618583E-17
2.733106E+03	7.601294E-17	2.389166E-17
2.772716E+03	6.941863E-17	2.159084E-17
2.812327E+03	6.281908E-17	1.931997E-17
2.851937E+03	5.633006E-17	1.712878E-17
2.891547E+03	5.008221E-17	1.504545E-17
2.931157E+03	4.416347E-17	1.310575E-17
2.960437E+03	1.486881E-16	4.370701E-17
2.960635E+03	1.489613E-16	4.378449E-17
2.962617E+03	1.493317E-16	4.386474E-17
2.962815E+03	1.495814E-16	4.393520E-17
2.964201E+03	1.498641E-16	4.399810E-17
2.964399E+03	1.501059E-16	4.406622E-17
2.965786E+03	1.503650E-16	4.412207E-17
2.966578E+03	1.505997E-16	4.417936E-17
2.967370E+03	1.508345E-16	4.423664E-17
2.967568E+03	1.510288E-16	4.429071E-17
2.967965E+03	1.512101E-16	4.433807E-17
2.968163E+03	1.513965E-16	4.438979E-17
2.969549E+03	1.516325E-16	4.443848E-17
2.983413E+03	1.525485E-16	4.450044E-17
2.983809E+03	1.527067E-16	4.454065E-17
2.984602E+03	1.528788E-16	4.457896E-17
2.985394E+03	1.530429E-16	4.461490E-17
2.986385E+03	1.532182E-16	4.465105E-17
2.986979E+03	1.533795E-16	4.468911E-17
2.987573E+03	1.535328E-16	4.472482E-17
2.988365E+03	1.537052E-16	4.476305E-17
2.989752E+03	1.538866E-16	4.479486E-17
2.989950E+03	1.539940E-16	4.482312E-17
2.990148E+03	1.540854E-16	4.484672E-17
2.990940E+03	1.542018E-16	4.486854E-17
2.991931E+03	1.543212E-16	4.488821E-17
2.992723E+03	1.544295E-16	4.490766E-17
2.993516E+03	1.545138E-16	4.492008E-17
2.993911E+03	1.545841E-16	4.493447E-17
2.994109E+03	1.546273E-16	4.494401E-17
2.994307E+03	1.546625E-16	4.495121E-17
2.995495E+03	1.547527E-16	4.495927E-17
2.995693E+03	1.547799E-16	4.496412E-17
2.996288E+03	1.548290E-16	4.496930E-17
2.996486E+03	1.548400E-16	4.496947E-17
2.998269E+03	1.549312E-16	4.496860E-17
2.998467E+03	1.549261E-16	4.496407E-17
2.999457E+03	1.549650E-16	4.496016E-17
3.002428E+03	1.551060E-16	4.495534E-17
3.002626E+03	1.550847E-16	4.494613E-17
3.002824E+03	1.550634E-16	4.493689E-17
3.004212E+03	1.550920E-16	4.492380E-17
3.004410E+03	1.550545E-16	4.490989E-17
3.004805E+03	1.550199E-16	4.489378E-17
3.005004E+03	1.549743E-16	4.487752E-17
3.005202E+03	1.549126E-16	4.485659E-17
3.005795E+03	1.548727E-16	4.483590E-17
3.006587E+03	1.548519E-16	4.481767E-17
3.007181E+03	1.547878E-16	4.478995E-17
3.007379E+03	1.546936E-16	4.475965E-17
3.007775E+03	1.546023E-16	4.472711E-17
3.008568E+03	1.545328E-16	4.469481E-17
3.008766E+03	1.544466E-16	4.466683E-17
3.008964E+03	1.543280E-16	4.462949E-17
3.009162E+03	1.542256E-16	4.459683E-17
3.009360E+03	1.541070E-16	4.455949E-17
3.010747E+03	1.540457E-16	4.452044E-17
3.011341E+03	1.539326E-16	4.447862E-17
3.011539E+03	1.537896E-16	4.443425E-17
3.012926E+03	1.536955E-16	4.438578E-17
3.013124E+03	1.535442E-16	4.433906E-17
3.013520E+03	1.533795E-16	4.428541E-17
3.014510E+03	1.532715E-16	4.423904E-17
3.014708E+03	1.530958E-16	4.418528E-17
3.015104E+03	1.529064E-16	4.412458E-17
3.015500E+03	1.527090E-16	4.406156E-17
3.015699E+03	1.525007E-16	4.399843E-17
3.015898E+03	1.522762E-16	4.393062E-17
3.016492E+03	1.520894E-16	4.386766E-17
3.017877E+03	1.519290E-16	4.380033E-17
3.018867E+03	1.517633E-16	4.373747E-17
3.019263E+03	1.515410E-16	4.366737E-17
3.019461E+03	1.512836E-16	4.359020E-17
3.020650E+03	1.510875E-16	4.351566E-17
3.020848E+03	1.508380E-16	4.344082E-17
3.022829E+03	1.506597E-16	4.335945E-17
3.023027E+03	1.503775E-16	4.327523E-17
3.023225E+03	1.500789E-16	4.318631E-17
3.025800E+03	1.499314E-16	4.310496E-17
3.028772E+03	1.497963E-16	4.302124E-17
3.030157E+03	1.495437E-16	4.292777E-17
3.031346E+03	1.493033E-16	4.284084E-17
3.031544E+03	1.489790E-16	4.274479E-17
3.031940E+03	1.486566E-16	4.264635E-17
3.032336E+03	1.483424E-16	4.255026E-17
3.035308E+03	1.481448E-16	4.244899E-17
3.036892E+03	1.478756E-16	4.234808E-17
3.039467E+03	1.476583E-16	4.224724E-17
3.041448E+03	1.474101E-16	4.214654E-17
3.041645E+03	1.470520E-16	4.204121E-17
3.043032E+03	1.467234E-16	4.192653E-17
3.043626E+03	1.463613E-16	4.181420E-17
3.045210E+03	1.460428E-16	4.169962E-17
3.045804E+03	1.456722E-16	4.158497E-17
3.046597E+03	1.452955E-16	4.146566E-17
3.047786E+03	1.449393E-16	4.134645E-17
3.049964E+03	1.446269E-16	4.122510E-17
3.051549E+03	1.442831E-16	4.110371E-17
3.051747E+03	1.438497E-16	4.097733E-17
3.051946E+03	1.434163E-16	4.085095E-17
3.052144E+03	1.429746E-16	4.072222E-17
3.054123E+03	1.426260E-16	4.059399E-17
3.054718E+03	1.421963E-16	4.046304E-17
3.055708E+03	1.417790E-16	4.032988E-17
3.056302E+03	1.413243E-16	4.019192E-17
3.057094E+03	1.408880E-16	4.005637E-17
3.058482E+03	1.404578E-16	3.991402E-17
3.059472E+03	1.400313E-16	3.977855E-17
3.059670E+03	1.395388E-16	3.963580E-17
3.062839E+03	1.391919E-16	3.949184E-17
3.064028E+03	1.387336E-16	3.934478E-17
3.064622E+03	1.382277E-16	3.919283E-17
3.066206E+03	1.377893E-16	3.904599E-17
3.066404E+03	1.372541E-16	3.889152E-17
3.066998E+03	1.367310E-16	3.873489E-17
3.068384E+03	1.362565E-16	3.858096E-17
3.068582E+03	1.357043E-16	3.842181E-17
3.068780E+03	1.351603E-16	3.826501E-17
3.068978E+03	1.345913E-16	3.810118E-17
3.069770E+03	1.340607E-16	3.793996E-17
3.069970E+03	1.334915E-16	3.777612E-17
3.070168E+03	1.329139E-16	3.760996E-17
3.070564E+03	1.323379E-16	3.744153E-17
3.071950E+03	1.318028E-16	3.727121E-17
3.072346E+03	1.312097E-16	3.709810E-17
3.072544E+03	1.306315E-16	3.693192E-17
3.073138E+03	1.300396E-16	3.675656E-17
3.073336E+03	1.294445E-16	3.658571E-17
3.074723E+03	1.288910E-16	3.641070E-17
3.075317E+03	1.282899E-16	3.623300E-17
3.075912E+03	1.276804E-16	3.605296E-17
3.076901E+03	1.270814E-16	3.587075E-17
3.077298E+03	1.264535E-16	3.568827E-17
3.078684E+03	1.258645E-16	3.550390E-17
3.078882E+03	1.252181E-16	3.531898E-17
3.079674E+03	1.245833E-16	3.512964E-17
3.079872E+03	1.239199E-16	3.494004E-17
3.080268E+03	1.232575E-16	3.474818E-17
3.080466E+03	1.225856E-16	3.455623E-17
3.080862E+03	1.219145E-16	3.436202E-17
3.081060E+03	1.212258E-16	3.416538E-17
3.081655E+03	1.205386E-16	3.396424E-17
3.082052E+03	1.198586E-16	3.376769E-17
3.083042E+03	1.191807E-16	3.356437E-17
3.083834E+03	1.185016E-16	3.336331E-17
3.084428E+03	1.177964E-16	3.315748E-17
3.085022E+03	1.171159E-16	3.295866E-17
3.085220E+03	1.163841E-16	3.275030E-17
3.085617E+03	1.156693E-16	3.254437E-17
3.086409E+03	1.149552E-16	3.233392E-17
3.087796E+03	1.142752E-16	3.212607E-17
3.087994E+03	1.135341E-16	3.191537E-17
3.088984E+03	1.128107E-16	3.170030E-17
3.089380E+03	1.120693E-16	3.148732E-17
3.089578E+03	1.113025E-16	3.126958E-17
3.089776E+03	1.105356E-16	3.105182E-17
3.089974E+03	1.097602E-16	3.083174E-17
3.090568E+03	1.090182E-16	3.061650E-17
3.090766E+03	1.082425E-16	3.039640E-17
3.090964E+03	1.074750E-16	3.017864E-17
3.091162E+03	1.066823E-16	2.995386E-17
3.091360E+03	1.058980E-16	2.973142E-17
3.091558E+03	1.051051E-16	2.950663E-17
3.092152E+03	1.043114E-16	2.927732E-17
3.092350E+03	1.035265E-16	2.905486E-17
3.092548E+03	1.027165E-16	2.882539E-17
3.092944E+03	1.019141E-16	2.859599E-17
3.093341E+03	1.011199E-16	2.836893E-17
3.093539E+03	1.003177E-16	2.814179E-17
3.093936E+03	9.949804E-17	2.790770E-17
3.094530E+03	9.868567E-17	2.767368E-17
3.095322E+03	9.788879E-17	2.744206E-17
3.095520E+03	9.705234E-17	2.720555E-17
3.095718E+03	9.621574E-17	2.696903E-17
3.096312E+03	9.539369E-17	2.673265E-17
3.096708E+03	9.457236E-17	2.649854E-17
3.096906E+03	9.371845E-17	2.625733E-17
3.097303E+03	9.287994E-17	2.601853E-17
3.097501E+03	9.202576E-17	2.577732E-17
3.098689E+03	9.118983E-17	2.553175E-17
3.098887E+03	9.032665E-17	2.528819E-17
3.099085E+03	8.947171E-17	2.504697E-17
3.099680E+03	8.863034E-17	2.480587E-17
3.099878E+03	8.777498E-17	2.456464E-17
3.100076E+03	8.690280E-17	2.431874E-17
3.100472E+03	8.603707E-17	2.407288E-17
3.100669E+03	8.514775E-17	2.382228E-17
3.101660E+03	8.428437E-17	2.357192E-17
3.101858E+03	8.341212E-17	2.332623E-17
3.102056E+03	8.254813E-17	2.308289E-17
3.102254E+03	8.165971E-17	2.283275E-17
3.102848E+03	8.077441E-17	2.258014E-17
3.103046E+03	7.987131E-17	2.232602E-17
3.103244E+03	7.896721E-17	2.207164E-17
3.103442E+03	7.806216E-17	2.181705E-17
3.103838E+03	7.717136E-17	2.156485E-17
3.104036E+03	7.626427E-17	2.130978E-17
3.104234E+03	7.535368E-17	2.105376E-17
3.104630E+03	7.444959E-17	2.079804E-17
3.105027E+03	7.354606E-17	2.054255E-17
3.105225E+03	7.262987E-17	2.028512E-17
3.105820E+03	7.172556E-17	2.002804E-17
3.106018E+03	7.081569E-17	1.977249E-17
3.106612E+03	6.991817E-17	1.951749E-17
3.107008E+03	6.900650E-17	1.926011E-17
3.107206E+03	6.811700E-17	1.901041E-17
3.107404E+03	6.721138E-17	1.875626E-17
3.108196E+03	6.630679E-17	1.849825E-17
3.108394E+03	6.538978E-17	1.824105E-17
3.108989E+03	6.449349E-17	1.798696E-17
3.110375E+03	6.361239E-17	1.773187E-17
3.110573E+03	6.269523E-17	1.747490E-17
3.110969E+03	6.177854E-17	1.721679E-17
3.111167E+03	6.086183E-17	1.696004E-17
3.111365E+03	5.992819E-17	1.669860E-17
3.111960E+03	5.901959E-17	1.644170E-17
3.112158E+03	5.810147E-17	1.618471E-17
3.112554E+03	5.716664E-17	1.592189E-17
3.112752E+03	5.623218E-17	1.566045E-17
3.113940E+03	5.531403E-17	1.539776E-17
3.114138E+03	5.437977E-17	1.513655E-17
3.114336E+03	5.345464E-17	1.487791E-17
3.114534E+03	5.253273E-17	1.462021E-17
3.114732E+03	5.161320E-17	1.436321E-17
3.114930E+03	5.067163E-17	1.410012E-17
3.115326E+03	4.975063E-17	1.384174E-17
3.115524E+03	4.883986E-17	1.358731E-17
3.115722E+03	4.790536E-17	1.332632E-17
3.115920E+03	4.697493E-17	1.306651E-17
3.116118E+03	4.603930E-17	1.280528E-17
3.116514E+03	4.510620E-17	1.254385E-17
3.116713E+03	4.418368E-17	1.228637E-17
3.117307E+03	4.326439E-17	1.202800E-17
3.117506E+03	4.235748E-17	1.177496E-17
3.117704E+03	4.143102E-17	1.151654E-17
3.118100E+03	4.051600E-17	1.126049E-17
3.118298E+03	3.960943E-17	1.100769E-17
3.118694E+03	3.868463E-17	1.074905E-17
3.118892E+03	3.775999E-17	1.049132E-17
3.119288E+03	3.683469E-17	1.023268E-17
3.120278E+03	3.593775E-17	9.979712E-18
3.120477E+03	3.502497E-17	9.725498E-18
3.120675E+03	3.411374E-17	9.471751E-18
3.120873E+03	3.319729E-17	9.216596E-18
3.121269E+03	3.231024E-17	8.968955E-18
3.121467E+03	3.141792E-17	8.720595E-18
3.121863E+03	3.050252E-17	8.465217E-18
3.122061E+03	2.959719E-17	8.213339E-18
3.122259E+03	2.870439E-17	7.964974E-18
3.122655E+03	2.781699E-17	7.717559E-18
3.122853E+03	2.691201E-17	7.465911E-18
3.123448E+03	2.601603E-17	7.215692E-18
3.123646E+03	2.514780E-17	6.974352E-18
3.124042E+03	2.428049E-17	6.732788E-18
3.124438E+03	2.339600E-17	6.486535E-18
3.124637E+03	2.250525E-17	6.239098E-18
3.124834E+03	2.163888E-17	5.998457E-18
3.125032E+03	2.076392E-17	5.755473E-18
3.125428E+03	1.989376E-17	5.513432E-18
3.126418E+03	1.904216E-17	5.275396E-18
3.126616E+03	1.818252E-17	5.036858E-18
3.127012E+03	1.733679E-17	4.801841E-18
3.127408E+03	1.647473E-17	4.562371E-18
3.127606E+03	1.560863E-17	4.322190E-18
3.128002E+03	1.476471E-17	4.087874E-18
3.128201E+03	1.391013E-17	3.850972E-18
3.128399E+03	1.307403E-17	3.619224E-18
3.128597E+03	1.225390E-17	3.391929E-18
3.128795E+03	1.141923E-17	3.160648E-18
3.128993E+03	1.058953E-17	2.930775E-18
3.129191E+03	9.780009E-18	2.706523E-18
3.129390E+03	8.950890E-18	2.476881E-18
3.129588E+03	8.129774E-18	2.249490E-18
3.130182E+03	7.346599E-18	2.032318E-18
3.130776E+03	6.553396E-18	1.812473E-18
3.130974E+03	5.771041E-18	1.595974E-18
3.131370E+03	4.979548E-18	1.376876E-18
3.131568E+03	4.183920E-18	1.156791E-18
3.131964E+03	3.411743E-18	9.431503E-19
3.132163E+03	2.625555E-18	7.257588E-19
3.132361E+03	1.857303E-18	5.133582E-19
3.132559E+03	1.079011E-18	2.982153E-19
3.132955E+03	3.110759E-19	8.596144E-20
3.133153E+03	-4.501764E-19	-1.243903E-19
3.133549E+03	-1.184186E-18	-3.271572E-19
3.133747E+03	-1.925162E-18	-5.318273E-19
3.133945E+03	-2.667612E-18	-7.368726E-19
3.134143E+03	-3.387695E-18	-9.357084E-19
3.134341E+03	-4.119599E-18	-1.137778E-18
3.134539E+03	-4.819543E-18	-1.330991E-18
3.134737E+03	-5.526044E-18	-1.525984E-18
3.135332E+03	-6.234140E-18	-1.721121E-18
3.135530E+03	-6.917805E-18	-1.909719E-18
3.135728E+03	-7.607000E-18	-2.099815E-18
3.135926E+03	-8.282468E-18	-2.286093E-18
3.136323E+03	-8.926134E-18	-2.463374E-18
3.136520E+03	-9.567130E-18	-2.640068E-18
3.136719E+03	-1.020144E-17	-2.814887E-18
3.136917E+03	-1.083074E-17	-2.988300E-18
3.137510E+03	-1.145429E-17	-3.159610E-18
3.138104E+03	-1.207303E-17	-3.329512E-18
3.138302E+03	-1.268413E-17	-3.497771E-18
3.138698E+03	-1.328871E-17	-3.663922E-18
3.138896E+03	-1.388985E-17	-3.829369E-18
3.139094E+03	-1.448343E-17	-3.992707E-18
3.139292E+03	-1.506860E-17	-4.153701E-18
3.139490E+03	-1.564961E-17	-4.313525E-18
3.139688E+03	-1.622051E-17	-4.470535E-18
3.139887E+03	-1.678129E-17	-4.624734E-18
3.140085E+03	-1.733027E-17	-4.775653E-18
3.140481E+03	-1.787050E-17	-4.923760E-18
3.140679E+03	-1.839842E-17	-5.068820E-18
3.140877E+03	-1.891536E-17	-5.210834E-18
3.141075E+03	-1.942047E-17	-5.349566E-18
3.141274E+03	-1.991545E-17	-5.485486E-18
3.141472E+03	-2.039860E-17	-5.618126E-18
3.141670E+03	-2.087076E-17	-5.747720E-18
3.142264E+03	-2.133440E-17	-5.874035E-18
3.142462E+03	-2.177103E-17	-5.993785E-18
3.142660E+03	-2.218899E-17	-6.108380E-18
3.142858E+03	-2.262065E-17	-6.226725E-18
3.143056E+03	-2.305747E-17	-6.346475E-18
3.143254E+03	-2.347224E-17	-6.460133E-18
3.143452E+03	-2.388621E-17	-6.573556E-18
3.143650E+03	-2.425000E-17	-6.673152E-18
3.143849E+03	-2.463429E-17	-6.778374E-18
3.144047E+03	-2.500245E-17	-6.879142E-18
3.144245E+03	-2.536727E-17	-6.978973E-18
3.144443E+03	-2.570318E-17	-7.070836E-18
3.144641E+03	-2.600932E-17	-7.154497E-18
3.144839E+03	-2.631977E-17	-7.239330E-18
3.145037E+03	-2.662175E-17	-7.321819E-18
3.145235E+03	-2.690247E-17	-7.398448E-18
3.145433E+03	-2.719091E-17	-7.477188E-18
3.145631E+03	-2.745467E-17	-7.549131E-18
3.145829E+03	-2.769206E-17	-7.613810E-18
3.146027E+03	-2.793630E-17	-7.680362E-18
3.146423E+03	-2.816914E-17	-7.743166E-18
3.146621E+03	-2.835294E-17	-7.793080E-18
3.146819E+03	-2.856149E-17	-7.849790E-18
3.147017E+03	-2.873853E-17	-7.897830E-18
3.147216E+03	-2.891476E-17	-7.945635E-18
3.147414E+03	-2.904068E-17	-7.979613E-18
3.147612E+03	-2.919050E-17	-8.020152E-18
3.147811E+03	-2.929684E-17	-8.048741E-18
3.148207E+03	-2.940038E-17	-8.075921E-18
3.148405E+03	-2.950761E-17	-8.104743E-18
3.148801E+03	-2.960181E-17	-8.129344E-18
3.149196E+03	-2.968238E-17	-8.150197E-18
3.149395E+03	-2.973250E-17	-8.163316E-18
3.149592E+03	-2.976213E-17	-8.170812E-18
3.149790E+03	-2.978152E-17	-8.175497E-18
3.149988E+03	-2.979324E-17	-8.178071E-18
3.150186E+03	-2.976312E-17	-8.169162E-18
3.150582E+03	-2.974470E-17	-8.162827E-18
3.150780E+03	-2.970688E-17	-8.151809E-18
3.150978E+03	-2.963319E-17	-8.130949E-18
3.151176E+03	-2.954155E-17	-8.105167E-18
3.151374E+03	-2.944904E-17	-8.079151E-18
3.151573E+03	-2.933430E-17	-8.047042E-18
3.151771E+03	-2.920588E-17	-8.011184E-18
3.151969E+03	-2.904753E-17	-7.967124E-18
3.152167E+03	-2.888061E-17	-7.920718E-18
3.152365E+03	-2.869231E-17	-7.868456E-18
3.152563E+03	-2.848773E-17	-7.811741E-18
3.152761E+03	-2.827800E-17	-7.753619E-18
3.152959E+03	-2.804601E-17	-7.689404E-18
3.153158E+03	-2.777211E-17	-7.613708E-18
3.153356E+03	-2.747337E-17	-7.531215E-18
3.153554E+03	-2.718227E-17	-7.450831E-18
3.153752E+03	-2.687573E-17	-7.366228E-18
3.154148E+03	-2.654643E-17	-7.274826E-18
3.154346E+03	-2.618590E-17	-7.175460E-18
3.154544E+03	-2.579965E-17	-7.069064E-18
3.154742E+03	-2.540992E-17	-6.961731E-18
3.154940E+03	-2.499704E-17	-6.848071E-18
3.155336E+03	-2.457489E-17	-6.731359E-18
3.155535E+03	-2.413104E-17	-6.609262E-18
3.155733E+03	-2.365717E-17	-6.478964E-18
3.155931E+03	-2.316441E-17	-6.343511E-18
3.156129E+03	-2.263905E-17	-6.199153E-18
3.156327E+03	-2.209991E-17	-6.051047E-18
3.156525E+03	-2.152046E-17	-5.891925E-18
3.156723E+03	-2.095547E-17	-5.736789E-18
3.156921E+03	-2.034245E-17	-5.568529E-18
3.157317E+03	-1.971889E-17	-5.396984E-18
3.157515E+03	-1.907481E-17	-5.220289E-18
3.157713E+03	-1.839467E-17	-5.033753E-18
3.158109E+03	-1.770808E-17	-4.845101E-18
3.158307E+03	-1.699426E-17	-4.649426E-18
3.158505E+03	-1.625978E-17	-4.448128E-18
3.158703E+03	-1.550462E-17	-4.241207E-18
3.159299E+03	-1.473022E-17	-4.028416E-18
3.159497E+03	-1.393186E-17	-3.809778E-18
3.159695E+03	-1.311280E-17	-3.585517E-18
3.160091E+03	-1.227143E-17	-3.354926E-18
3.160288E+03	-1.140748E-17	-3.118481E-18
3.160487E+03	-1.052026E-17	-2.875710E-18
3.160684E+03	-9.610590E-18	-2.626846E-18
3.160882E+03	-8.676784E-18	-2.371423E-18
3.161278E+03	-7.726797E-18	-2.111450E-18
3.161476E+03	-6.751378E-18	-1.844758E-18
3.161674E+03	-5.742528E-18	-1.568973E-18
3.161872E+03	-4.714391E-18	-1.287964E-18
3.162070E+03	-3.663965E-18	-1.000910E-18
3.162466E+03	-2.579433E-18	-7.045290E-19
3.162664E+03	-1.466305E-18	-4.004650E-19
3.162862E+03	-3.319909E-19	-9.066336E-20
3.163060E+03	8.219283E-19	2.244425E-19
3.163259E+03	2.002502E-18	5.467761E-19
3.163457E+03	3.210139E-18	8.764478E-19
3.163655E+03	4.444830E-18	1.213453E-18
3.163853E+03	5.706754E-18	1.557838E-18
3.164051E+03	6.996085E-18	1.909650E-18
3.164249E+03	8.312916E-18	2.268911E-18
3.164447E+03	9.657430E-18	2.635671E-18
3.164645E+03	1.102945E-17	3.009879E-18
3.165042E+03	1.243100E-17	3.391814E-18
3.165240E+03	1.385940E-17	3.781251E-18
3.165438E+03	1.531549E-17	4.178184E-18
3.165636E+03	1.680187E-17	4.583316E-18
3.166032E+03	1.831741E-17	4.995936E-18
3.166230E+03	1.986108E-17	5.416529E-18
3.167022E+03	2.143834E-17	5.844819E-18
3.167617E+03	2.304402E-17	6.281078E-18
3.167815E+03	2.467499E-17	6.725093E-18
3.168013E+03	2.633631E-17	7.177307E-18
3.168409E+03	2.802929E-17	7.637469E-18
3.168607E+03	2.975059E-17	8.105843E-18
3.168805E+03	3.150140E-17	8.582184E-18
3.169003E+03	3.328517E-17	9.067426E-18
3.169201E+03	3.444213E-17	9.381851E-18
3.169597E+03	3.573969E-17	9.733743E-18
3.169795E+03	3.735053E-17	1.017165E-17
3.169993E+03	3.895561E-17	1.060791E-17
3.170587E+03	4.070321E-17	1.108113E-17
3.170786E+03	4.249584E-17	1.156823E-17
3.171183E+03	4.396331E-17	1.196579E-17
3.171381E+03	4.515566E-17	1.228934E-17
3.171975E+03	4.709853E-17	1.281502E-17
3.172173E+03	4.854555E-17	1.320768E-17
3.172569E+03	5.037651E-17	1.370363E-17
3.173163E+03	4.981530E-17	1.354771E-17
3.173558E+03	5.033225E-17	1.368611E-17
3.174152E+03	5.227711E-17	1.421152E-17
3.174350E+03	4.572274E-17	1.242872E-17
3.174548E+03	4.571594E-17	1.242587E-17
3.174945E+03	4.182189E-17	1.136562E-17
3.175935E+03	4.273676E-17	1.160958E-17
3.176529E+03	4.382243E-17	1.190163E-17
3.177322E+03	4.325180E-17	1.174287E-17
3.177520E+03	4.458848E-17	1.210480E-17
3.177718E+03	4.566817E-17	1.239692E-17
3.178114E+03	4.626653E-17	1.255732E-17
3.178510E+03	4.625555E-17	1.255232E-17
3.178709E+03	4.573764E-17	1.241077E-17
3.179105E+03	4.469811E-17	1.212674E-17
3.179699E+03	4.336105E-17	1.176115E-17
3.180689E+03	4.186655E-17	1.135119E-17
3.181283E+03	4.017192E-17	1.088909E-17
3.181481E+03	3.763735E-17	1.020124E-17
3.181877E+03	3.487946E-17	9.452212E-18
3.182075E+03	3.164708E-17	8.575554E-18
3.182471E+03	2.818033E-17	7.634917E-18
3.183067E+03	2.816525E-17	7.628973E-18
3.183661E+03	2.543296E-17	6.887220E-18
3.184651E+03	2.269426E-17	6.143091E-18
3.184849E+03	2.197767E-17	5.948637E-18
3.185245E+03	2.052772E-17	5.555279E-18
3.185442E+03	2.026180E-17	5.482873E-18
