#wls	flux	fluxerr
1.584409E+03	1.102558E-16	2.628270E-17
1.624020E+03	1.148990E-16	2.738921E-17
1.663630E+03	1.191841E-16	2.841030E-17
1.703240E+03	1.230305E-16	2.932680E-17
1.742850E+03	1.263658E-16	3.012142E-17
1.782461E+03	1.290590E-16	3.076298E-17
1.822071E+03	1.309577E-16	3.121511E-17
1.861681E+03	1.318903E-16	3.143694E-17
1.901291E+03	1.316708E-16	3.138415E-17
1.940902E+03	1.301610E-16	3.102381E-17
1.980512E+03	1.273339E-16	3.034950E-17
2.020122E+03	1.233895E-16	2.940889E-17
2.059732E+03	1.188552E-16	2.832770E-17
2.099342E+03	1.145852E-16	2.730953E-17
2.138953E+03	1.114615E-16	2.656457E-17
2.178563E+03	1.099761E-16	2.621009E-17
2.218173E+03	1.099412E-16	2.620130E-17
2.257783E+03	1.106555E-16	2.637103E-17
2.297394E+03	1.113477E-16	2.653547E-17
2.337004E+03	1.114283E-16	2.655416E-17
2.376614E+03	1.105567E-16	2.634591E-17
2.416224E+03	1.086084E-16	2.588107E-17
2.455835E+03	1.056044E-16	2.516470E-17
2.495445E+03	1.016539E-16	2.422278E-17
2.535055E+03	9.689391E-17	2.308802E-17
2.574665E+03	9.148387E-17	2.179840E-17
2.614276E+03	8.557521E-17	2.039002E-17
2.653886E+03	7.930896E-17	1.889650E-17
2.693496E+03	7.282719E-17	1.735169E-17
2.733106E+03	6.625567E-17	1.578556E-17
2.772716E+03	5.971109E-17	1.422592E-17
2.812327E+03	5.329857E-17	1.269782E-17
2.851937E+03	4.711442E-17	1.122420E-17
2.891547E+03	4.124990E-17	9.826799E-18
2.931157E+03	3.578748E-17	8.525258E-18
2.970768E+03	3.078650E-17	7.333709E-18
2.980670E+03	2.961267E-17	7.054035E-18
2.990573E+03	2.847130E-17	6.782098E-18
3.000475E+03	2.736101E-17	6.517568E-18
3.010378E+03	2.628247E-17	6.260603E-18
3.020280E+03	2.523670E-17	6.011449E-18
3.030183E+03	2.422237E-17	5.769788E-18
3.040086E+03	2.324062E-17	5.535889E-18
3.049988E+03	2.229197E-17	5.309879E-18
3.059891E+03	2.137678E-17	5.091843E-18
3.069793E+03	2.049414E-17	4.881565E-18
3.079696E+03	1.964403E-17	4.679035E-18
3.089598E+03	1.882513E-17	4.483943E-18
3.099501E+03	1.803700E-17	4.296185E-18
3.109403E+03	1.727883E-17	4.115564E-18
3.119306E+03	1.654982E-17	3.941891E-18
3.129209E+03	1.584952E-17	3.775060E-18
3.139111E+03	1.517743E-17	3.614949E-18
3.149014E+03	1.453218E-17	3.461236E-18
3.158916E+03	1.391384E-17	3.313932E-18
3.168819E+03	1.332131E-17	3.172780E-18
3.178721E+03	1.275407E-17	3.037652E-18
3.188624E+03	1.221130E-17	2.908355E-18
3.198526E+03	1.169202E-17	2.784654E-18
3.208429E+03	1.119605E-17	2.666506E-18
3.218332E+03	1.072202E-17	2.553587E-18
3.228234E+03	1.026971E-17	2.445840E-18
3.238137E+03	9.838306E-18	2.343076E-18
3.248039E+03	9.426725E-18	2.245034E-18
3.257942E+03	9.034668E-18	2.151644E-18
3.267844E+03	8.661084E-18	2.062655E-18
3.277747E+03	8.305382E-18	1.977925E-18
3.287650E+03	7.966834E-18	1.897282E-18
3.297552E+03	7.644848E-18	1.820585E-18
3.307455E+03	7.338609E-18	1.747639E-18
3.317357E+03	7.047450E-18	1.678286E-18
3.327260E+03	6.770721E-18	1.612370E-18
3.337162E+03	6.507882E-18	1.549763E-18
3.347065E+03	6.258221E-18	1.490295E-18
3.356967E+03	6.021152E-18	1.433827E-18
3.366870E+03	5.796103E-18	1.380223E-18
3.376773E+03	5.582456E-18	1.329334E-18
3.386675E+03	5.379692E-18	1.281038E-18
3.396578E+03	5.187313E-18	1.235215E-18
3.406480E+03	5.004777E-18	1.191737E-18
3.416383E+03	4.831632E-18	1.150496E-18
3.426285E+03	4.667390E-18	1.111376E-18
3.436188E+03	4.511587E-18	1.074266E-18
3.446090E+03	4.363789E-18	1.039063E-18
3.455993E+03	4.223540E-18	1.005658E-18
3.465896E+03	4.090501E-18	9.739702E-19
3.475798E+03	3.964265E-18	9.439030E-19
3.485701E+03	3.844410E-18	9.153555E-19
3.495603E+03	3.730505E-18	8.882253E-19
3.505506E+03	3.622274E-18	8.624465E-19
3.515408E+03	3.519340E-18	8.379295E-19
3.525311E+03	3.421292E-18	8.145760E-19
3.535213E+03	3.327855E-18	7.923212E-19
3.545116E+03	3.238742E-18	7.710959E-19
3.555019E+03	3.153654E-18	7.508296E-19
3.564921E+03	3.072291E-18	7.314503E-19
3.574824E+03	2.994486E-18	7.129186E-19
3.584726E+03	2.920026E-18	6.951837E-19
3.594629E+03	2.848714E-18	6.781984E-19
3.604531E+03	2.780486E-18	6.619477E-19
3.614434E+03	2.715202E-18	6.463984E-19
3.624337E+03	2.652750E-18	6.315234E-19
3.634239E+03	2.593041E-18	6.173018E-19
3.644142E+03	2.535987E-18	6.037125E-19
3.654044E+03	2.481476E-18	5.907287E-19
3.663947E+03	2.429463E-18	5.783399E-19
3.673849E+03	2.379816E-18	5.665145E-19
3.683752E+03	2.332468E-18	5.552368E-19
3.693654E+03	2.287372E-18	5.444954E-19
3.703557E+03	2.244385E-18	5.342560E-19
3.713460E+03	2.203497E-18	5.245168E-19
3.723362E+03	2.164572E-18	5.152448E-19
3.733265E+03	2.127581E-18	5.064333E-19
3.743167E+03	2.092447E-18	4.980642E-19
3.753070E+03	2.059091E-18	4.901185E-19
3.762972E+03	2.027457E-18	4.825826E-19
3.772875E+03	1.997472E-18	4.754395E-19
3.782777E+03	1.969081E-18	4.686760E-19
3.792680E+03	1.942232E-18	4.622797E-19
3.802583E+03	1.916861E-18	4.562350E-19
3.812485E+03	1.892917E-18	4.505303E-19
3.822388E+03	1.870355E-18	4.451546E-19
3.832290E+03	1.849115E-18	4.400937E-19
3.842193E+03	1.829156E-18	4.353376E-19
3.852095E+03	1.810435E-18	4.308764E-19
3.861998E+03	1.792900E-18	4.266975E-19
3.871900E+03	1.776514E-18	4.227920E-19
3.881803E+03	1.761227E-18	4.191483E-19
3.891706E+03	1.747019E-18	4.157614E-19
3.901608E+03	1.733844E-18	4.126203E-19
3.911511E+03	1.721671E-18	4.097179E-19
3.921413E+03	1.710446E-18	4.070408E-19
3.931316E+03	1.700164E-18	4.045885E-19
3.941218E+03	1.690775E-18	4.023486E-19
3.951121E+03	1.682254E-18	4.003152E-19
3.961024E+03	1.674562E-18	3.984791E-19
3.970926E+03	1.667689E-18	3.968380E-19
3.980829E+03	1.661590E-18	3.953810E-19
3.990731E+03	1.656255E-18	3.941059E-19
4.000634E+03	1.651639E-18	3.930021E-19
4.010536E+03	1.647738E-18	3.920681E-19
4.020439E+03	1.644507E-18	3.912936E-19
4.030341E+03	1.641931E-18	3.906749E-19
4.040244E+03	1.639993E-18	3.902079E-19
4.050147E+03	1.638678E-18	3.898894E-19
4.060049E+03	1.637948E-18	3.897097E-19
4.069952E+03	1.637788E-18	3.896657E-19
4.079854E+03	1.638174E-18	3.897517E-19
4.089757E+03	1.639093E-18	3.899645E-19
4.099659E+03	1.640534E-18	3.903014E-19
4.109562E+03	1.642463E-18	3.907542E-19
4.119464E+03	1.644882E-18	3.913236E-19
4.129367E+03	1.647754E-18	3.920009E-19
4.139270E+03	1.651074E-18	3.927844E-19
4.149172E+03	1.654832E-18	3.936722E-19
4.159075E+03	1.658995E-18	3.946563E-19
4.168977E+03	1.663556E-18	3.957351E-19
4.178880E+03	1.668497E-18	3.969041E-19
4.188782E+03	1.673823E-18	3.981646E-19
4.198685E+03	1.679491E-18	3.995063E-19
4.208587E+03	1.685509E-18	4.009312E-19
4.218490E+03	1.691844E-18	4.024317E-19
4.228393E+03	1.698509E-18	4.040102E-19
4.238295E+03	1.705456E-18	4.056560E-19
4.248198E+03	1.712685E-18	4.073685E-19
4.258100E+03	1.720189E-18	4.091467E-19
4.268003E+03	1.727928E-18	4.109804E-19
4.277905E+03	1.735911E-18	4.128720E-19
4.287808E+03	1.744081E-18	4.148082E-19
4.297711E+03	1.752450E-18	4.167912E-19
4.307613E+03	1.760944E-18	4.188042E-19
4.317516E+03	1.769562E-18	4.208465E-19
4.327418E+03	1.778342E-18	4.229271E-19
4.337321E+03	1.787283E-18	4.250461E-19
4.347223E+03	1.796400E-18	4.272065E-19
4.357126E+03	1.805689E-18	4.294080E-19
4.367028E+03	1.815126E-18	4.316445E-19
4.376931E+03	1.824740E-18	4.339229E-19
4.386834E+03	1.834504E-18	4.362367E-19
4.396736E+03	1.844418E-18	4.385862E-19
4.406639E+03	1.854474E-18	4.409693E-19
4.416541E+03	1.864673E-18	4.433863E-19
4.426444E+03	1.874991E-18	4.458315E-19
4.436346E+03	1.885446E-18	4.483090E-19
4.446249E+03	1.896015E-18	4.508137E-19
4.456151E+03	1.906690E-18	4.533431E-19
4.466054E+03	1.917491E-18	4.559025E-19
4.475957E+03	1.928379E-18	4.584826E-19
4.485859E+03	1.939365E-18	4.610856E-19
4.495762E+03	1.950456E-18	4.637136E-19
4.505664E+03	1.961632E-18	4.663614E-19
4.515567E+03	1.972903E-18	4.690318E-19
4.525469E+03	1.984249E-18	4.717199E-19
4.535372E+03	1.995681E-18	4.744284E-19
4.545274E+03	2.007198E-18	4.771567E-19
4.555177E+03	2.018797E-18	4.799043E-19
4.565080E+03	2.030457E-18	4.826664E-19
4.574982E+03	2.042213E-18	4.854511E-19
4.584885E+03	2.054029E-18	4.882500E-19
4.594787E+03	2.065922E-18	4.910668E-19
4.604690E+03	2.077892E-18	4.939019E-19
4.614592E+03	2.089922E-18	4.967510E-19
4.624495E+03	2.102049E-18	4.996230E-19
4.634398E+03	2.114238E-18	5.025096E-19
4.644300E+03	2.126512E-18	5.054160E-19
4.654203E+03	2.138906E-18	5.083509E-19
4.664105E+03	2.151409E-18	5.113115E-19
4.674008E+03	2.164041E-18	5.143027E-19
4.683910E+03	2.176829E-18	5.173305E-19
4.693813E+03	2.189776E-18	5.203962E-19
4.703715E+03	2.202891E-18	5.235013E-19
4.713618E+03	2.216216E-18	5.266564E-19
4.723521E+03	2.229721E-18	5.298539E-19
4.733423E+03	2.243453E-18	5.331051E-19
4.743326E+03	2.257422E-18	5.364124E-19
4.753228E+03	2.271613E-18	5.397725E-19
4.763131E+03	2.286079E-18	5.431974E-19
4.773033E+03	2.300809E-18	5.466849E-19
4.782936E+03	2.315812E-18	5.502371E-19
4.792838E+03	2.331099E-18	5.538564E-19
4.802741E+03	2.346679E-18	5.575452E-19
4.812644E+03	2.362607E-18	5.613164E-19
4.822546E+03	2.378831E-18	5.651575E-19
4.832449E+03	2.395404E-18	5.690814E-19
4.842351E+03	2.412317E-18	5.730859E-19
4.852254E+03	2.429603E-18	5.771786E-19
4.862156E+03	2.447254E-18	5.813577E-19
4.872059E+03	2.465279E-18	5.856254E-19
4.881961E+03	2.483715E-18	5.899904E-19
4.891864E+03	2.502529E-18	5.944449E-19
4.901767E+03	2.521753E-18	5.989966E-19
4.911669E+03	2.541403E-18	6.036491E-19
4.921572E+03	2.561488E-18	6.084047E-19
4.931474E+03	2.581998E-18	6.132607E-19
4.941377E+03	2.602942E-18	6.182197E-19
4.951279E+03	2.624359E-18	6.232904E-19
4.961182E+03	2.646208E-18	6.284635E-19
4.971085E+03	2.668551E-18	6.337536E-19
4.980987E+03	2.691348E-18	6.391511E-19
4.990890E+03	2.714608E-18	6.446582E-19
5.000792E+03	2.738367E-18	6.502835E-19
5.010695E+03	2.762610E-18	6.560231E-19
5.020597E+03	2.787343E-18	6.618786E-19
5.030500E+03	2.812549E-18	6.678464E-19
5.040402E+03	2.838263E-18	6.739341E-19
5.050305E+03	2.864493E-18	6.801439E-19
5.060208E+03	2.891191E-18	6.864645E-19
5.070110E+03	2.918390E-18	6.929035E-19
5.080013E+03	2.946097E-18	6.994627E-19
5.089915E+03	2.974316E-18	7.061429E-19
5.099818E+03	3.003027E-18	7.129394E-19
5.109720E+03	3.032229E-18	7.198521E-19
5.119623E+03	3.061900E-18	7.268756E-19
5.129525E+03	3.092100E-18	7.340241E-19
5.139428E+03	3.122773E-18	7.412845E-19
5.149331E+03	3.153919E-18	7.486564E-19
5.159233E+03	3.185538E-18	7.561402E-19
5.169136E+03	3.217662E-18	7.637432E-19
5.179038E+03	3.250227E-18	7.714504E-19
5.188941E+03	3.283230E-18	7.792609E-19
5.198843E+03	3.316731E-18	7.871891E-19
5.208746E+03	3.350629E-18	7.952109E-19
5.218648E+03	3.384984E-18	8.033404E-19
5.228551E+03	3.419754E-18	8.115678E-19
5.238454E+03	3.454932E-18	8.198916E-19
5.248356E+03	3.490541E-18	8.283168E-19
5.258259E+03	3.526501E-18	8.368249E-19
5.268161E+03	3.562833E-18	8.454204E-19
5.278064E+03	3.599521E-18	8.540997E-19
5.287966E+03	3.636550E-18	8.628593E-19
5.297869E+03	3.673935E-18	8.717026E-19
5.307772E+03	3.711584E-18	8.806079E-19
5.317674E+03	3.749511E-18	8.895783E-19
5.327577E+03	3.787689E-18	8.986075E-19
5.337479E+03	3.826052E-18	9.076800E-19
5.347382E+03	3.864648E-18	9.168070E-19
5.357284E+03	3.903406E-18	9.259717E-19
5.367187E+03	3.942251E-18	9.351561E-19
5.377089E+03	3.981146E-18	9.443518E-19
5.386992E+03	4.020088E-18	9.535579E-19
5.396895E+03	4.058956E-18	9.627454E-19
5.406797E+03	4.097741E-18	9.719126E-19
5.416700E+03	4.136394E-18	9.810478E-19
5.426602E+03	4.174782E-18	9.901192E-19
5.436505E+03	4.212846E-18	9.991130E-19
5.446407E+03	4.250571E-18	1.008026E-18
5.456310E+03	4.287853E-18	1.016832E-18
5.466212E+03	4.324585E-18	1.025508E-18
5.476115E+03	4.360657E-18	1.034026E-18
5.486018E+03	4.396088E-18	1.042391E-18
5.495920E+03	4.430674E-18	1.050556E-18
5.505823E+03	4.464386E-18	1.058512E-18
5.515725E+03	4.497106E-18	1.066233E-18
5.525628E+03	4.528758E-18	1.073699E-18
5.535530E+03	4.559267E-18	1.080894E-18
5.545433E+03	4.588512E-18	1.087788E-18
5.555335E+03	4.616463E-18	1.094375E-18
5.565238E+03	4.643000E-18	1.100626E-18
5.575141E+03	4.668003E-18	1.106512E-18
5.585043E+03	4.691496E-18	1.112040E-18
5.594946E+03	4.713365E-18	1.117183E-18
5.604848E+03	4.733495E-18	1.121913E-18
5.614751E+03	4.751874E-18	1.126227E-18
5.624653E+03	4.768495E-18	1.130124E-18
5.634556E+03	4.783205E-18	1.133567E-18
5.644459E+03	4.796009E-18	1.136559E-18
5.654361E+03	4.806913E-18	1.139099E-18
5.664264E+03	4.815831E-18	1.141169E-18
5.674166E+03	4.822782E-18	1.142772E-18
5.684069E+03	4.827693E-18	1.143892E-18
5.693971E+03	4.830596E-18	1.144535E-18
5.703874E+03	4.831479E-18	1.144700E-18
5.713776E+03	4.830392E-18	1.144397E-18
5.723679E+03	4.827231E-18	1.143603E-18
5.733582E+03	4.822160E-18	1.142357E-18
5.743484E+03	4.815093E-18	1.140637E-18
5.753387E+03	4.806102E-18	1.138461E-18
5.763289E+03	4.795216E-18	1.135837E-18
5.773192E+03	4.782469E-18	1.132771E-18
5.783094E+03	4.767953E-18	1.129287E-18
5.792997E+03	4.751715E-18	1.125395E-18
5.802899E+03	4.733806E-18	1.121107E-18
5.812802E+03	4.714229E-18	1.116425E-18
5.822705E+03	4.693150E-18	1.111387E-18
5.832607E+03	4.670581E-18	1.105996E-18
5.842510E+03	4.646643E-18	1.100281E-18
5.852412E+03	4.621355E-18	1.094247E-18
5.862315E+03	4.594843E-18	1.087923E-18
5.872217E+03	4.567183E-18	1.081328E-18
5.882120E+03	4.538452E-18	1.074480E-18
5.892022E+03	4.508729E-18	1.067397E-18
5.901925E+03	4.478095E-18	1.060098E-18
5.911828E+03	4.446678E-18	1.052615E-18
5.921730E+03	4.414459E-18	1.044943E-18
5.931633E+03	4.381615E-18	1.037123E-18
5.941535E+03	4.348174E-18	1.029162E-18
5.951438E+03	4.314213E-18	1.021078E-18
5.961340E+03	4.279857E-18	1.012902E-18
5.971243E+03	4.245079E-18	1.004626E-18
5.981146E+03	4.210049E-18	9.962908E-19
5.991048E+03	4.174737E-18	9.878896E-19
6.000951E+03	4.139257E-18	9.794493E-19
6.010853E+03	4.103675E-18	9.709854E-19
6.020756E+03	4.068000E-18	9.624999E-19
6.030658E+03	4.032293E-18	9.540074E-19
6.040561E+03	3.996609E-18	9.455210E-19
6.050463E+03	3.960998E-18	9.370525E-19
6.060366E+03	3.925514E-18	9.286146E-19
6.070269E+03	3.890201E-18	9.202177E-19
6.080171E+03	3.855105E-18	9.118726E-19
6.090074E+03	3.820266E-18	9.035890E-19
6.099976E+03	3.785772E-18	8.953875E-19
6.109879E+03	3.751704E-18	8.872874E-19
6.119781E+03	3.718144E-18	8.793079E-19
6.129684E+03	3.685118E-18	8.714555E-19
6.139586E+03	3.652657E-18	8.637370E-19
6.149489E+03	3.620733E-18	8.561462E-19
6.159392E+03	3.589372E-18	8.486890E-19
6.169294E+03	3.558593E-18	8.413698E-19
6.179197E+03	3.528364E-18	8.341815E-19
6.189099E+03	3.498752E-18	8.271393E-19
6.199002E+03	3.469863E-18	8.202687E-19
6.208904E+03	3.441662E-18	8.135612E-19
6.218807E+03	3.414206E-18	8.070303E-19
6.228709E+03	3.387599E-18	8.007003E-19
6.238612E+03	3.361797E-18	7.945614E-19
6.248515E+03	3.336950E-18	7.886483E-19
6.258417E+03	3.313105E-18	7.829727E-19
6.268320E+03	3.290220E-18	7.775242E-19
6.278222E+03	3.268437E-18	7.723366E-19
6.288125E+03	3.247804E-18	7.674209E-19
6.298027E+03	3.228323E-18	7.627780E-19
6.307930E+03	3.210040E-18	7.584184E-19
6.317833E+03	3.193096E-18	7.543753E-19
6.327735E+03	3.177447E-18	7.506383E-19
6.337638E+03	3.163139E-18	7.472185E-19
6.347540E+03	3.150267E-18	7.441380E-19
6.357443E+03	3.138694E-18	7.413646E-19
6.367345E+03	3.128327E-18	7.388760E-19
6.377248E+03	3.119123E-18	7.366622E-19
6.387150E+03	3.111034E-18	7.347119E-19
6.397053E+03	3.103969E-18	7.330035E-19
6.406956E+03	3.097929E-18	7.315369E-19
6.416858E+03	3.092868E-18	7.303016E-19
6.426761E+03	3.088787E-18	7.292977E-19
6.436663E+03	3.085639E-18	7.285140E-19
6.446566E+03	3.083425E-18	7.279508E-19
6.456468E+03	3.082147E-18	7.276084E-19
6.466371E+03	3.081758E-18	7.274756E-19
6.476273E+03	3.082305E-18	7.275637E-19
6.486176E+03	3.083791E-18	7.278735E-19
6.496079E+03	3.086170E-18	7.283934E-19
6.505981E+03	3.089490E-18	7.291354E-19
6.515884E+03	3.093704E-18	7.300881E-19
6.525786E+03	3.098813E-18	7.312519E-19
6.535689E+03	3.104871E-18	7.326391E-19
6.545591E+03	3.111777E-18	7.342262E-19
6.555494E+03	3.119687E-18	7.360498E-19
6.565396E+03	3.128450E-18	7.380741E-19
6.575299E+03	3.138171E-18	7.403241E-19
6.585202E+03	3.148801E-18	7.427882E-19
6.595104E+03	3.160345E-18	7.454673E-19
6.605007E+03	3.172856E-18	7.483741E-19
6.614909E+03	3.186288E-18	7.514975E-19
6.624812E+03	3.200642E-18	7.548379E-19
6.634714E+03	3.215923E-18	7.583964E-19
6.644617E+03	3.232190E-18	7.621868E-19
6.654520E+03	3.249338E-18	7.661843E-19
6.664422E+03	3.267481E-18	7.704156E-19
6.674325E+03	3.286567E-18	7.748687E-19
6.684227E+03	3.306604E-18	7.795453E-19
6.694130E+03	3.327595E-18	7.844459E-19
6.704032E+03	3.349545E-18	7.895719E-19
6.713935E+03	3.372520E-18	7.949386E-19
6.723837E+03	3.396405E-18	8.005192E-19
6.733740E+03	3.421267E-18	8.063289E-19
6.743643E+03	3.447109E-18	8.123688E-19
6.753545E+03	3.473938E-18	8.186405E-19
6.763448E+03	3.501761E-18	8.251452E-19
6.773350E+03	3.530582E-18	8.318842E-19
6.783253E+03	3.560409E-18	8.388592E-19
6.793155E+03	3.591182E-18	8.460560E-19
6.803058E+03	3.622969E-18	8.534907E-19
6.812960E+03	3.655780E-18	8.611655E-19
6.822863E+03	3.689552E-18	8.690654E-19
6.832766E+03	3.724357E-18	8.772073E-19
6.842668E+03	3.760201E-18	8.855929E-19
6.852571E+03	3.797021E-18	8.942071E-19
6.862473E+03	3.834820E-18	9.030503E-19
6.872376E+03	3.873674E-18	9.121409E-19
6.882278E+03	3.913517E-18	9.214628E-19
6.892181E+03	3.954348E-18	9.310161E-19
6.902083E+03	3.996252E-18	9.408204E-19
6.911986E+03	4.039156E-18	9.508587E-19
6.921889E+03	4.083061E-18	9.611312E-19
6.931791E+03	4.127891E-18	9.716200E-19
6.941694E+03	4.173810E-18	9.823633E-19
6.951596E+03	4.220738E-18	9.933426E-19
6.961499E+03	4.268680E-18	1.004559E-18
6.971401E+03	4.317554E-18	1.015993E-18
6.981304E+03	4.367442E-18	1.027664E-18
6.991207E+03	4.418259E-18	1.039551E-18
7.001109E+03	4.470184E-18	1.051698E-18
7.011012E+03	4.522947E-18	1.064040E-18
7.020914E+03	4.576728E-18	1.076619E-18
7.030817E+03	4.631433E-18	1.089414E-18
7.040719E+03	4.687156E-18	1.102446E-18
7.050622E+03	4.743700E-18	1.115670E-18
7.060524E+03	4.801257E-18	1.129130E-18
7.070427E+03	4.859626E-18	1.142779E-18
7.080330E+03	4.918898E-18	1.156638E-18
7.090232E+03	4.979069E-18	1.170706E-18
7.100135E+03	5.040132E-18	1.184982E-18
7.110037E+03	5.101973E-18	1.199439E-18
7.119940E+03	5.164583E-18	1.214074E-18
7.129842E+03	5.228057E-18	1.228910E-18
7.139745E+03	5.292275E-18	1.243919E-18
7.149647E+03	5.357338E-18	1.259125E-18
7.159550E+03	5.423003E-18	1.274469E-18
7.169453E+03	5.489488E-18	1.290004E-18
7.179355E+03	5.556658E-18	1.305697E-18
7.189258E+03	5.624498E-18	1.321546E-18
7.199160E+03	5.692990E-18	1.337545E-18
7.209063E+03	5.762113E-18	1.353690E-18
7.218965E+03	5.831849E-18	1.369977E-18
7.228868E+03	5.902307E-18	1.386431E-18
7.238770E+03	5.973206E-18	1.402985E-18
7.248673E+03	6.044920E-18	1.419729E-18
7.258576E+03	6.117303E-18	1.436628E-18
7.268478E+03	6.190196E-18	1.453643E-18
7.278381E+03	6.263997E-18	1.470870E-18
7.288283E+03	6.338415E-18	1.488238E-18
7.298186E+03	6.413868E-18	1.505847E-18
7.308088E+03	6.490207E-18	1.523662E-18
7.317991E+03	6.567577E-18	1.541715E-18
7.327894E+03	6.646131E-18	1.560044E-18
7.337796E+03	6.725877E-18	1.578650E-18
7.347699E+03	6.807141E-18	1.597609E-18
7.357601E+03	6.890107E-18	1.616965E-18
7.367504E+03	6.974643E-18	1.636687E-18
7.377406E+03	7.060772E-18	1.656779E-18
7.387309E+03	7.148519E-18	1.677248E-18
7.397211E+03	7.237734E-18	1.698058E-18
7.407114E+03	7.328260E-18	1.719173E-18
7.417017E+03	7.419922E-18	1.740551E-18
7.426919E+03	7.512723E-18	1.762193E-18
7.436822E+03	7.606471E-18	1.784054E-18
7.446724E+03	7.700973E-18	1.806089E-18
7.456627E+03	7.796394E-18	1.828336E-18
7.466529E+03	7.892336E-18	1.850702E-18
7.476432E+03	7.988764E-18	1.873178E-18
7.486334E+03	8.085645E-18	1.895758E-18
7.496237E+03	8.182944E-18	1.918432E-18
7.506140E+03	8.280623E-18	1.941191E-18
7.516042E+03	8.378434E-18	1.963979E-18
7.525945E+03	8.476327E-18	1.986782E-18
7.535847E+03	8.574464E-18	2.009640E-18
7.545750E+03	8.672584E-18	2.032490E-18
7.555652E+03	8.770852E-18	2.055371E-18
7.565555E+03	8.868768E-18	2.078167E-18
7.575457E+03	8.966720E-18	2.100968E-18
7.585360E+03	9.064422E-18	2.123707E-18
7.595263E+03	9.161812E-18	2.146370E-18
7.605165E+03	9.258820E-18	2.168940E-18
7.615068E+03	9.355621E-18	2.191458E-18
7.624970E+03	9.451908E-18	2.213853E-18
7.634873E+03	9.547607E-18	2.236107E-18
7.644775E+03	9.642898E-18	2.258262E-18
7.654678E+03	9.737713E-18	2.280303E-18
7.664581E+03	9.831723E-18	2.302153E-18
7.674483E+03	9.925113E-18	2.323854E-18
7.684386E+03	1.001781E-17	2.345390E-18
