#wls	flux	fluxerr
1.584409E+03	1.428409E-16	3.559177E-17
1.624020E+03	1.480641E-16	3.681485E-17
1.663630E+03	1.529368E-16	3.794315E-17
1.703240E+03	1.574441E-16	3.897336E-17
1.742850E+03	1.614916E-16	3.988246E-17
1.782461E+03	1.649525E-16	4.063981E-17
1.822071E+03	1.676656E-16	4.120657E-17
1.861681E+03	1.694095E-16	4.152965E-17
1.901291E+03	1.699623E-16	4.155647E-17
1.940902E+03	1.691322E-16	4.124245E-17
1.980512E+03	1.668310E-16	4.056883E-17
2.020122E+03	1.632918E-16	3.959522E-17
2.059732E+03	1.591389E-16	3.847521E-17
2.099342E+03	1.554589E-16	3.747221E-17
2.138953E+03	1.534766E-16	3.687964E-17
2.178563E+03	1.539300E-16	3.687053E-17
2.218173E+03	1.566753E-16	3.740485E-17
2.257783E+03	1.608997E-16	3.828359E-17
2.297394E+03	1.655051E-16	3.924250E-17
2.337004E+03	1.696142E-16	4.007297E-17
2.376614E+03	1.726804E-16	4.064731E-17
2.416224E+03	1.744558E-16	4.090984E-17
2.455835E+03	1.749028E-16	4.085503E-17
2.495445E+03	1.740671E-16	4.049708E-17
2.535055E+03	1.720780E-16	3.986951E-17
2.574665E+03	1.690482E-16	3.900175E-17
2.614276E+03	1.651031E-16	3.792577E-17
2.653886E+03	1.603542E-16	3.667006E-17
2.693496E+03	1.549159E-16	3.526344E-17
2.733106E+03	1.488896E-16	3.373139E-17
2.772716E+03	1.423716E-16	3.209792E-17
2.812327E+03	1.354665E-16	3.038852E-17
2.851937E+03	1.282718E-16	2.862678E-17
2.891547E+03	1.208917E-16	2.683736E-17
2.931157E+03	1.134280E-16	2.504387E-17
2.970768E+03	1.059768E-16	2.326829E-17
2.980670E+03	1.041258E-16	2.282944E-17
2.990573E+03	1.022827E-16	2.239328E-17
3.000475E+03	1.004485E-16	2.196004E-17
3.010378E+03	9.862599E-17	2.153036E-17
3.020280E+03	9.681399E-17	2.110396E-17
3.030183E+03	9.501354E-17	2.068106E-17
3.040086E+03	9.323051E-17	2.026295E-17
3.049988E+03	9.146543E-17	1.984972E-17
3.059891E+03	8.972627E-17	1.944311E-17
3.069793E+03	8.801012E-17	1.904245E-17
3.079696E+03	8.631628E-17	1.864758E-17
3.089598E+03	8.464774E-17	1.825915E-17
3.099501E+03	8.300055E-17	1.787627E-17
3.109403E+03	8.137625E-17	1.749926E-17
3.119306E+03	7.977489E-17	1.712813E-17
3.129209E+03	7.819814E-17	1.676322E-17
3.139111E+03	7.664471E-17	1.640423E-17
3.149014E+03	7.511657E-17	1.605156E-17
3.158916E+03	7.361443E-17	1.570536E-17
3.168819E+03	7.213766E-17	1.536546E-17
3.178721E+03	7.068849E-17	1.503233E-17
3.188624E+03	6.926911E-17	1.470640E-17
3.198526E+03	6.787804E-17	1.438734E-17
3.208429E+03	6.651866E-17	1.407585E-17
3.218332E+03	6.518970E-17	1.377162E-17
3.228234E+03	6.389534E-17	1.347552E-17
3.238137E+03	6.263317E-17	1.318700E-17
3.248039E+03	6.140505E-17	1.290643E-17
3.257942E+03	6.021257E-17	1.263411E-17
3.267844E+03	5.905526E-17	1.236991E-17
3.277747E+03	5.793447E-17	1.211409E-17
3.287650E+03	5.684872E-17	1.186629E-17
3.297552E+03	5.579917E-17	1.162673E-17
3.307455E+03	5.478598E-17	1.139541E-17
3.317357E+03	5.380924E-17	1.117231E-17
3.327260E+03	5.286897E-17	1.095739E-17
3.337162E+03	5.196436E-17	1.075047E-17
3.347065E+03	5.109539E-17	1.055149E-17
3.356967E+03	5.026195E-17	1.036039E-17
3.366870E+03	4.946388E-17	1.017712E-17
3.376773E+03	4.870035E-17	1.000146E-17
3.386675E+03	4.797114E-17	9.833331E-18
3.396578E+03	4.727604E-17	9.672657E-18
3.406480E+03	4.661420E-17	9.519225E-18
3.416383E+03	4.598534E-17	9.372948E-18
3.426285E+03	4.538922E-17	9.233738E-18
3.436188E+03	4.482440E-17	9.101269E-18
3.446090E+03	4.429120E-17	8.975573E-18
3.455993E+03	4.378878E-17	8.856444E-18
3.465896E+03	4.331635E-17	8.743689E-18
3.475798E+03	4.287364E-17	8.637221E-18
3.485701E+03	4.245937E-17	8.536750E-18
3.495603E+03	4.207332E-17	8.442199E-18
3.505506E+03	4.171478E-17	8.353394E-18
3.515408E+03	4.138304E-17	8.270161E-18
3.525311E+03	4.107743E-17	8.192337E-18
3.535213E+03	4.079729E-17	8.119761E-18
3.545116E+03	4.054157E-17	8.052191E-18
3.555019E+03	4.031010E-17	7.989569E-18
3.564921E+03	4.010188E-17	7.931665E-18
3.574824E+03	3.991676E-17	7.878426E-18
3.584726E+03	3.975338E-17	7.829551E-18
3.594629E+03	3.961204E-17	7.785078E-18
3.604531E+03	3.949102E-17	7.744638E-18
3.614434E+03	3.939026E-17	7.708198E-18
3.624337E+03	3.930890E-17	7.675563E-18
3.634239E+03	3.924689E-17	7.646700E-18
3.644142E+03	3.920302E-17	7.621349E-18
3.654044E+03	3.917727E-17	7.599482E-18
3.663947E+03	3.916882E-17	7.580921E-18
3.673849E+03	3.917767E-17	7.565641E-18
3.683752E+03	3.920303E-17	7.553466E-18
3.693654E+03	3.924524E-17	7.544442E-18
3.703557E+03	3.930313E-17	7.538324E-18
3.713460E+03	3.937702E-17	7.535152E-18
3.723362E+03	3.946649E-17	7.534821E-18
3.733265E+03	3.957145E-17	7.537295E-18
3.743167E+03	3.969143E-17	7.542467E-18
3.753070E+03	3.982671E-17	7.550365E-18
3.762972E+03	3.997643E-17	7.560808E-18
3.772875E+03	4.014083E-17	7.573821E-18
3.782777E+03	4.031975E-17	7.589354E-18
3.792680E+03	4.051306E-17	7.607361E-18
3.802583E+03	4.072060E-17	7.627792E-18
3.812485E+03	4.094181E-17	7.650524E-18
3.822388E+03	4.117723E-17	7.675639E-18
3.832290E+03	4.142669E-17	7.703081E-18
3.842193E+03	4.168960E-17	7.732724E-18
3.852095E+03	4.196612E-17	7.764576E-18
3.861998E+03	4.225599E-17	7.798572E-18
3.871900E+03	4.255935E-17	7.834715E-18
3.881803E+03	4.287554E-17	7.872867E-18
3.891706E+03	4.320504E-17	7.913095E-18
3.901608E+03	4.354715E-17	7.955254E-18
3.911511E+03	4.390232E-17	7.999403E-18
3.921413E+03	4.426984E-17	8.045396E-18
3.931316E+03	4.464931E-17	8.093143E-18
3.941218E+03	4.504112E-17	8.142695E-18
3.951121E+03	4.544448E-17	8.193891E-18
3.961024E+03	4.585932E-17	8.246700E-18
3.970926E+03	4.628517E-17	8.301023E-18
3.980829E+03	4.672194E-17	8.356822E-18
3.990731E+03	4.716910E-17	8.413991E-18
4.000634E+03	4.762612E-17	8.472416E-18
4.010536E+03	4.809283E-17	8.532054E-18
4.020439E+03	4.856905E-17	8.592854E-18
4.030341E+03	4.905334E-17	8.654553E-18
4.040244E+03	4.954630E-17	8.717237E-18
4.050147E+03	5.004643E-17	8.780634E-18
4.060049E+03	5.055383E-17	8.844749E-18
4.069952E+03	5.106736E-17	8.909370E-18
4.079854E+03	5.158662E-17	8.974420E-18
4.089757E+03	5.211080E-17	9.039747E-18
4.099659E+03	5.263900E-17	9.105186E-18
4.109562E+03	5.317028E-17	9.170571E-18
4.119464E+03	5.370363E-17	9.235722E-18
4.129367E+03	5.423843E-17	9.300530E-18
4.139270E+03	5.477356E-17	9.364800E-18
4.149172E+03	5.530738E-17	9.428251E-18
4.159075E+03	5.583863E-17	9.490671E-18
4.168977E+03	5.636597E-17	9.551836E-18
4.178880E+03	5.688846E-17	9.611592E-18
4.188782E+03	5.740416E-17	9.669623E-18
4.198685E+03	5.791154E-17	9.725680E-18
4.208587E+03	5.840851E-17	9.779427E-18
4.218490E+03	5.889389E-17	9.830680E-18
4.228393E+03	5.936547E-17	9.879095E-18
4.238295E+03	5.982151E-17	9.924398E-18
4.248198E+03	6.026017E-17	9.966317E-18
4.258100E+03	6.067867E-17	1.000441E-17
4.268003E+03	6.107613E-17	1.003858E-17
4.277905E+03	6.144975E-17	1.006839E-17
4.287808E+03	6.179768E-17	1.009358E-17
4.297711E+03	6.211766E-17	1.011382E-17
4.307613E+03	6.240907E-17	1.012905E-17
4.317516E+03	6.266881E-17	1.013883E-17
4.327418E+03	6.289658E-17	1.014314E-17
4.337321E+03	6.309130E-17	1.014188E-17
4.347223E+03	6.325285E-17	1.013508E-17
4.357126E+03	6.338208E-17	1.012291E-17
4.367028E+03	6.347980E-17	1.010557E-17
4.376931E+03	6.354831E-17	1.008347E-17
4.386834E+03	6.358803E-17	1.005673E-17
4.396736E+03	6.360186E-17	1.002584E-17
4.406639E+03	6.359116E-17	9.991067E-18
4.416541E+03	6.355804E-17	9.952770E-18
4.426444E+03	6.350574E-17	9.911496E-18
4.436346E+03	6.343483E-17	9.867361E-18
4.446249E+03	6.334920E-17	9.820996E-18
4.456151E+03	6.324942E-17	9.772518E-18
4.466054E+03	6.313882E-17	9.722458E-18
4.475957E+03	6.301902E-17	9.671084E-18
4.485859E+03	6.289216E-17	9.618738E-18
4.495762E+03	6.276031E-17	9.565746E-18
4.505664E+03	6.262433E-17	9.512250E-18
4.515567E+03	6.248729E-17	9.458719E-18
4.525469E+03	6.234989E-17	9.405263E-18
4.535372E+03	6.221387E-17	9.352146E-18
4.545274E+03	6.208090E-17	9.299614E-18
4.555177E+03	6.195253E-17	9.247897E-18
4.565080E+03	6.182966E-17	9.197123E-18
4.574982E+03	6.171310E-17	9.147403E-18
4.584885E+03	6.160414E-17	9.098919E-18
4.594787E+03	6.150397E-17	9.051836E-18
4.604690E+03	6.141373E-17	9.006308E-18
4.614592E+03	6.133332E-17	8.962308E-18
4.624495E+03	6.126431E-17	8.920048E-18
4.634398E+03	6.120707E-17	8.879567E-18
4.644300E+03	6.116190E-17	8.840889E-18
4.654203E+03	6.112964E-17	8.804122E-18
4.664105E+03	6.111051E-17	8.769275E-18
4.674008E+03	6.110468E-17	8.736356E-18
4.683910E+03	6.111231E-17	8.705366E-18
4.693813E+03	6.113351E-17	8.676302E-18
4.703715E+03	6.116832E-17	8.649152E-18
4.713618E+03	6.121676E-17	8.623897E-18
4.723521E+03	6.127883E-17	8.600515E-18
4.733423E+03	6.135385E-17	8.578891E-18
4.743326E+03	6.144229E-17	8.559072E-18
4.753228E+03	6.154278E-17	8.540847E-18
4.763131E+03	6.165627E-17	8.524330E-18
4.773033E+03	6.178126E-17	8.509294E-18
4.782936E+03	6.191798E-17	8.495755E-18
4.792838E+03	6.206602E-17	8.483638E-18
4.802741E+03	6.222369E-17	8.472700E-18
4.812644E+03	6.239170E-17	8.463021E-18
4.822546E+03	6.256893E-17	8.454436E-18
4.832449E+03	6.275544E-17	8.446939E-18
4.842351E+03	6.294884E-17	8.440199E-18
4.852254E+03	6.315042E-17	8.434378E-18
4.862156E+03	6.335838E-17	8.429228E-18
4.872059E+03	6.357279E-17	8.424750E-18
4.881961E+03	6.379249E-17	8.420781E-18
4.891864E+03	6.401756E-17	8.417328E-18
4.901767E+03	6.424620E-17	8.414150E-18
4.911669E+03	6.447853E-17	8.411258E-18
4.921572E+03	6.471468E-17	8.408667E-18
4.931474E+03	6.495291E-17	8.406150E-18
4.941377E+03	6.519277E-17	8.403648E-18
4.951279E+03	6.543449E-17	8.401192E-18
4.961182E+03	6.567770E-17	8.398735E-18
4.971085E+03	6.592074E-17	8.396067E-18
4.980987E+03	6.616394E-17	8.393233E-18
4.990890E+03	6.640696E-17	8.390196E-18
5.000792E+03	6.664949E-17	8.386922E-18
5.010695E+03	6.689055E-17	8.383291E-18
5.020597E+03	6.712981E-17	8.379270E-18
5.030500E+03	6.736760E-17	8.374906E-18
5.040402E+03	6.760220E-17	8.369996E-18
5.050305E+03	6.783388E-17	8.364581E-18
5.060208E+03	6.806156E-17	8.358539E-18
5.070110E+03	6.828477E-17	8.351822E-18
5.080013E+03	6.850300E-17	8.344382E-18
5.089915E+03	6.871569E-17	8.336166E-18
5.099818E+03	6.892156E-17	8.327029E-18
5.109720E+03	6.912062E-17	8.316993E-18
5.119623E+03	6.931074E-17	8.305815E-18
5.129525E+03	6.949181E-17	8.293504E-18
5.139428E+03	6.966222E-17	8.279888E-18
5.149331E+03	6.982100E-17	8.264875E-18
5.159233E+03	6.996708E-17	8.248360E-18
5.169136E+03	7.009932E-17	8.230236E-18
5.179038E+03	7.021508E-17	8.210221E-18
5.188941E+03	7.031444E-17	8.188355E-18
5.198843E+03	7.039393E-17	8.164266E-18
5.208746E+03	7.045350E-17	8.137982E-18
5.218648E+03	7.049024E-17	8.109206E-18
5.228551E+03	7.050331E-17	8.077878E-18
5.238454E+03	7.049046E-17	8.043783E-18
5.248356E+03	7.044943E-17	8.006705E-18
5.258259E+03	7.037940E-17	7.966598E-18
5.268161E+03	7.027753E-17	7.923188E-18
5.278064E+03	7.014316E-17	7.876448E-18
5.287966E+03	6.997436E-17	7.826216E-18
5.297869E+03	6.976940E-17	7.772346E-18
5.307772E+03	6.952744E-17	7.714802E-18
5.317674E+03	6.924789E-17	7.653570E-18
5.327577E+03	6.893045E-17	7.588671E-18
5.337479E+03	6.857378E-17	7.520011E-18
5.347382E+03	6.817898E-17	7.447764E-18
5.357284E+03	6.774615E-17	7.371992E-18
5.367187E+03	6.727723E-17	7.292954E-18
5.377089E+03	6.677252E-17	7.210731E-18
5.386992E+03	6.623616E-17	7.125813E-18
5.396895E+03	6.567133E-17	7.038578E-18
5.406797E+03	6.508484E-17	6.949787E-18
5.416700E+03	6.447857E-17	6.859667E-18
5.426602E+03	6.385157E-17	6.768137E-18
5.436505E+03	6.320458E-17	6.675299E-18
5.446407E+03	6.254051E-17	6.581473E-18
5.456310E+03	6.186490E-17	6.487248E-18
5.466212E+03	6.118035E-17	6.392896E-18
5.476115E+03	6.049329E-17	6.299079E-18
5.486018E+03	5.980709E-17	6.206141E-18
5.495920E+03	5.912704E-17	6.114612E-18
5.505823E+03	5.845836E-17	6.025010E-18
5.515725E+03	5.780617E-17	5.937839E-18
5.525628E+03	5.717435E-17	5.853465E-18
5.535530E+03	5.656776E-17	5.772351E-18
5.545433E+03	5.599107E-17	5.694935E-18
5.555335E+03	5.544806E-17	5.621561E-18
5.565238E+03	5.494221E-17	5.552536E-18
5.575141E+03	5.447770E-17	5.488237E-18
5.585043E+03	5.405653E-17	5.428815E-18
5.594946E+03	5.368130E-17	5.374482E-18
5.604848E+03	5.335347E-17	5.325333E-18
5.614751E+03	5.307444E-17	5.281459E-18
5.624653E+03	5.284450E-17	5.242836E-18
5.634556E+03	5.266334E-17	5.209385E-18
5.644459E+03	5.253071E-17	5.181035E-18
5.654361E+03	5.244594E-17	5.157671E-18
5.664264E+03	5.240690E-17	5.139042E-18
5.674166E+03	5.241232E-17	5.124982E-18
5.684069E+03	5.246022E-17	5.115260E-18
5.693971E+03	5.254861E-17	5.109644E-18
5.703874E+03	5.267664E-17	5.108018E-18
5.713776E+03	5.284134E-17	5.110064E-18
5.723679E+03	5.304217E-17	5.115699E-18
5.733582E+03	5.327709E-17	5.124701E-18
5.743484E+03	5.354541E-17	5.136977E-18
5.753387E+03	5.384610E-17	5.152406E-18
5.763289E+03	5.417833E-17	5.170886E-18
5.773192E+03	5.454203E-17	5.192390E-18
5.783094E+03	5.493613E-17	5.216794E-18
5.792997E+03	5.536082E-17	5.244100E-18
5.802899E+03	5.581586E-17	5.274266E-18
5.812802E+03	5.630047E-17	5.307203E-18
5.822705E+03	5.681579E-17	5.342999E-18
5.832607E+03	5.736054E-17	5.381522E-18
5.842510E+03	5.793599E-17	5.422874E-18
5.852412E+03	5.854153E-17	5.466985E-18
5.862315E+03	5.917717E-17	5.513843E-18
5.872217E+03	5.984352E-17	5.563491E-18
5.882120E+03	6.053908E-17	5.615779E-18
5.892022E+03	6.126426E-17	5.670735E-18
5.901925E+03	6.201940E-17	5.728379E-18
5.911828E+03	6.280260E-17	5.788529E-18
5.921730E+03	6.361395E-17	5.851184E-18
5.931633E+03	6.445275E-17	5.916275E-18
5.941535E+03	6.531743E-17	5.983653E-18
5.951438E+03	6.620707E-17	6.053229E-18
5.961340E+03	6.712065E-17	6.124909E-18
5.971243E+03	6.805630E-17	6.198521E-18
5.981146E+03	6.901283E-17	6.273957E-18
5.991048E+03	6.998980E-17	6.351181E-18
6.000951E+03	7.098342E-17	6.429852E-18
6.010853E+03	7.199389E-17	6.509994E-18
6.020756E+03	7.301711E-17	6.591243E-18
6.030658E+03	7.405307E-17	6.673608E-18
6.040561E+03	7.509727E-17	6.756692E-18
6.050463E+03	7.614850E-17	6.840400E-18
6.060366E+03	7.720265E-17	6.924375E-18
6.070269E+03	7.825810E-17	7.008490E-18
6.080171E+03	7.931024E-17	7.092346E-18
6.090074E+03	8.035506E-17	7.175605E-18
6.099976E+03	8.139036E-17	7.258092E-18
6.109879E+03	8.241091E-17	7.339362E-18
6.119781E+03	8.341450E-17	7.419242E-18
6.129684E+03	8.439831E-17	7.497504E-18
6.139586E+03	8.536002E-17	7.573968E-18
6.149489E+03	8.629804E-17	7.648520E-18
6.159392E+03	8.721337E-17	7.721272E-18
6.169294E+03	8.810548E-17	7.792203E-18
6.179197E+03	8.897508E-17	7.861400E-18
6.189099E+03	8.982304E-17	7.928964E-18
6.199002E+03	9.065275E-17	7.995219E-18
6.208904E+03	9.146314E-17	8.060092E-18
6.218807E+03	9.225543E-17	8.123711E-18
6.228709E+03	9.303219E-17	8.186305E-18
6.238612E+03	9.379497E-17	8.248008E-18
6.248515E+03	9.454404E-17	8.308842E-18
6.258417E+03	9.527968E-17	8.368826E-18
6.268320E+03	9.600450E-17	8.428185E-18
6.278222E+03	9.671758E-17	8.486834E-18
6.288125E+03	9.742009E-17	8.544866E-18
6.298027E+03	9.811206E-17	8.602280E-18
6.307930E+03	9.879354E-17	8.659072E-18
6.317833E+03	9.946414E-17	8.715199E-18
6.327735E+03	1.001237E-16	8.770644E-18
6.337638E+03	1.007717E-16	8.825340E-18
6.347540E+03	1.014060E-16	8.879103E-18
6.357443E+03	1.020275E-16	8.931989E-18
6.367345E+03	1.026350E-16	8.983903E-18
6.377248E+03	1.032294E-16	9.034895E-18
6.387150E+03	1.038111E-16	9.085000E-18
6.397053E+03	1.043777E-16	9.133992E-18
6.406956E+03	1.049313E-16	9.182045E-18
6.416858E+03	1.054711E-16	9.229086E-18
6.426761E+03	1.059979E-16	9.275159E-18
6.436663E+03	1.065095E-16	9.320079E-18
6.446566E+03	1.070086E-16	9.364048E-18
6.456468E+03	1.074930E-16	9.406883E-18
6.466371E+03	1.079642E-16	9.448696E-18
6.476273E+03	1.084202E-16	9.489295E-18
6.486176E+03	1.088625E-16	9.528810E-18
6.496079E+03	1.092929E-16	9.567384E-18
6.505981E+03	1.097081E-16	9.604714E-18
6.515884E+03	1.101099E-16	9.640952E-18
6.525786E+03	1.105005E-16	9.676273E-18
6.535689E+03	1.108766E-16	9.710384E-18
6.545591E+03	1.112422E-16	9.743626E-18
6.555494E+03	1.115940E-16	9.775693E-18
6.565396E+03	1.119361E-16	9.806941E-18
6.575299E+03	1.122649E-16	9.837043E-18
6.585202E+03	1.125826E-16	9.866176E-18
6.595104E+03	1.128891E-16	9.894336E-18
6.605007E+03	1.131824E-16	9.921341E-18
6.614909E+03	1.134644E-16	9.947332E-18
6.624812E+03	1.137329E-16	9.972119E-18
6.634714E+03	1.139876E-16	9.995665E-18
6.644617E+03	1.142301E-16	1.001811E-17
6.654520E+03	1.144582E-16	1.003926E-17
6.664422E+03	1.146697E-16	1.005890E-17
6.674325E+03	1.148685E-16	1.007738E-17
6.684227E+03	1.150502E-16	1.009430E-17
6.694130E+03	1.152167E-16	1.010982E-17
6.704032E+03	1.153680E-16	1.012395E-17
6.713935E+03	1.155019E-16	1.013648E-17
6.723837E+03	1.156182E-16	1.014740E-17
6.733740E+03	1.157167E-16	1.015668E-17
6.743643E+03	1.157994E-16	1.016450E-17
6.753545E+03	1.158640E-16	1.017067E-17
6.763448E+03	1.159083E-16	1.017496E-17
6.773350E+03	1.159343E-16	1.017758E-17
6.783253E+03	1.159416E-16	1.017849E-17
6.793155E+03	1.159304E-16	1.017768E-17
6.803058E+03	1.158983E-16	1.017498E-17
6.812960E+03	1.158453E-16	1.017037E-17
6.822863E+03	1.157736E-16	1.016405E-17
6.832766E+03	1.156811E-16	1.015584E-17
6.842668E+03	1.155677E-16	1.014573E-17
6.852571E+03	1.154336E-16	1.013374E-17
6.862473E+03	1.152787E-16	1.011988E-17
6.872376E+03	1.151033E-16	1.010418E-17
6.882278E+03	1.149075E-16	1.008663E-17
6.892181E+03	1.146891E-16	1.006707E-17
6.902083E+03	1.144482E-16	1.004551E-17
6.911986E+03	1.141873E-16	1.002217E-17
6.921889E+03	1.139067E-16	9.997085E-18
6.931791E+03	1.136020E-16	9.969889E-18
6.941694E+03	1.132784E-16	9.941021E-18
6.951596E+03	1.129338E-16	9.910331E-18
6.961499E+03	1.125689E-16	9.877879E-18
6.971401E+03	1.121821E-16	9.843539E-18
6.981304E+03	1.117762E-16	9.807559E-18
6.991207E+03	1.113520E-16	9.770020E-18
7.001109E+03	1.109101E-16	9.730990E-18
7.011012E+03	1.104490E-16	9.690350E-18
7.020914E+03	1.099697E-16	9.648182E-18
7.030817E+03	1.094750E-16	9.604769E-18
7.040719E+03	1.089637E-16	9.559991E-18
7.050622E+03	1.084344E-16	9.513751E-18
7.060524E+03	1.078925E-16	9.466530E-18
7.070427E+03	1.073369E-16	9.418235E-18
7.080330E+03	1.067685E-16	9.368969E-18
7.090232E+03	1.061864E-16	9.318661E-18
7.100135E+03	1.055942E-16	9.267623E-18
7.110037E+03	1.049931E-16	9.215990E-18
7.119940E+03	1.043825E-16	9.163719E-18
7.129842E+03	1.037641E-16	9.110956E-18
7.139745E+03	1.031418E-16	9.058057E-18
7.149647E+03	1.025149E-16	9.004986E-18
7.159550E+03	1.018856E-16	8.951927E-18
7.169453E+03	1.012554E-16	8.899038E-18
7.179355E+03	1.006261E-16	8.846481E-18
7.189258E+03	9.999730E-17	8.794229E-18
7.199160E+03	9.937451E-17	8.742779E-18
7.209063E+03	9.875706E-17	8.692082E-18
7.218965E+03	9.814188E-17	8.641878E-18
7.228868E+03	9.753597E-17	8.592793E-18
7.238770E+03	9.693400E-17	8.544368E-18
7.248673E+03	9.634055E-17	8.497017E-18
7.258576E+03	9.575391E-17	8.450598E-18
7.268478E+03	9.517444E-17	8.405153E-18
7.278381E+03	9.460009E-17	8.360511E-18
7.288283E+03	9.403107E-17	8.316698E-18
7.298186E+03	9.346732E-17	8.273719E-18
7.308088E+03	9.290910E-17	8.231605E-18
7.317991E+03	9.235246E-17	8.190014E-18
7.327894E+03	9.179962E-17	8.149150E-18
7.337796E+03	9.124702E-17	8.108705E-18
7.347699E+03	9.069325E-17	8.068557E-18
7.357601E+03	9.013693E-17	8.028592E-18
7.367504E+03	8.958092E-17	7.989065E-18
7.377406E+03	8.902603E-17	7.950053E-18
7.387309E+03	8.847715E-17	7.911996E-18
7.397211E+03	8.793905E-17	7.875303E-18
7.407114E+03	8.741067E-17	7.839860E-18
7.417017E+03	8.689486E-17	7.805907E-18
7.426919E+03	8.639616E-17	7.773833E-18
7.436822E+03	8.591155E-17	7.743354E-18
7.446724E+03	8.544540E-17	7.714850E-18
7.456627E+03	8.499838E-17	7.688368E-18
7.466529E+03	8.457086E-17	7.663933E-18
7.476432E+03	8.416336E-17	7.641581E-18
7.486334E+03	8.377617E-17	7.621330E-18
7.496237E+03	8.341163E-17	7.603387E-18
7.506140E+03	8.306792E-17	7.587578E-18
7.516042E+03	8.274706E-17	7.574085E-18
7.525945E+03	8.244715E-17	7.562728E-18
7.535847E+03	8.216985E-17	7.553656E-18
7.545750E+03	8.191479E-17	7.546832E-18
7.555652E+03	8.167974E-17	7.542050E-18
7.565555E+03	8.146587E-17	7.539413E-18
7.575457E+03	8.127263E-17	7.538872E-18
7.585360E+03	8.109739E-17	7.540180E-18
7.595263E+03	8.094114E-17	7.543429E-18
7.605165E+03	8.080118E-17	7.548364E-18
7.615068E+03	8.068055E-17	7.555269E-18
7.624970E+03	8.057459E-17	7.563708E-18
7.634873E+03	8.048424E-17	7.573765E-18
7.644775E+03	8.040689E-17	7.585195E-18
7.654678E+03	8.034339E-17	7.598076E-18
7.664581E+03	8.029289E-17	7.612326E-18
7.674483E+03	8.025459E-17	7.627867E-18
7.684386E+03	8.022553E-17	7.644415E-18
