#wls	flux	fluxerr
1.584409E+03	9.422682E-17	1.824039E-17
1.624020E+03	9.788329E-17	1.894803E-17
1.663630E+03	1.011839E-16	1.958675E-17
1.703240E+03	1.040792E-16	2.014698E-17
1.742850E+03	1.064773E-16	2.061093E-17
1.782461E+03	1.083098E-16	2.096535E-17
1.822071E+03	1.094221E-16	2.118034E-17
1.861681E+03	1.096972E-16	2.123325E-17
1.901291E+03	1.089992E-16	2.109777E-17
1.940902E+03	1.072089E-16	2.075085E-17
1.980512E+03	1.043379E-16	2.019474E-17
2.020122E+03	1.005593E-16	1.946296E-17
2.059732E+03	9.631930E-17	1.864189E-17
2.099342E+03	9.231265E-17	1.786599E-17
2.138953E+03	8.924331E-17	1.727150E-17
2.178563E+03	8.746738E-17	1.692732E-17
2.218173E+03	8.680449E-17	1.679853E-17
2.257783E+03	8.669131E-17	1.677609E-17
2.297394E+03	8.650864E-17	1.674018E-17
2.337004E+03	8.583065E-17	1.660840E-17
2.376614E+03	8.443230E-17	1.633720E-17
2.416224E+03	8.226793E-17	1.591777E-17
2.455835E+03	7.938448E-17	1.535922E-17
2.495445E+03	7.589387E-17	1.468322E-17
2.535055E+03	7.191882E-17	1.391352E-17
2.574665E+03	6.759038E-17	1.307549E-17
2.614276E+03	6.302383E-17	1.219146E-17
2.653886E+03	5.832481E-17	1.128186E-17
2.693496E+03	5.358777E-17	1.036498E-17
2.733106E+03	4.889060E-17	9.455894E-18
2.772716E+03	4.430178E-17	8.567841E-18
2.812327E+03	3.987867E-17	7.711921E-18
2.851937E+03	3.567094E-17	6.897740E-18
2.891547E+03	3.172032E-17	6.133367E-18
2.931157E+03	2.805840E-17	5.424902E-18
2.970768E+03	2.470691E-17	4.776541E-18
2.980670E+03	2.391895E-17	4.624115E-18
2.990573E+03	2.315069E-17	4.475501E-18
3.000475E+03	2.240302E-17	4.330871E-18
3.010378E+03	2.167473E-17	4.189995E-18
3.020280E+03	2.096660E-17	4.053020E-18
3.030183E+03	2.027839E-17	3.919900E-18
3.040086E+03	1.961045E-17	3.790703E-18
3.049988E+03	1.896242E-17	3.665361E-18
3.059891E+03	1.833586E-17	3.544170E-18
3.069793E+03	1.772922E-17	3.426838E-18
3.079696E+03	1.714258E-17	3.313374E-18
3.089598E+03	1.657528E-17	3.203652E-18
3.099501E+03	1.602639E-17	3.097492E-18
3.109403E+03	1.549599E-17	2.994911E-18
3.119306E+03	1.498325E-17	2.895745E-18
3.129209E+03	1.448794E-17	2.799953E-18
3.139111E+03	1.400958E-17	2.707441E-18
3.149014E+03	1.354773E-17	2.618123E-18
3.158916E+03	1.310218E-17	2.531958E-18
3.168819E+03	1.267250E-17	2.448864E-18
3.178721E+03	1.225806E-17	2.368718E-18
3.188624E+03	1.185891E-17	2.291531E-18
3.198526E+03	1.147444E-17	2.217182E-18
3.208429E+03	1.110449E-17	2.145642E-18
3.218332E+03	1.074864E-17	2.076831E-18
3.228234E+03	1.040639E-17	2.010650E-18
3.238137E+03	1.007770E-17	1.947092E-18
3.248039E+03	9.761898E-18	1.886025E-18
3.257942E+03	9.458927E-18	1.827441E-18
3.267844E+03	9.168417E-18	1.771268E-18
3.277747E+03	8.889746E-18	1.717383E-18
3.287650E+03	8.622831E-18	1.665773E-18
3.297552E+03	8.367304E-18	1.616365E-18
3.307455E+03	8.122701E-18	1.569069E-18
3.317357E+03	7.888682E-18	1.523820E-18
3.327260E+03	7.664917E-18	1.480553E-18
3.337162E+03	7.451068E-18	1.439205E-18
3.347065E+03	7.246812E-18	1.399711E-18
3.356967E+03	7.051829E-18	1.362009E-18
3.366870E+03	6.865713E-18	1.326023E-18
3.376773E+03	6.688083E-18	1.291677E-18
3.386675E+03	6.518820E-18	1.258948E-18
3.396578E+03	6.357389E-18	1.227734E-18
3.406480E+03	6.203605E-18	1.197998E-18
3.416383E+03	6.057130E-18	1.169675E-18
3.426285E+03	5.917714E-18	1.142717E-18
3.436188E+03	5.784976E-18	1.117049E-18
3.446090E+03	5.658629E-18	1.092617E-18
3.455993E+03	5.538463E-18	1.069379E-18
3.465896E+03	5.424151E-18	1.047273E-18
3.475798E+03	5.315507E-18	1.026262E-18
3.485701E+03	5.212120E-18	1.006267E-18
3.495603E+03	5.113838E-18	9.872592E-19
3.505506E+03	5.020349E-18	9.691773E-19
3.515408E+03	4.931417E-18	9.519759E-19
3.525311E+03	4.846820E-18	9.356123E-19
3.535213E+03	4.766254E-18	9.200277E-19
3.545116E+03	4.689626E-18	9.052040E-19
3.555019E+03	4.616708E-18	8.910970E-19
3.564921E+03	4.547284E-18	8.776653E-19
3.574824E+03	4.481286E-18	8.648954E-19
3.584726E+03	4.418473E-18	8.527409E-19
3.594629E+03	4.358707E-18	8.411748E-19
3.604531E+03	4.301852E-18	8.301712E-19
3.614434E+03	4.247782E-18	8.197057E-19
3.624337E+03	4.196378E-18	8.097550E-19
3.634239E+03	4.147522E-18	8.002965E-19
3.644142E+03	4.101143E-18	7.913162E-19
3.654044E+03	4.057167E-18	7.828002E-19
3.663947E+03	4.015489E-18	7.747278E-19
3.673849E+03	3.976145E-18	7.671060E-19
3.683752E+03	3.938993E-18	7.599076E-19
3.693654E+03	3.904034E-18	7.531326E-19
3.703557E+03	3.871199E-18	7.467673E-19
3.713460E+03	3.840450E-18	7.408048E-19
3.723362E+03	3.811814E-18	7.352501E-19
3.733265E+03	3.785155E-18	7.300769E-19
3.743167E+03	3.760499E-18	7.252902E-19
3.753070E+03	3.737836E-18	7.208878E-19
3.762972E+03	3.717061E-18	7.168499E-19
3.772875E+03	3.698199E-18	7.131808E-19
3.782777E+03	3.681234E-18	7.098776E-19
3.792680E+03	3.666096E-18	7.069268E-19
3.802583E+03	3.652743E-18	7.043200E-19
3.812485E+03	3.641222E-18	7.020664E-19
3.822388E+03	3.631431E-18	7.001464E-19
3.832290E+03	3.623389E-18	6.985634E-19
3.842193E+03	3.617053E-18	6.973090E-19
3.852095E+03	3.612411E-18	6.963811E-19
3.861998E+03	3.609450E-18	6.957770E-19
3.871900E+03	3.608101E-18	6.954835E-19
3.881803E+03	3.608354E-18	6.954985E-19
3.891706E+03	3.610225E-18	6.958249E-19
3.901608E+03	3.613677E-18	6.964557E-19
3.911511E+03	3.618668E-18	6.973828E-19
3.921413E+03	3.625191E-18	6.986046E-19
3.931316E+03	3.633208E-18	7.001140E-19
3.941218E+03	3.642709E-18	7.019089E-19
3.951121E+03	3.653689E-18	7.039882E-19
3.961024E+03	3.666138E-18	7.063500E-19
3.970926E+03	3.679994E-18	7.089823E-19
3.980829E+03	3.695251E-18	7.118839E-19
3.990731E+03	3.711904E-18	7.150536E-19
4.000634E+03	3.729949E-18	7.184909E-19
4.010536E+03	3.749352E-18	7.221892E-19
4.020439E+03	3.770083E-18	7.261425E-19
4.030341E+03	3.792141E-18	7.303504E-19
4.040244E+03	3.815492E-18	7.348067E-19
4.050147E+03	3.840138E-18	7.395113E-19
4.060049E+03	3.866047E-18	7.444585E-19
4.069952E+03	3.893221E-18	7.496481E-19
4.079854E+03	3.921630E-18	7.550745E-19
4.089757E+03	3.951244E-18	7.607320E-19
4.099659E+03	3.982065E-18	7.666209E-19
4.109562E+03	4.014065E-18	7.727355E-19
4.119464E+03	4.047244E-18	7.790762E-19
4.129367E+03	4.081546E-18	7.856317E-19
4.139270E+03	4.116972E-18	7.924023E-19
4.149172E+03	4.153461E-18	7.993763E-19
4.159075E+03	4.191049E-18	8.065605E-19
4.168977E+03	4.229674E-18	8.139431E-19
4.178880E+03	4.269341E-18	8.215247E-19
4.188782E+03	4.309954E-18	8.292870E-19
4.198685E+03	4.351550E-18	8.372367E-19
4.208587E+03	4.394030E-18	8.453553E-19
4.218490E+03	4.437429E-18	8.536491E-19
4.228393E+03	4.481648E-18	8.620991E-19
4.238295E+03	4.526618E-18	8.706920E-19
4.248198E+03	4.572374E-18	8.794344E-19
4.258100E+03	4.618774E-18	8.882990E-19
4.268003E+03	4.665853E-18	8.972924E-19
4.277905E+03	4.713464E-18	9.063864E-19
4.287808E+03	4.761640E-18	9.155874E-19
4.297711E+03	4.810305E-18	9.248805E-19
4.307613E+03	4.859380E-18	9.342506E-19
4.317516E+03	4.908859E-18	9.436965E-19
4.327418E+03	4.958698E-18	9.532098E-19
4.337321E+03	5.008934E-18	9.627974E-19
4.347223E+03	5.059484E-18	9.724434E-19
4.357126E+03	5.110426E-18	9.821628E-19
4.367028E+03	5.161759E-18	9.919553E-19
4.376931E+03	5.213486E-18	1.001821E-18
4.386834E+03	5.265610E-18	1.011762E-18
4.396736E+03	5.318175E-18	1.021785E-18
4.406639E+03	5.371146E-18	1.031884E-18
4.416541E+03	5.424573E-18	1.042068E-18
4.426444E+03	5.478462E-18	1.052338E-18
4.436346E+03	5.532825E-18	1.062698E-18
4.446249E+03	5.587625E-18	1.073139E-18
4.456151E+03	5.642873E-18	1.083664E-18
4.466054E+03	5.698533E-18	1.094265E-18
4.475957E+03	5.754661E-18	1.104955E-18
4.485859E+03	5.811174E-18	1.115715E-18
4.495762E+03	5.868082E-18	1.126549E-18
4.505664E+03	5.925398E-18	1.137459E-18
4.515567E+03	5.983035E-18	1.148427E-18
4.525469E+03	6.041055E-18	1.159467E-18
4.535372E+03	6.099371E-18	1.170561E-18
4.545274E+03	6.157997E-18	1.181711E-18
4.555177E+03	6.216844E-18	1.192902E-18
4.565080E+03	6.275982E-18	1.204145E-18
4.574982E+03	6.335378E-18	1.215435E-18
4.584885E+03	6.394943E-18	1.226755E-18
4.594787E+03	6.454701E-18	1.238108E-18
4.604690E+03	6.514675E-18	1.249501E-18
4.614592E+03	6.574840E-18	1.260927E-18
4.624495E+03	6.635108E-18	1.272370E-18
4.634398E+03	6.695631E-18	1.283858E-18
4.644300E+03	6.756447E-18	1.295400E-18
4.654203E+03	6.817480E-18	1.306980E-18
4.664105E+03	6.878772E-18	1.318607E-18
4.674008E+03	6.940372E-18	1.330290E-18
4.683910E+03	7.002144E-18	1.342002E-18
4.693813E+03	7.064137E-18	1.353754E-18
4.703715E+03	7.126277E-18	1.365531E-18
4.713618E+03	7.188618E-18	1.377342E-18
4.723521E+03	7.251152E-18	1.389187E-18
4.733423E+03	7.313805E-18	1.401052E-18
4.743326E+03	7.376638E-18	1.412948E-18
4.753228E+03	7.439577E-18	1.424860E-18
4.763131E+03	7.502686E-18	1.436801E-18
4.773033E+03	7.565890E-18	1.448757E-18
4.782936E+03	7.629185E-18	1.460727E-18
4.792838E+03	7.692564E-18	1.472710E-18
4.802741E+03	7.756095E-18	1.484717E-18
4.812644E+03	7.819700E-18	1.496735E-18
4.822546E+03	7.883372E-18	1.508763E-18
4.832449E+03	7.947029E-18	1.520783E-18
4.842351E+03	8.010809E-18	1.532823E-18
4.852254E+03	8.074626E-18	1.544867E-18
4.862156E+03	8.138469E-18	1.556911E-18
4.872059E+03	8.202244E-18	1.568938E-18
4.881961E+03	8.266009E-18	1.580960E-18
4.891864E+03	8.329667E-18	1.592957E-18
4.901767E+03	8.393195E-18	1.604925E-18
4.911669E+03	8.456645E-18	1.616874E-18
4.921572E+03	8.519911E-18	1.628784E-18
4.931474E+03	8.582960E-18	1.640648E-18
4.941377E+03	8.645689E-18	1.652446E-18
4.951279E+03	8.708127E-18	1.664185E-18
4.961182E+03	8.770239E-18	1.675857E-18
4.971085E+03	8.831911E-18	1.687441E-18
4.980987E+03	8.893090E-18	1.698927E-18
4.990890E+03	8.953741E-18	1.710307E-18
5.000792E+03	9.013716E-18	1.721554E-18
5.010695E+03	9.073054E-18	1.732675E-18
5.020597E+03	9.131713E-18	1.743661E-18
5.030500E+03	9.189466E-18	1.754471E-18
5.040402E+03	9.246336E-18	1.765107E-18
5.050305E+03	9.302280E-18	1.775563E-18
5.060208E+03	9.357156E-18	1.785810E-18
5.070110E+03	9.410895E-18	1.795836E-18
5.080013E+03	9.463458E-18	1.805633E-18
5.089915E+03	9.514793E-18	1.815192E-18
5.099818E+03	9.564742E-18	1.824482E-18
5.109720E+03	9.613346E-18	1.833511E-18
5.119623E+03	9.660360E-18	1.842232E-18
5.129525E+03	9.705817E-18	1.850653E-18
5.139428E+03	9.749560E-18	1.858743E-18
5.149331E+03	9.791524E-18	1.866489E-18
5.159233E+03	9.831639E-18	1.873880E-18
5.169136E+03	9.869825E-18	1.880898E-18
5.179038E+03	9.905836E-18	1.887498E-18
5.188941E+03	9.939766E-18	1.893698E-18
5.198843E+03	9.971446E-18	1.899466E-18
5.208746E+03	1.000079E-17	1.904785E-18
5.218648E+03	1.002763E-17	1.909624E-18
5.228551E+03	1.005186E-17	1.913963E-18
5.238454E+03	1.007343E-17	1.917792E-18
5.248356E+03	1.009227E-17	1.921096E-18
5.258259E+03	1.010828E-17	1.923861E-18
5.268161E+03	1.012132E-17	1.926056E-18
5.278064E+03	1.013154E-17	1.927713E-18
5.287966E+03	1.013869E-17	1.928784E-18
5.297869E+03	1.014275E-17	1.929263E-18
5.307772E+03	1.014389E-17	1.929186E-18
5.317674E+03	1.014191E-17	1.928513E-18
5.327577E+03	1.013702E-17	1.927285E-18
5.337479E+03	1.012913E-17	1.925485E-18
5.347382E+03	1.011838E-17	1.923138E-18
5.357284E+03	1.010471E-17	1.920236E-18
5.367187E+03	1.008837E-17	1.916826E-18
5.377089E+03	1.006934E-17	1.912904E-18
5.386992E+03	1.004780E-17	1.908502E-18
5.396895E+03	1.002362E-17	1.903601E-18
5.406797E+03	9.997037E-18	1.898241E-18
5.416700E+03	9.968037E-18	1.892422E-18
5.426602E+03	9.936657E-18	1.886151E-18
5.436505E+03	9.903122E-18	1.879471E-18
5.446407E+03	9.867381E-18	1.872372E-18
5.456310E+03	9.829484E-18	1.864865E-18
5.466212E+03	9.789581E-18	1.856977E-18
5.476115E+03	9.747635E-18	1.848702E-18
5.486018E+03	9.703916E-18	1.840092E-18
5.495920E+03	9.658285E-18	1.831120E-18
5.505823E+03	9.611126E-18	1.821859E-18
5.515725E+03	9.562492E-18	1.812319E-18
5.525628E+03	9.512468E-18	1.802518E-18
5.535530E+03	9.461206E-18	1.792483E-18
5.545433E+03	9.408870E-18	1.782245E-18
5.555335E+03	9.355530E-18	1.771820E-18
5.565238E+03	9.301520E-18	1.761269E-18
5.575141E+03	9.246806E-18	1.750586E-18
5.585043E+03	9.191701E-18	1.739831E-18
5.594946E+03	9.136165E-18	1.728996E-18
5.604848E+03	9.080502E-18	1.718139E-18
5.614751E+03	9.024828E-18	1.707282E-18
5.624653E+03	8.969171E-18	1.696429E-18
5.634556E+03	8.913714E-18	1.685617E-18
5.644459E+03	8.858574E-18	1.674866E-18
5.654361E+03	8.803907E-18	1.664207E-18
5.664264E+03	8.749829E-18	1.653661E-18
5.674166E+03	8.696299E-18	1.643221E-18
5.684069E+03	8.643590E-18	1.632937E-18
5.693971E+03	8.591765E-18	1.622823E-18
5.703874E+03	8.540800E-18	1.612872E-18
5.713776E+03	8.490846E-18	1.603115E-18
5.723679E+03	8.442050E-18	1.593577E-18
5.733582E+03	8.394468E-18	1.584271E-18
5.743484E+03	8.348059E-18	1.575187E-18
5.753387E+03	8.302968E-18	1.566354E-18
5.763289E+03	8.259329E-18	1.557796E-18
5.773192E+03	8.217189E-18	1.549522E-18
5.783094E+03	8.176504E-18	1.541524E-18
5.792997E+03	8.137408E-18	1.533826E-18
5.802899E+03	8.099942E-18	1.526437E-18
5.812802E+03	8.064236E-18	1.519381E-18
5.822705E+03	8.030329E-18	1.512664E-18
5.832607E+03	7.998170E-18	1.506277E-18
5.842510E+03	7.967881E-18	1.500243E-18
5.852412E+03	7.939406E-18	1.494551E-18
5.862315E+03	7.913040E-18	1.489256E-18
5.872217E+03	7.888542E-18	1.484313E-18
5.882120E+03	7.866021E-18	1.479741E-18
5.892022E+03	7.845585E-18	1.475562E-18
5.901925E+03	7.827158E-18	1.471760E-18
5.911828E+03	7.810750E-18	1.468338E-18
5.921730E+03	7.796455E-18	1.465312E-18
5.931633E+03	7.784185E-18	1.462665E-18
5.941535E+03	7.774027E-18	1.460415E-18
5.951438E+03	7.765796E-18	1.458525E-18
5.961340E+03	7.759662E-18	1.457028E-18
5.971243E+03	7.755431E-18	1.455886E-18
5.981146E+03	7.753268E-18	1.455131E-18
5.991048E+03	7.752882E-18	1.454707E-18
6.000951E+03	7.754431E-18	1.454645E-18
6.010853E+03	7.757801E-18	1.454921E-18
6.020756E+03	7.762962E-18	1.455531E-18
6.030658E+03	7.769699E-18	1.456434E-18
6.040561E+03	7.778166E-18	1.457659E-18
6.050463E+03	7.788047E-18	1.459145E-18
6.060366E+03	7.799491E-18	1.460922E-18
6.070269E+03	7.812175E-18	1.462927E-18
6.080171E+03	7.826054E-18	1.465153E-18
6.090074E+03	7.840985E-18	1.467572E-18
6.099976E+03	7.856920E-18	1.470175E-18
6.109879E+03	7.873512E-18	1.472898E-18
6.119781E+03	7.890703E-18	1.475729E-18
6.129684E+03	7.908335E-18	1.478639E-18
6.139586E+03	7.926343E-18	1.481615E-18
6.149489E+03	7.944660E-18	1.484645E-18
6.159392E+03	7.963427E-18	1.487755E-18
6.169294E+03	7.982889E-18	1.490990E-18
6.179197E+03	8.003095E-18	1.494361E-18
6.189099E+03	8.024203E-18	1.497895E-18
6.199002E+03	8.046379E-18	1.501625E-18
6.208904E+03	8.069689E-18	1.505561E-18
6.218807E+03	8.094313E-18	1.509738E-18
6.228709E+03	8.120333E-18	1.514171E-18
6.238612E+03	8.147833E-18	1.518874E-18
6.248515E+03	8.177017E-18	1.523886E-18
6.258417E+03	8.207875E-18	1.529205E-18
6.268320E+03	8.240623E-18	1.534870E-18
6.278222E+03	8.275150E-18	1.540861E-18
6.288125E+03	8.311568E-18	1.547198E-18
6.298027E+03	8.349883E-18	1.553881E-18
6.307930E+03	8.390220E-18	1.560935E-18
6.317833E+03	8.432472E-18	1.568337E-18
6.327735E+03	8.476650E-18	1.576091E-18
6.337638E+03	8.522643E-18	1.584175E-18
6.347540E+03	8.570215E-18	1.592545E-18
6.357443E+03	8.619243E-18	1.601178E-18
6.367345E+03	8.669726E-18	1.610073E-18
6.377248E+03	8.721667E-18	1.619231E-18
6.387150E+03	8.775065E-18	1.628651E-18
6.397053E+03	8.830059E-18	1.638358E-18
6.406956E+03	8.886785E-18	1.648378E-18
6.416858E+03	8.945270E-18	1.658716E-18
6.426761E+03	9.005382E-18	1.669345E-18
6.436663E+03	9.067409E-18	1.680321E-18
6.446566E+03	9.131388E-18	1.691648E-18
6.456468E+03	9.197178E-18	1.703300E-18
6.466371E+03	9.264962E-18	1.715312E-18
6.476273E+03	9.334767E-18	1.727687E-18
6.486176E+03	9.406462E-18	1.740400E-18
6.496079E+03	9.480071E-18	1.753457E-18
6.505981E+03	9.555921E-18	1.766917E-18
6.515884E+03	9.633589E-18	1.780701E-18
6.525786E+03	9.713399E-18	1.794869E-18
6.535689E+03	9.795388E-18	1.809426E-18
6.545591E+03	9.879265E-18	1.824320E-18
6.555494E+03	9.965380E-18	1.839614E-18
6.565396E+03	1.005343E-17	1.855252E-18
6.575299E+03	1.014376E-17	1.871297E-18
6.585202E+03	1.023608E-17	1.887695E-18
6.595104E+03	1.033058E-17	1.904481E-18
6.605007E+03	1.042728E-17	1.921658E-18
6.614909E+03	1.052604E-17	1.939198E-18
6.624812E+03	1.062687E-17	1.957105E-18
6.634714E+03	1.072998E-17	1.975415E-18
6.644617E+03	1.083522E-17	1.994103E-18
6.654520E+03	1.094260E-17	2.013168E-18
6.664422E+03	1.105216E-17	2.032616E-18
6.674325E+03	1.116390E-17	2.052449E-18
6.684227E+03	1.127786E-17	2.072672E-18
6.694130E+03	1.139406E-17	2.093289E-18
6.704032E+03	1.151232E-17	2.114266E-18
6.713935E+03	1.163287E-17	2.135644E-18
6.723837E+03	1.175572E-17	2.157426E-18
6.733740E+03	1.188069E-17	2.179577E-18
6.743643E+03	1.200800E-17	2.202138E-18
6.753545E+03	1.213747E-17	2.225077E-18
6.763448E+03	1.226912E-17	2.248391E-18
6.773350E+03	1.240294E-17	2.272085E-18
6.783253E+03	1.253897E-17	2.296161E-18
6.793155E+03	1.267745E-17	2.320665E-18
6.803058E+03	1.281793E-17	2.345512E-18
6.812960E+03	1.296065E-17	2.370748E-18
6.822863E+03	1.310564E-17	2.396374E-18
6.832766E+03	1.325265E-17	2.422347E-18
6.842668E+03	1.340195E-17	2.448715E-18
6.852571E+03	1.355354E-17	2.475477E-18
6.862473E+03	1.370719E-17	2.502591E-18
6.872376E+03	1.386288E-17	2.530053E-18
6.882278E+03	1.402088E-17	2.557912E-18
6.892181E+03	1.418096E-17	2.586123E-18
6.902083E+03	1.434309E-17	2.614683E-18
6.911986E+03	1.450727E-17	2.643591E-18
6.921889E+03	1.467351E-17	2.672847E-18
6.931791E+03	1.484152E-17	2.702396E-18
6.941694E+03	1.501185E-17	2.732343E-18
6.951596E+03	1.518393E-17	2.762578E-18
6.961499E+03	1.535804E-17	2.793156E-18
6.971401E+03	1.553386E-17	2.824016E-18
6.981304E+03	1.571138E-17	2.855156E-18
6.991207E+03	1.589089E-17	2.886628E-18
7.001109E+03	1.607205E-17	2.918371E-18
7.011012E+03	1.625453E-17	2.950323E-18
7.020914E+03	1.643895E-17	2.982596E-18
7.030817E+03	1.662496E-17	3.015128E-18
7.040719E+03	1.681219E-17	3.047851E-18
7.050622E+03	1.700095E-17	3.080818E-18
7.060524E+03	1.719087E-17	3.113965E-18
7.070427E+03	1.738225E-17	3.147344E-18
7.080330E+03	1.757470E-17	3.180885E-18
7.090232E+03	1.776856E-17	3.214649E-18
7.100135E+03	1.796303E-17	3.248492E-18
7.110037E+03	1.815844E-17	3.282472E-18
7.119940E+03	1.835513E-17	3.316651E-18
7.129842E+03	1.855229E-17	3.350879E-18
7.139745E+03	1.874985E-17	3.385148E-18
7.149647E+03	1.894812E-17	3.419512E-18
7.159550E+03	1.914708E-17	3.453967E-18
7.169453E+03	1.934624E-17	3.488424E-18
7.179355E+03	1.954596E-17	3.522949E-18
7.189258E+03	1.974575E-17	3.557452E-18
7.199160E+03	1.994553E-17	3.591920E-18
7.209063E+03	2.014564E-17	3.626414E-18
7.218965E+03	2.034560E-17	3.660846E-18
7.228868E+03	2.054576E-17	3.695279E-18
7.238770E+03	2.074557E-17	3.729617E-18
7.248673E+03	2.094499E-17	3.763849E-18
7.258576E+03	2.114482E-17	3.798123E-18
7.268478E+03	2.134408E-17	3.832259E-18
7.278381E+03	2.154363E-17	3.866415E-18
7.288283E+03	2.174295E-17	3.900494E-18
7.298186E+03	2.194245E-17	3.934572E-18
7.308088E+03	2.214260E-17	3.968733E-18
7.317991E+03	2.234287E-17	4.002881E-18
7.327894E+03	2.254426E-17	4.037195E-18
7.337796E+03	2.274676E-17	4.071674E-18
7.347699E+03	2.295092E-17	4.106417E-18
7.357601E+03	2.315680E-17	4.141431E-18
7.367504E+03	2.336444E-17	4.176726E-18
7.377406E+03	2.357442E-17	4.212405E-18
7.387309E+03	2.378576E-17	4.248289E-18
7.397211E+03	2.399848E-17	4.284387E-18
7.407114E+03	2.421207E-17	4.320603E-18
7.417017E+03	2.442714E-17	4.357048E-18
7.426919E+03	2.464319E-17	4.393630E-18
7.436822E+03	2.485965E-17	4.430252E-18
7.446724E+03	2.507657E-17	4.466917E-18
7.456627E+03	2.529396E-17	4.503633E-18
7.466529E+03	2.551125E-17	4.540294E-18
7.476432E+03	2.572906E-17	4.577011E-18
7.486334E+03	2.594618E-17	4.613569E-18
7.496237E+03	2.616383E-17	4.650188E-18
7.506140E+03	2.638141E-17	4.686758E-18
7.516042E+03	2.659892E-17	4.723280E-18
7.525945E+03	2.681567E-17	4.759632E-18
7.535847E+03	2.703227E-17	4.795924E-18
7.545750E+03	2.724869E-17	4.832147E-18
7.555652E+03	2.746484E-17	4.868289E-18
7.565555E+03	2.767999E-17	4.904219E-18
7.575457E+03	2.789467E-17	4.940033E-18
7.585360E+03	2.810808E-17	4.975588E-18
7.595263E+03	2.832147E-17	5.011105E-18
7.605165E+03	2.853254E-17	5.046178E-18
7.615068E+03	2.874325E-17	5.081155E-18
7.624970E+03	2.895267E-17	5.115873E-18
7.634873E+03	2.915985E-17	5.150163E-18
7.644775E+03	2.936528E-17	5.184111E-18
7.654678E+03	2.956871E-17	5.217676E-18
7.664581E+03	2.976985E-17	5.250807E-18
7.674483E+03	2.996845E-17	5.283461E-18
7.684386E+03	3.016499E-17	5.315721E-18
