#wls	flux	fluxerr
1.584409E+03	9.087973E-19	-1.109998E-17
1.624020E+03	9.991908E-19	-1.080218E-17
1.663630E+03	1.078763E-18	-1.043426E-17
1.703240E+03	1.145776E-18	-1.000273E-17
1.742850E+03	1.198371E-18	-9.511746E-18
1.782461E+03	1.225040E-18	-8.931896E-18
1.822071E+03	1.235075E-18	-8.309963E-18
1.861681E+03	1.227306E-18	-7.650653E-18
1.901291E+03	1.200842E-18	-6.959580E-18
1.940902E+03	1.148417E-18	-6.230892E-18
1.980512E+03	1.080765E-18	-5.501808E-18
2.020122E+03	1.001524E-18	-4.793218E-18
2.059732E+03	9.167275E-19	-4.132162E-18
2.099342E+03	8.308654E-19	-3.546318E-18
2.138953E+03	7.551508E-19	-3.055327E-18
2.178563E+03	6.911555E-19	-2.653370E-18
2.218173E+03	6.355928E-19	-2.317277E-18
2.257783E+03	5.837368E-19	-2.030518E-18
2.297394E+03	5.314391E-19	-1.764426E-18
2.337004E+03	4.762049E-19	-1.509556E-18
2.376614E+03	4.176597E-19	-1.264462E-18
2.416224E+03	3.612670E-19	-1.049072E-18
2.455835E+03	3.052143E-19	-8.500421E-19
2.495445E+03	2.508431E-19	-6.699541E-19
2.535055E+03	1.993165E-19	-5.104182E-19
2.574665E+03	1.578809E-19	-3.893003E-19
2.614276E+03	1.207222E-19	-2.864956E-19
2.653886E+03	8.805108E-20	-2.010150E-19
2.693496E+03	5.991549E-20	-1.315123E-19
2.733106E+03	4.202651E-20	-8.907887E-20
2.772716E+03	2.736051E-20	-5.595735E-20
2.812327E+03	1.565027E-20	-3.085829E-20
2.851937E+03	6.603698E-21	-1.254196E-20
2.891547E+03	3.324922E-21	-6.107624E-21
2.931157E+03	9.584355E-22	-1.700891E-21
2.970768E+03	-6.506396E-22	1.114172E-21
2.980670E+03	-9.516418E-22	1.614817E-21
2.990573E+03	-8.886705E-22	1.495390E-21
3.000475E+03	-8.288758E-22	1.383024E-21
3.010378E+03	-7.721758E-22	1.277453E-21
3.020280E+03	-7.184341E-22	1.178326E-21
3.030183E+03	-5.375503E-22	8.743645E-22
3.040086E+03	-3.758954E-22	6.063102E-22
3.049988E+03	-2.322599E-22	3.714630E-22
3.059891E+03	-1.054327E-22	1.671815E-22
3.069793E+03	1.092043E-22	-1.717412E-22
3.079696E+03	2.949794E-22	-4.600501E-22
3.089598E+03	4.540500E-22	-7.021848E-22
3.099501E+03	5.884602E-22	-9.023060E-22
3.109403E+03	7.803973E-22	-1.186857E-21
3.119306E+03	9.393684E-22	-1.416830E-21
3.129209E+03	1.068174E-21	-1.597625E-21
3.139111E+03	1.169428E-21	-1.734236E-21
3.149014E+03	1.306215E-21	-1.921392E-21
3.158916E+03	1.410431E-21	-2.057637E-21
3.168819E+03	1.485244E-21	-2.148715E-21
3.178721E+03	1.533660E-21	-2.199992E-21
3.188624E+03	1.602918E-21	-2.280798E-21
3.198526E+03	1.643434E-21	-2.319297E-21
3.208429E+03	1.658425E-21	-2.320988E-21
3.218332E+03	1.651058E-21	-2.291158E-21
3.228234E+03	1.655991E-21	-2.279542E-21
3.238137E+03	1.638157E-21	-2.236575E-21
3.248039E+03	1.600752E-21	-2.167354E-21
3.257942E+03	1.546709E-21	-2.076491E-21
3.267844E+03	1.501105E-21	-1.999125E-21
3.277747E+03	1.439782E-21	-1.901821E-21
3.287650E+03	1.365630E-21	-1.788893E-21
3.297552E+03	1.281331E-21	-1.664270E-21
3.307455E+03	1.204656E-21	-1.552174E-21
3.317357E+03	1.119357E-21	-1.430514E-21
3.327260E+03	1.027857E-21	-1.302660E-21
3.337162E+03	9.323519E-22	-1.171601E-21
3.347065E+03	8.453840E-22	-1.053836E-21
3.356967E+03	7.560161E-22	-9.347477E-22
3.366870E+03	6.661165E-22	-8.167339E-22
3.376773E+03	5.773077E-22	-7.018185E-22
3.386675E+03	4.983652E-22	-6.010147E-22
3.396578E+03	4.217384E-22	-5.044514E-22
3.406480E+03	3.486851E-22	-4.135842E-22
3.416383E+03	2.802538E-22	-3.295711E-22
3.426285E+03	2.223624E-22	-2.594042E-22
3.436188E+03	1.696109E-22	-1.962450E-22
3.446090E+03	1.226484E-22	-1.407161E-22
3.455993E+03	8.195657E-23	-9.321948E-23
3.465896E+03	5.112211E-23	-5.768257E-23
3.475798E+03	2.619810E-23	-2.931713E-23
3.485701E+03	7.291227E-24	-8.090337E-24
3.495603E+03	-5.627449E-24	6.189936E-24
3.505506E+03	-1.113581E-23	1.215070E-23
3.515408E+03	-1.185211E-23	1.282548E-23
3.525311E+03	-8.111706E-24	8.703144E-24
3.535213E+03	-3.519439E-25	3.742885E-25
3.545116E+03	1.096819E-23	-1.157077E-23
3.555019E+03	2.452976E-23	-2.566238E-23
3.564921E+03	3.967896E-23	-4.115438E-23
3.574824E+03	5.569383E-23	-5.725115E-23
3.584726E+03	7.079053E-23	-7.218277E-23
3.594629E+03	8.464507E-23	-8.558748E-23
3.604531E+03	9.642456E-23	-9.665131E-23
3.614434E+03	1.052597E-22	-1.045555E-22
3.624337E+03	1.085696E-22	-1.069693E-22
3.634239E+03	1.067930E-22	-1.043310E-22
3.644142E+03	9.906813E-23	-9.593301E-23
3.654044E+03	8.453321E-23	-8.110704E-23
3.663947E+03	6.024105E-23	-5.732895E-23
3.673849E+03	2.727034E-23	-2.573101E-23
3.683752E+03	-1.511599E-23	1.413548E-23
3.693654E+03	-6.762502E-23	6.264667E-23
3.703557E+03	-1.333235E-22	1.224987E-22
3.713460E+03	-2.104583E-22	1.917065E-22
3.723362E+03	-2.994950E-22	2.703352E-22
3.733265E+03	-4.008390E-22	3.583471E-22
3.743167E+03	-5.177200E-22	4.590389E-22
3.753070E+03	-6.474172E-22	5.690396E-22
3.762972E+03	-7.899816E-22	6.879253E-22
3.772875E+03	-9.453678E-22	8.151368E-22
3.782777E+03	-1.117290E-21	9.554507E-22
3.792680E+03	-1.301458E-21	1.103143E-21
3.802583E+03	-1.497316E-21	1.257166E-21
3.812485E+03	-1.704190E-21	1.416317E-21
3.822388E+03	-1.926785E-21	1.588156E-21
3.832290E+03	-2.158246E-21	1.763098E-21
3.842193E+03	-2.397155E-21	1.939300E-21
3.852095E+03	-2.641927E-21	2.114726E-21
3.861998E+03	-2.898469E-21	2.301170E-21
3.871900E+03	-3.156189E-21	2.483258E-21
3.881803E+03	-3.412383E-21	2.658076E-21
3.891706E+03	-3.664018E-21	2.822376E-21
3.901608E+03	-3.917229E-21	2.993393E-21
3.911511E+03	-4.156787E-21	3.147802E-21
3.921413E+03	-4.377806E-21	3.281023E-21
3.931316E+03	-4.574853E-21	3.387984E-21
3.941218E+03	-4.750630E-21	3.491717E-21
3.951121E+03	-4.885309E-21	3.558750E-21
3.961024E+03	-4.970258E-21	3.581876E-21
3.970926E+03	-4.996042E-21	3.553225E-21
3.980829E+03	-4.952530E-21	3.499943E-21
3.990731E+03	-4.817835E-21	3.376743E-21
4.000634E+03	-4.577150E-21	3.172445E-21
4.010536E+03	-4.214130E-21	2.874720E-21
4.020439E+03	-3.685646E-21	2.509397E-21
4.030341E+03	-2.976116E-21	2.019509E-21
4.040244E+03	-2.059935E-21	1.387452E-21
4.050147E+03	-9.092004E-22	5.940444E-22
4.060049E+03	5.903588E-22	1.313093E-21
4.069952E+03	2.429987E-21	2.180114E-21
4.079854E+03	4.653423E-21	3.213543E-21
4.089757E+03	7.308275E-21	4.433449E-21
4.099659E+03	1.064443E-20	6.238669E-21
4.109562E+03	1.459626E-20	8.370154E-21
4.119464E+03	1.923764E-20	1.086674E-20
4.129367E+03	2.464868E-20	1.377052E-20
4.139270E+03	3.132407E-20	1.700625E-20
4.149172E+03	3.908299E-20	2.074137E-20
4.159075E+03	4.804725E-20	2.503064E-20
4.168977E+03	5.835004E-20	2.993394E-20
4.178880E+03	7.090946E-20	3.540340E-20
4.188782E+03	8.532760E-20	4.161899E-20
4.198685E+03	1.018037E-19	4.865711E-20
4.208587E+03	1.205510E-19	5.659920E-20
4.218490E+03	1.431940E-19	6.544638E-20
4.228393E+03	1.689513E-19	7.537954E-20
4.238295E+03	1.981385E-19	8.650084E-20
4.248198E+03	2.310943E-19	9.891947E-20
4.258100E+03	2.705716E-19	1.127041E-19
4.268003E+03	3.151472E-19	1.280233E-19
4.277905E+03	3.653060E-19	1.450072E-19
4.287808E+03	4.215794E-19	1.637995E-19
4.297711E+03	4.884635E-19	1.845449E-19
4.307613E+03	5.634983E-19	2.073861E-19
4.317516E+03	6.474201E-19	2.324847E-19
4.327418E+03	7.410263E-19	2.600164E-19
4.337321E+03	8.514864E-19	2.902097E-19
4.347223E+03	9.747080E-19	3.231680E-19
4.357126E+03	1.111803E-18	3.590874E-19
4.367028E+03	1.263954E-18	3.981749E-19
4.376931E+03	1.442268E-18	4.407066E-19
4.386834E+03	1.640150E-18	4.867407E-19
4.396736E+03	1.859216E-18	5.364948E-19
4.406639E+03	2.101144E-18	5.901866E-19
4.416541E+03	2.382735E-18	6.480652E-19
4.426444E+03	2.693641E-18	7.101523E-19
4.436346E+03	3.036107E-18	7.766567E-19
4.446249E+03	3.412486E-18	8.477896E-19
4.456151E+03	3.847513E-18	9.236111E-19
4.466054E+03	4.325368E-18	1.004149E-18
4.475957E+03	4.849083E-18	1.089565E-18
4.485859E+03	5.421712E-18	1.179997E-18
4.495762E+03	6.078241E-18	1.274971E-18
4.505664E+03	6.795451E-18	1.374689E-18
4.515567E+03	7.577219E-18	1.479203E-18
4.525469E+03	8.427436E-18	1.588533E-18
4.535372E+03	9.390843E-18	1.700721E-18
4.545274E+03	1.043696E-17	1.816837E-18
4.555177E+03	1.157021E-17	1.936717E-18
4.565080E+03	1.279541E-17	2.060233E-18
4.574982E+03	1.416608E-17	2.183259E-18
4.584885E+03	1.564414E-17	2.308160E-18
4.594787E+03	1.723466E-17	2.434569E-18
4.604690E+03	1.894252E-17	2.562071E-18
4.614592E+03	2.082173E-17	2.683548E-18
4.624495E+03	2.283282E-17	2.803515E-18
4.634398E+03	2.498008E-17	2.921287E-18
4.644300E+03	2.726749E-17	3.036146E-18
4.654203E+03	2.968941E-17	3.133870E-18
4.664105E+03	3.225557E-17	3.225538E-18
4.674008E+03	3.496849E-17	3.310310E-18
4.683910E+03	3.782962E-17	3.387276E-18
4.693813E+03	4.070972E-17	3.438210E-18
4.703715E+03	4.372760E-17	3.479366E-18
4.713618E+03	4.688330E-17	3.509981E-18
4.723521E+03	5.017860E-17	3.529469E-18
4.733423E+03	5.330584E-17	3.530043E-18
4.743326E+03	5.654214E-17	3.520166E-18
4.753228E+03	5.988749E-17	3.499518E-18
4.763131E+03	6.333887E-17	3.467635E-18
4.773033E+03	6.636835E-17	3.454107E-18
4.782936E+03	6.945784E-17	3.433694E-18
4.792838E+03	7.260565E-17	3.406370E-18
4.802741E+03	7.580716E-17	3.371988E-18
4.812644E+03	7.833882E-17	3.421117E-18
4.822546E+03	8.087217E-17	3.468372E-18
4.832449E+03	8.340424E-17	3.513720E-18
4.842351E+03	8.593135E-17	3.557098E-18
4.852254E+03	8.766790E-17	3.714393E-18
4.862156E+03	8.935500E-17	3.870223E-18
4.872059E+03	9.098976E-17	4.024295E-18
4.881961E+03	9.257017E-17	4.176352E-18
4.891864E+03	9.330017E-17	4.382225E-18
4.901767E+03	9.394571E-17	4.581553E-18
4.911669E+03	9.450402E-17	4.773858E-18
4.921572E+03	9.497524E-17	4.958816E-18
4.931474E+03	9.457777E-17	5.132205E-18
4.941377E+03	9.407759E-17	5.292772E-18
4.951279E+03	9.347630E-17	5.440303E-18
4.961182E+03	9.277656E-17	5.574677E-18
4.971085E+03	9.122970E-17	5.658728E-18
4.980987E+03	8.958437E-17	5.725842E-18
4.990890E+03	8.784395E-17	5.776120E-18
5.000792E+03	8.601393E-17	5.809833E-18
5.010695E+03	8.339911E-17	5.775586E-18
5.020597E+03	8.070831E-17	5.723514E-18
5.030500E+03	7.794928E-17	5.654279E-18
5.040402E+03	7.512900E-17	5.568530E-18
5.050305E+03	7.161887E-17	5.411236E-18
5.060208E+03	6.807318E-17	5.238743E-18
5.070110E+03	6.450217E-17	5.052157E-18
5.080013E+03	6.091334E-17	4.852404E-18
5.089915E+03	5.675322E-17	4.587058E-18
5.099818E+03	5.261044E-17	4.312028E-18
5.109720E+03	4.849486E-17	4.028571E-18
5.119623E+03	4.441568E-17	3.737916E-18
5.129525E+03	3.989716E-17	3.393772E-18
5.139428E+03	3.545353E-17	3.047170E-18
5.149331E+03	3.109493E-17	2.699477E-18
5.159233E+03	2.683008E-17	2.351950E-18
5.169136E+03	2.225758E-17	1.965998E-18
5.179038E+03	1.781749E-17	1.585464E-18
5.188941E+03	1.351834E-17	1.211566E-18
5.198843E+03	9.367567E-18	8.454308E-19
5.208746E+03	5.032172E-18	4.564534E-19
5.218648E+03	8.797188E-19	8.018979E-20
5.228551E+03	-3.083905E-18	-2.824601E-19
5.238454E+03	-6.853369E-18	-6.306518E-19
5.248356E+03	-1.070097E-17	-9.876035E-19
5.258259E+03	-1.432712E-17	-1.326061E-18
5.268161E+03	-1.772879E-17	-1.645511E-18
5.278064E+03	-2.090380E-17	-1.945529E-18
5.285209E+03	-5.365809E-17	-5.000426E-18
5.285407E+03	-5.368246E-17	-5.002874E-18
5.285605E+03	-5.370359E-17	-5.005021E-18
5.285803E+03	-5.372150E-17	-5.006867E-18
5.286001E+03	-5.373725E-17	-5.008495E-18
5.286199E+03	-5.375380E-17	-5.010200E-18
5.286397E+03	-5.376710E-17	-5.011601E-18
5.286595E+03	-5.377711E-17	-5.012695E-18
5.286992E+03	-5.391512E-17	-5.025872E-18
5.287190E+03	-5.392408E-17	-5.026864E-18
5.287586E+03	-5.405371E-17	-5.039261E-18
5.288576E+03	-5.454197E-17	-5.085569E-18
5.288774E+03	-5.454188E-17	-5.085712E-18
5.288973E+03	-5.454092E-17	-5.085775E-18
5.289369E+03	-5.465381E-17	-5.096606E-18
5.289567E+03	-5.465235E-17	-5.096621E-18
5.289765E+03	-5.464186E-17	-5.095791E-18
5.290755E+03	-5.509947E-17	-5.139205E-18
5.290953E+03	-5.509020E-17	-5.138488E-18
5.291349E+03	-5.518815E-17	-5.147920E-18
5.291943E+03	-5.540099E-17	-5.168192E-18
5.292340E+03	-5.549600E-17	-5.177336E-18
5.293331E+03	-5.592074E-17	-5.217663E-18
5.294123E+03	-5.622725E-17	-5.246827E-18
5.294321E+03	-5.619723E-17	-5.244160E-18
5.294519E+03	-5.616815E-17	-5.241580E-18
5.294717E+03	-5.613734E-17	-5.238839E-18
5.294915E+03	-5.610122E-17	-5.235602E-18
5.295311E+03	-5.616958E-17	-5.242242E-18
5.295707E+03	-5.623564E-17	-5.248667E-18
5.295905E+03	-5.619606E-17	-5.245103E-18
5.296103E+03	-5.615566E-17	-5.241461E-18
5.296697E+03	-5.631812E-17	-5.256996E-18
5.297094E+03	-5.637649E-17	-5.262692E-18
5.297490E+03	-5.642900E-17	-5.267842E-18
5.298282E+03	-5.668264E-17	-5.292017E-18
5.298678E+03	-5.672731E-17	-5.296419E-18
5.299272E+03	-5.687006E-17	-5.310095E-18
5.300064E+03	-5.710482E-17	-5.332480E-18
5.300460E+03	-5.714111E-17	-5.336102E-18
5.300659E+03	-5.707819E-17	-5.330336E-18
5.301055E+03	-5.710680E-17	-5.333228E-18
5.301253E+03	-5.703785E-17	-5.326898E-18
5.301451E+03	-5.697091E-17	-5.320757E-18
5.301649E+03	-5.689958E-17	-5.314200E-18
5.302045E+03	-5.691839E-17	-5.316167E-18
5.302441E+03	-5.693788E-17	-5.318198E-18
5.302640E+03	-5.686436E-17	-5.311437E-18
5.302838E+03	-5.678594E-17	-5.304212E-18
5.303036E+03	-5.670667E-17	-5.296909E-18
5.303234E+03	-5.662077E-17	-5.288985E-18
5.303828E+03	-5.671618E-17	-5.298197E-18
5.304224E+03	-5.672096E-17	-5.298837E-18
5.304422E+03	-5.662817E-17	-5.290263E-18
5.304621E+03	-5.653650E-17	-5.281796E-18
5.304819E+03	-5.644791E-17	-5.273614E-18
5.305017E+03	-5.635381E-17	-5.264915E-18
5.305611E+03	-5.642770E-17	-5.272092E-18
5.305809E+03	-5.632986E-17	-5.263041E-18
5.306007E+03	-5.622919E-17	-5.253727E-18
5.306403E+03	-5.620949E-17	-5.252059E-18
5.306601E+03	-5.610682E-17	-5.242553E-18
5.306799E+03	-5.600033E-17	-5.232689E-18
5.306997E+03	-5.589005E-17	-5.222470E-18
5.307195E+03	-5.577921E-17	-5.212193E-18
5.308186E+03	-5.599669E-17	-5.232918E-18
5.308583E+03	-5.596327E-17	-5.229955E-18
5.309176E+03	-5.600531E-17	-5.234125E-18
5.309374E+03	-5.588576E-17	-5.223023E-18
5.311156E+03	-5.638431E-17	-5.270267E-18
5.311354E+03	-5.625782E-17	-5.258516E-18
5.311552E+03	-5.612847E-17	-5.246497E-18
5.311750E+03	-5.599860E-17	-5.234424E-18
5.311948E+03	-5.586585E-17	-5.222081E-18
5.312146E+03	-5.573125E-17	-5.209564E-18
5.312345E+03	-5.559584E-17	-5.196972E-18
5.312741E+03	-5.553082E-17	-5.191015E-18
5.313534E+03	-5.560775E-17	-5.198448E-18
5.314128E+03	-5.560664E-17	-5.198525E-18
5.314326E+03	-5.546201E-17	-5.185064E-18
5.314524E+03	-5.531587E-17	-5.171454E-18
5.314920E+03	-5.523854E-17	-5.164330E-18
5.315316E+03	-5.515810E-17	-5.156915E-18
5.316307E+03	-5.527794E-17	-5.168383E-18
5.316703E+03	-5.519078E-17	-5.160324E-18
5.317891E+03	-5.536677E-17	-5.177051E-18
5.318287E+03	-5.527267E-17	-5.168343E-18
5.318485E+03	-5.511236E-17	-5.153398E-18
5.318684E+03	-5.495097E-17	-5.138342E-18
5.319674E+03	-5.505224E-17	-5.147990E-18
5.321456E+03	-5.539261E-17	-5.180141E-18
5.321654E+03	-5.522183E-17	-5.164206E-18
5.321852E+03	-5.505074E-17	-5.148232E-18
5.322446E+03	-5.501096E-17	-5.144588E-18
5.324032E+03	-5.526492E-17	-5.168545E-18
5.324230E+03	-5.508911E-17	-5.152128E-18
5.324428E+03	-5.491736E-17	-5.136084E-18
5.324824E+03	-5.480444E-17	-5.125559E-18
5.325814E+03	-5.485968E-17	-5.130816E-18
5.326012E+03	-5.467811E-17	-5.113852E-18
5.326210E+03	-5.450164E-17	-5.097361E-18
5.326408E+03	-5.431763E-17	-5.080165E-18
5.326606E+03	-5.413403E-17	-5.063007E-18
5.326804E+03	-5.394971E-17	-5.045782E-18
5.327795E+03	-5.399183E-17	-5.049761E-18
5.327993E+03	-5.381006E-17	-5.032768E-18
5.328587E+03	-5.374017E-17	-5.026256E-18
5.329380E+03	-5.371618E-17	-5.024043E-18
5.329578E+03	-5.352251E-17	-5.005927E-18
5.331955E+03	-5.394194E-17	-5.045128E-18
5.332153E+03	-5.374247E-17	-5.026469E-18
5.333142E+03	-5.375516E-17	-5.027644E-18
5.333340E+03	-5.355518E-17	-5.008931E-18
5.333538E+03	-5.334909E-17	-4.989646E-18
5.333737E+03	-5.314269E-17	-4.970332E-18
5.333934E+03	-5.293598E-17	-4.950989E-18
5.334727E+03	-5.288554E-17	-4.946218E-18
5.335321E+03	-5.278532E-17	-4.936804E-18
5.335519E+03	-5.257566E-17	-4.917182E-18
5.335718E+03	-5.236179E-17	-4.897166E-18
5.335916E+03	-5.214507E-17	-4.876878E-18
5.336114E+03	-5.193090E-17	-4.856830E-18
5.337302E+03	-5.197165E-17	-4.860528E-18
5.337500E+03	-5.175994E-17	-4.840710E-18
5.337698E+03	-5.154184E-17	-4.820288E-18
5.337896E+03	-5.132431E-17	-4.799919E-18
5.339878E+03	-5.155389E-17	-4.821140E-18
5.340076E+03	-5.132760E-17	-4.799953E-18
5.340274E+03	-5.109967E-17	-4.778607E-18
5.340472E+03	-5.087242E-17	-4.757326E-18
5.340868E+03	-5.069350E-17	-4.740532E-18
5.341660E+03	-5.060695E-17	-4.732317E-18
5.342452E+03	-5.051914E-17	-4.723964E-18
5.342650E+03	-5.029474E-17	-4.702946E-18
5.343244E+03	-5.015963E-17	-4.690207E-18
5.343443E+03	-4.992328E-17	-4.668072E-18
5.343641E+03	-4.969012E-17	-4.646232E-18
5.344235E+03	-4.954919E-17	-4.632938E-18
5.344433E+03	-4.931454E-17	-4.610959E-18
5.344631E+03	-4.907551E-17	-4.588571E-18
5.344829E+03	-4.884213E-17	-4.566709E-18
5.345424E+03	-4.869528E-17	-4.552855E-18
5.345621E+03	-4.845390E-17	-4.530246E-18
5.345819E+03	-4.820968E-17	-4.507371E-18
5.346017E+03	-4.796867E-17	-4.484794E-18
5.346215E+03	-4.773024E-17	-4.462459E-18
5.346611E+03	-4.753553E-17	-4.444168E-18
5.347007E+03	-4.734174E-17	-4.425964E-18
5.347800E+03	-4.722828E-17	-4.415169E-18
5.347998E+03	-4.698620E-17	-4.392491E-18
5.348196E+03	-4.673721E-17	-4.369168E-18
5.348790E+03	-4.657786E-17	-4.354133E-18
5.348988E+03	-4.633318E-17	-4.331211E-18
5.349186E+03	-4.608711E-17	-4.308159E-18
5.349384E+03	-4.583785E-17	-4.284810E-18
5.349582E+03	-4.558667E-17	-4.261282E-18
5.349780E+03	-4.533497E-17	-4.237703E-18
5.350573E+03	-4.520622E-17	-4.225464E-18
5.350771E+03	-4.495009E-17	-4.201473E-18
5.351168E+03	-4.474132E-17	-4.181858E-18
5.351366E+03	-4.448747E-17	-4.158078E-18
5.351960E+03	-4.431028E-17	-4.141357E-18
5.352158E+03	-4.405377E-17	-4.117331E-18
5.352356E+03	-4.379534E-17	-4.093125E-18
5.352554E+03	-4.354152E-17	-4.069347E-18
5.352752E+03	-4.328537E-17	-4.045352E-18
5.354336E+03	-4.330103E-17	-4.046369E-18
5.354534E+03	-4.304489E-17	-4.022378E-18
5.355129E+03	-4.285882E-17	-4.004813E-18
5.355327E+03	-4.259912E-17	-3.980488E-18
5.355525E+03	-4.234270E-17	-3.956470E-18
5.355724E+03	-4.207935E-17	-3.931804E-18
5.356516E+03	-4.192934E-17	-3.917546E-18
5.356714E+03	-4.166663E-17	-3.892940E-18
5.356911E+03	-4.140043E-17	-3.868010E-18
5.357110E+03	-4.113145E-17	-3.842820E-18
5.357308E+03	-4.086434E-17	-3.817802E-18
5.357506E+03	-4.060104E-17	-3.793142E-18
5.358495E+03	-4.048128E-17	-3.781646E-18
5.358693E+03	-4.021530E-17	-3.756739E-18
5.358892E+03	-3.994221E-17	-3.731164E-18
5.359090E+03	-3.967166E-17	-3.705828E-18
5.359486E+03	-3.944579E-17	-3.684605E-18
5.359684E+03	-3.918158E-17	-3.659863E-18
5.359882E+03	-3.891020E-17	-3.634451E-18
5.360278E+03	-3.867185E-17	-3.612061E-18
5.360476E+03	-3.840349E-17	-3.586932E-18
5.360674E+03	-3.813317E-17	-3.561622E-18
5.362061E+03	-3.806525E-17	-3.554819E-18
5.362655E+03	-3.786140E-17	-3.535587E-18
5.362854E+03	-3.758460E-17	-3.509674E-18
5.363250E+03	-3.734490E-17	-3.487162E-18
5.363448E+03	-3.706801E-17	-3.461239E-18
5.364636E+03	-3.695760E-17	-3.450523E-18
5.364834E+03	-3.668516E-17	-3.425020E-18
5.365230E+03	-3.644749E-17	-3.402698E-18
5.365428E+03	-3.617500E-17	-3.377188E-18
5.365626E+03	-3.589987E-17	-3.351434E-18
5.366221E+03	-3.568767E-17	-3.331418E-18
5.367014E+03	-3.550485E-17	-3.314079E-18
5.367212E+03	-3.522222E-17	-3.287628E-18
5.367410E+03	-3.494215E-17	-3.261417E-18
5.367608E+03	-3.466970E-17	-3.235918E-18
5.367806E+03	-3.439393E-17	-3.210111E-18
5.368004E+03	-3.411350E-17	-3.183869E-18
5.368202E+03	-3.383277E-17	-3.157599E-18
5.368598E+03	-3.358585E-17	-3.134418E-18
5.368796E+03	-3.331323E-17	-3.108908E-18
5.368994E+03	-3.303045E-17	-3.082449E-18
5.369588E+03	-3.281116E-17	-3.061779E-18
5.369983E+03	-3.256030E-17	-3.038234E-18
5.370578E+03	-3.233304E-17	-3.016825E-18
5.370776E+03	-3.204955E-17	-2.990305E-18
5.371569E+03	-3.185921E-17	-2.972270E-18
5.371767E+03	-3.158382E-17	-2.946509E-18
5.371965E+03	-3.130926E-17	-2.920827E-18
5.372163E+03	-3.103419E-17	-2.895097E-18
5.372361E+03	-3.075897E-17	-2.869354E-18
5.372955E+03	-3.053815E-17	-2.848552E-18
5.373153E+03	-3.026256E-17	-2.822778E-18
5.373549E+03	-3.001473E-17	-2.799524E-18
5.373747E+03	-2.974098E-17	-2.773923E-18
5.373945E+03	-2.946808E-17	-2.748403E-18
5.374341E+03	-2.921954E-17	-2.725089E-18
5.375134E+03	-2.902034E-17	-2.706240E-18
5.375332E+03	-2.874639E-17	-2.680625E-18
5.375530E+03	-2.847470E-17	-2.655224E-18
