#wls	flux	fluxerr
1.584409E+03	2.348599E-17	2.918833E-18
1.624020E+03	2.376738E-17	2.941876E-18
1.663630E+03	2.397132E-17	2.954775E-18
1.703240E+03	2.408999E-17	2.956678E-18
1.742850E+03	2.412465E-17	2.947861E-18
1.782461E+03	2.405914E-17	2.926486E-18
1.822071E+03	2.387659E-17	2.890677E-18
1.861681E+03	2.356170E-17	2.838791E-18
1.901291E+03	2.309103E-17	2.768254E-18
1.940902E+03	2.245326E-17	2.678014E-18
1.980512E+03	2.165133E-17	2.568749E-18
2.020122E+03	2.072720E-17	2.445750E-18
2.059732E+03	1.976874E-17	2.319601E-18
2.099342E+03	1.891354E-17	2.206463E-18
2.138953E+03	1.830170E-17	2.122410E-18
2.178563E+03	1.800364E-17	2.075075E-18
2.218173E+03	1.798609E-17	2.059993E-18
2.257783E+03	1.813991E-17	2.064129E-18
2.297394E+03	1.833852E-17	2.072780E-18
2.337004E+03	1.849125E-17	2.075652E-18
2.376614E+03	1.854587E-17	2.067016E-18
2.416224E+03	1.848339E-17	2.045000E-18
2.455835E+03	1.830788E-17	2.010336E-18
2.495445E+03	1.802904E-17	1.964367E-18
2.535055E+03	1.766236E-17	1.909043E-18
2.574665E+03	1.722242E-17	1.846174E-18
2.614276E+03	1.672356E-17	1.777501E-18
2.653886E+03	1.617682E-17	1.704372E-18
2.693496E+03	1.559211E-17	1.627987E-18
2.733106E+03	1.497790E-17	1.549359E-18
2.772716E+03	1.434148E-17	1.469357E-18
2.812327E+03	1.368976E-17	1.388783E-18
2.851937E+03	1.302990E-17	1.308441E-18
2.891547E+03	1.236906E-17	1.229106E-18
2.931157E+03	1.171463E-17	1.151547E-18
2.970768E+03	1.107348E-17	1.076451E-18
2.980670E+03	1.091628E-17	1.058159E-18
2.990573E+03	1.076010E-17	1.040040E-18
3.000475E+03	1.060548E-17	1.022142E-18
3.010378E+03	1.045217E-17	1.004444E-18
3.020280E+03	1.030043E-17	9.869683E-19
3.030183E+03	1.015047E-17	9.697357E-19
3.040086E+03	1.000200E-17	9.527157E-19
3.049988E+03	9.856026E-18	9.360047E-19
3.059891E+03	9.712510E-18	9.195970E-19
3.069793E+03	9.571670E-18	9.035117E-19
3.079696E+03	9.433139E-18	8.877125E-19
3.089598E+03	9.296793E-18	8.721862E-19
3.099501E+03	9.162866E-18	8.569536E-19
3.109403E+03	9.030922E-18	8.419722E-19
3.119306E+03	8.901405E-18	8.272822E-19
3.129209E+03	8.773747E-18	8.128292E-19
3.139111E+03	8.648395E-18	7.986535E-19
3.149014E+03	8.524983E-18	7.847198E-19
3.158916E+03	8.403790E-18	7.710525E-19
3.168819E+03	8.284633E-18	7.576333E-19
3.178721E+03	8.167628E-18	7.444713E-19
3.188624E+03	8.052750E-18	7.315630E-19
3.198526E+03	7.939999E-18	7.189068E-19
3.208429E+03	7.829251E-18	7.064899E-19
3.218332E+03	7.720773E-18	6.943351E-19
3.228234E+03	7.614444E-18	6.824299E-19
3.238137E+03	7.510401E-18	6.707849E-19
3.248039E+03	7.408517E-18	6.593872E-19
3.257942E+03	7.308816E-18	6.482371E-19
3.267844E+03	7.211410E-18	6.373432E-19
3.277747E+03	7.116202E-18	6.266949E-19
3.287650E+03	7.023308E-18	6.163009E-19
3.297552E+03	6.932727E-18	6.061591E-19
3.307455E+03	6.844268E-18	5.962513E-19
3.317357E+03	6.758142E-18	5.865939E-19
3.327260E+03	6.674256E-18	5.771771E-19
3.337162E+03	6.592622E-18	5.680002E-19
3.347065E+03	6.513248E-18	5.590618E-19
3.356967E+03	6.435976E-18	5.503468E-19
3.366870E+03	6.360982E-18	5.418683E-19
3.376773E+03	6.288194E-18	5.336184E-19
3.386675E+03	6.217546E-18	5.255895E-19
3.396578E+03	6.149050E-18	5.177811E-19
3.406480E+03	6.082722E-18	5.101924E-19
3.416383E+03	6.018413E-18	5.028092E-19
3.426285E+03	5.956227E-18	4.956386E-19
3.436188E+03	5.896036E-18	4.886678E-19
3.446090E+03	5.837854E-18	4.818964E-19
3.455993E+03	5.781642E-18	4.753195E-19
3.465896E+03	5.727355E-18	4.689317E-19
3.475798E+03	5.674958E-18	4.627283E-19
3.485701E+03	5.624414E-18	4.567046E-19
3.495603E+03	5.575630E-18	4.508516E-19
3.505506E+03	5.528530E-18	4.451615E-19
3.515408E+03	5.483092E-18	4.396310E-19
3.525311E+03	5.439238E-18	4.342524E-19
3.535213E+03	5.396962E-18	4.290239E-19
3.545116E+03	5.356141E-18	4.239342E-19
3.555019E+03	5.316774E-18	4.189820E-19
3.564921E+03	5.278803E-18	4.141614E-19
3.574824E+03	5.242276E-18	4.094748E-19
3.584726E+03	5.207096E-18	4.049136E-19
3.594629E+03	5.173257E-18	4.004758E-19
3.604531E+03	5.140615E-18	3.961493E-19
3.614434E+03	5.109177E-18	3.919334E-19
3.624337E+03	5.078900E-18	3.878239E-19
3.634239E+03	5.049752E-18	3.838171E-19
3.644142E+03	5.021737E-18	3.799124E-19
3.654044E+03	4.994864E-18	3.761094E-19
3.663947E+03	4.969094E-18	3.724041E-19
3.673849E+03	4.944475E-18	3.687992E-19
3.683752E+03	4.920966E-18	3.652905E-19
3.693654E+03	4.898656E-18	3.618834E-19
3.703557E+03	4.877539E-18	3.585766E-19
3.713460E+03	4.857612E-18	3.553686E-19
3.723362E+03	4.838908E-18	3.522607E-19
3.733265E+03	4.821501E-18	3.492570E-19
3.743167E+03	4.805376E-18	3.463553E-19
3.753070E+03	4.790600E-18	3.435593E-19
3.762972E+03	4.777156E-18	3.408662E-19
3.772875E+03	4.765067E-18	3.382764E-19
3.782777E+03	4.754392E-18	3.357927E-19
3.792680E+03	4.745189E-18	3.334180E-19
3.802583E+03	4.737433E-18	3.311490E-19
3.812485E+03	4.731219E-18	3.289908E-19
3.822388E+03	4.726482E-18	3.269374E-19
3.832290E+03	4.723349E-18	3.249962E-19
3.842193E+03	4.721755E-18	3.231610E-19
3.852095E+03	4.721823E-18	3.214388E-19
3.861998E+03	4.723523E-18	3.198257E-19
3.871900E+03	4.726901E-18	3.183233E-19
3.881803E+03	4.731962E-18	3.169303E-19
3.891706E+03	4.738750E-18	3.156479E-19
3.901608E+03	4.747269E-18	3.144746E-19
3.911511E+03	4.757600E-18	3.134142E-19
3.921413E+03	4.769711E-18	3.124626E-19
3.931316E+03	4.783644E-18	3.116208E-19
3.941218E+03	4.799404E-18	3.108874E-19
3.951121E+03	4.817071E-18	3.102658E-19
3.961024E+03	4.836650E-18	3.097543E-19
3.970926E+03	4.858147E-18	3.093516E-19
3.980829E+03	4.881568E-18	3.090560E-19
3.990731E+03	4.906994E-18	3.088709E-19
4.000634E+03	4.934395E-18	3.087925E-19
4.010536E+03	4.963855E-18	3.088241E-19
4.020439E+03	4.995345E-18	3.089620E-19
4.030341E+03	5.028914E-18	3.092072E-19
4.040244E+03	5.064612E-18	3.095609E-19
4.050147E+03	5.102451E-18	3.100218E-19
4.060049E+03	5.142445E-18	3.105889E-19
4.069952E+03	5.184609E-18	3.112610E-19
4.079854E+03	5.229036E-18	3.120419E-19
4.089757E+03	5.275705E-18	3.129281E-19
4.099659E+03	5.324672E-18	3.139212E-19
4.109562E+03	5.375912E-18	3.150177E-19
4.119464E+03	5.429485E-18	3.162191E-19
4.129367E+03	5.485452E-18	3.175269E-19
4.139270E+03	5.543790E-18	3.189381E-19
4.149172E+03	5.604562E-18	3.204541E-19
4.159075E+03	5.667743E-18	3.220717E-19
4.168977E+03	5.733400E-18	3.237929E-19
4.178880E+03	5.801502E-18	3.256139E-19
4.188782E+03	5.872121E-18	3.275372E-19
4.198685E+03	5.945224E-18	3.295590E-19
4.208587E+03	6.020838E-18	3.316791E-19
4.218490E+03	6.098924E-18	3.338937E-19
4.228393E+03	6.179550E-18	3.362050E-19
4.238295E+03	6.262682E-18	3.386096E-19
4.248198E+03	6.348326E-18	3.411063E-19
4.258100E+03	6.436454E-18	3.436923E-19
4.268003E+03	6.527007E-18	3.463632E-19
4.277905E+03	6.619996E-18	3.491184E-19
4.287808E+03	6.715412E-18	3.519563E-19
4.297711E+03	6.813193E-18	3.548728E-19
4.307613E+03	6.913334E-18	3.578669E-19
4.317516E+03	7.015757E-18	3.609338E-19
4.327418E+03	7.120498E-18	3.640747E-19
4.337321E+03	7.227531E-18	3.672879E-19
4.347223E+03	7.337008E-18	3.705808E-19
4.357126E+03	7.448874E-18	3.739501E-19
4.367028E+03	7.563184E-18	3.773984E-19
4.376931E+03	7.679922E-18	3.809248E-19
4.386834E+03	7.799211E-18	3.845352E-19
4.396736E+03	7.920973E-18	3.882259E-19
4.406639E+03	8.045192E-18	3.919963E-19
4.416541E+03	8.171918E-18	3.958491E-19
4.426444E+03	8.301142E-18	3.997844E-19
4.436346E+03	8.432840E-18	4.038015E-19
4.446249E+03	8.566928E-18	4.078972E-19
4.456151E+03	8.703445E-18	4.120742E-19
4.466054E+03	8.842295E-18	4.163291E-19
4.475957E+03	8.983434E-18	4.206612E-19
4.485859E+03	9.126811E-18	4.250694E-19
4.495762E+03	9.272207E-18	4.295451E-19
4.505664E+03	9.419638E-18	4.340907E-19
4.515567E+03	9.568945E-18	4.387007E-19
4.525469E+03	9.720057E-18	4.433739E-19
4.535372E+03	9.872712E-18	4.481008E-19
4.545274E+03	1.002691E-17	4.528839E-19
4.555177E+03	1.018238E-17	4.577133E-19
4.565080E+03	1.033909E-17	4.625913E-19
4.574982E+03	1.049677E-17	4.675080E-19
4.584885E+03	1.065528E-17	4.724614E-19
4.594787E+03	1.081441E-17	4.774449E-19
4.604690E+03	1.097411E-17	4.824610E-19
4.614592E+03	1.113406E-17	4.874990E-19
4.624495E+03	1.129421E-17	4.925606E-19
4.634398E+03	1.145431E-17	4.976392E-19
4.644300E+03	1.161410E-17	5.027283E-19
4.654203E+03	1.177352E-17	5.078291E-19
4.664105E+03	1.193218E-17	5.129303E-19
4.674008E+03	1.208990E-17	5.180286E-19
4.683910E+03	1.224636E-17	5.231147E-19
4.693813E+03	1.240156E-17	5.281938E-19
4.703715E+03	1.255521E-17	5.332588E-19
4.713618E+03	1.270733E-17	5.383155E-19
4.723521E+03	1.285775E-17	5.433613E-19
4.733423E+03	1.300649E-17	5.484021E-19
4.743326E+03	1.315335E-17	5.534343E-19
4.753228E+03	1.329826E-17	5.584598E-19
4.763131E+03	1.344112E-17	5.634795E-19
4.773033E+03	1.358186E-17	5.684945E-19
4.782936E+03	1.372039E-17	5.735060E-19
4.792838E+03	1.385652E-17	5.785099E-19
4.802741E+03	1.399029E-17	5.835128E-19
4.812644E+03	1.412168E-17	5.885139E-19
4.822546E+03	1.425048E-17	5.935069E-19
4.832449E+03	1.437666E-17	5.984903E-19
4.842351E+03	1.450029E-17	6.034684E-19
4.852254E+03	1.462107E-17	6.084287E-19
4.862156E+03	1.473922E-17	6.133807E-19
4.872059E+03	1.485456E-17	6.183168E-19
4.881961E+03	1.496690E-17	6.232287E-19
4.891864E+03	1.507633E-17	6.281194E-19
4.901767E+03	1.518280E-17	6.329858E-19
4.911669E+03	1.528608E-17	6.378183E-19
4.921572E+03	1.538627E-17	6.426192E-19
4.931474E+03	1.548300E-17	6.473718E-19
4.941377E+03	1.557650E-17	6.520842E-19
4.951279E+03	1.566654E-17	6.567450E-19
4.961182E+03	1.575292E-17	6.613434E-19
4.971085E+03	1.583568E-17	6.658798E-19
4.980987E+03	1.591462E-17	6.703422E-19
4.990890E+03	1.598964E-17	6.747253E-19
5.000792E+03	1.606069E-17	6.790231E-19
5.010695E+03	1.612768E-17	6.832297E-19
5.020597E+03	1.619037E-17	6.873315E-19
5.030500E+03	1.624886E-17	6.913294E-19
5.040402E+03	1.630289E-17	6.952097E-19
5.050305E+03	1.635240E-17	6.989657E-19
5.060208E+03	1.639714E-17	7.025837E-19
5.070110E+03	1.643722E-17	7.060645E-19
5.080013E+03	1.647224E-17	7.093872E-19
5.089915E+03	1.650250E-17	7.125601E-19
5.099818E+03	1.652760E-17	7.155628E-19
5.109720E+03	1.654770E-17	7.183972E-19
5.119623E+03	1.656259E-17	7.210510E-19
5.129525E+03	1.657211E-17	7.235122E-19
5.139428E+03	1.657639E-17	7.257823E-19
5.149331E+03	1.657527E-17	7.278500E-19
5.159233E+03	1.656876E-17	7.297109E-19
5.169136E+03	1.655686E-17	7.313614E-19
5.179038E+03	1.653944E-17	7.327905E-19
5.188941E+03	1.651652E-17	7.339951E-19
5.198843E+03	1.648799E-17	7.349655E-19
5.208746E+03	1.645406E-17	7.357065E-19
5.218648E+03	1.641462E-17	7.362090E-19
5.228551E+03	1.636973E-17	7.364716E-19
5.238454E+03	1.631950E-17	7.364941E-19
5.248356E+03	1.626384E-17	7.362689E-19
5.258259E+03	1.620287E-17	7.357964E-19
5.268161E+03	1.613669E-17	7.350778E-19
5.278064E+03	1.606545E-17	7.341152E-19
5.287966E+03	1.598913E-17	7.329042E-19
5.297869E+03	1.590804E-17	7.314553E-19
5.307772E+03	1.582236E-17	7.297725E-19
5.317674E+03	1.573229E-17	7.278618E-19
5.327577E+03	1.563786E-17	7.257216E-19
5.337479E+03	1.553961E-17	7.233733E-19
5.347382E+03	1.543765E-17	7.208189E-19
5.357284E+03	1.533252E-17	7.180812E-19
5.367187E+03	1.522435E-17	7.151639E-19
5.377089E+03	1.511358E-17	7.120854E-19
5.386992E+03	1.500053E-17	7.088578E-19
5.396895E+03	1.488581E-17	7.055088E-19
5.406797E+03	1.476958E-17	7.020442E-19
5.416700E+03	1.465203E-17	6.984722E-19
5.426602E+03	1.453323E-17	6.947940E-19
5.436505E+03	1.441355E-17	6.910263E-19
5.446407E+03	1.429306E-17	6.871719E-19
5.456310E+03	1.417201E-17	6.832418E-19
5.466212E+03	1.405067E-17	6.792482E-19
5.476115E+03	1.392927E-17	6.752021E-19
5.486018E+03	1.380808E-17	6.711156E-19
5.495920E+03	1.368749E-17	6.670075E-19
5.505823E+03	1.356772E-17	6.628894E-19
5.515725E+03	1.344930E-17	6.587863E-19
5.525628E+03	1.333232E-17	6.547033E-19
5.535530E+03	1.321740E-17	6.506714E-19
5.545433E+03	1.310460E-17	6.466941E-19
5.555335E+03	1.299437E-17	6.427947E-19
5.565238E+03	1.288714E-17	6.389951E-19
5.575141E+03	1.278290E-17	6.352955E-19
5.585043E+03	1.268227E-17	6.317285E-19
5.594946E+03	1.258535E-17	6.282998E-19
5.604848E+03	1.249217E-17	6.250123E-19
5.614751E+03	1.240327E-17	6.218944E-19
5.624653E+03	1.231853E-17	6.189418E-19
5.634556E+03	1.223818E-17	6.161669E-19
5.644459E+03	1.216244E-17	6.135824E-19
5.654361E+03	1.209137E-17	6.111924E-19
5.664264E+03	1.202500E-17	6.090011E-19
5.674166E+03	1.196338E-17	6.070111E-19
5.684069E+03	1.190665E-17	6.052315E-19
5.693971E+03	1.185494E-17	6.036704E-19
5.703874E+03	1.180802E-17	6.023170E-19
5.713776E+03	1.176626E-17	6.011915E-19
5.723679E+03	1.172943E-17	6.002838E-19
5.733582E+03	1.169780E-17	5.996086E-19
5.743484E+03	1.167128E-17	5.991624E-19
5.753387E+03	1.165001E-17	5.989541E-19
5.763289E+03	1.163402E-17	5.989857E-19
5.773192E+03	1.162347E-17	5.992666E-19
5.783094E+03	1.161826E-17	5.997924E-19
5.792997E+03	1.161840E-17	6.005651E-19
5.802899E+03	1.162405E-17	6.015935E-19
5.812802E+03	1.163533E-17	6.028850E-19
5.822705E+03	1.165203E-17	6.044284E-19
5.832607E+03	1.167438E-17	6.062374E-19
5.842510E+03	1.170229E-17	6.083070E-19
5.852412E+03	1.173590E-17	6.106452E-19
5.862315E+03	1.177521E-17	6.132533E-19
5.872217E+03	1.182011E-17	6.161246E-19
5.882120E+03	1.187071E-17	6.192659E-19
5.892022E+03	1.192702E-17	6.226773E-19
5.901925E+03	1.198889E-17	6.263518E-19
5.911828E+03	1.205656E-17	6.303015E-19
5.921730E+03	1.212975E-17	6.345117E-19
5.931633E+03	1.220856E-17	6.389874E-19
5.941535E+03	1.229296E-17	6.437267E-19
5.951438E+03	1.238275E-17	6.487193E-19
5.961340E+03	1.247804E-17	6.539698E-19
5.971243E+03	1.257847E-17	6.594588E-19
5.981146E+03	1.268426E-17	6.651982E-19
5.991048E+03	1.279505E-17	6.711669E-19
6.000951E+03	1.291088E-17	6.773674E-19
6.010853E+03	1.303150E-17	6.837855E-19
6.020756E+03	1.315680E-17	6.904144E-19
6.030658E+03	1.328651E-17	6.972381E-19
6.040561E+03	1.342030E-17	7.042395E-19
6.050463E+03	1.355818E-17	7.114172E-19
6.060366E+03	1.369950E-17	7.187358E-19
6.070269E+03	1.384421E-17	7.261916E-19
6.080171E+03	1.399176E-17	7.337549E-19
6.090074E+03	1.414193E-17	7.414121E-19
6.099976E+03	1.429376E-17	7.491115E-19
6.109879E+03	1.444712E-17	7.568454E-19
6.119781E+03	1.460117E-17	7.645688E-19
6.129684E+03	1.475538E-17	7.722517E-19
6.139586E+03	1.490907E-17	7.798573E-19
6.149489E+03	1.506233E-17	7.873902E-19
6.159392E+03	1.521553E-17	7.948675E-19
6.169294E+03	1.536901E-17	8.023068E-19
6.179197E+03	1.552320E-17	8.097282E-19
6.189099E+03	1.567790E-17	8.171203E-19
6.199002E+03	1.583397E-17	8.245272E-19
6.208904E+03	1.599106E-17	8.319285E-19
6.218807E+03	1.614967E-17	8.393491E-19
6.228709E+03	1.631009E-17	8.468025E-19
6.238612E+03	1.647201E-17	8.542710E-19
6.248515E+03	1.663576E-17	8.617701E-19
6.258417E+03	1.680147E-17	8.693042E-19
6.268320E+03	1.696929E-17	8.768794E-19
6.278222E+03	1.713889E-17	8.844775E-19
6.288125E+03	1.731043E-17	8.921044E-19
6.298027E+03	1.748385E-17	8.997546E-19
6.307930E+03	1.765906E-17	9.074225E-19
6.317833E+03	1.783575E-17	9.150897E-19
6.327735E+03	1.801359E-17	9.227377E-19
6.337638E+03	1.819224E-17	9.303474E-19
6.347540E+03	1.837160E-17	9.379118E-19
6.357443E+03	1.855131E-17	9.454111E-19
6.367345E+03	1.873045E-17	9.527968E-19
6.377248E+03	1.890971E-17	9.601031E-19
6.387150E+03	1.908900E-17	9.673230E-19
6.397053E+03	1.926850E-17	9.744653E-19
6.406956E+03	1.944871E-17	9.815526E-19
6.416858E+03	1.962929E-17	9.885673E-19
6.426761E+03	1.981077E-17	9.955340E-19
6.436663E+03	1.999313E-17	1.002450E-18
6.446566E+03	2.017665E-17	1.009328E-18
6.456468E+03	2.036069E-17	1.016134E-18
6.466371E+03	2.054616E-17	1.022912E-18
6.476273E+03	2.073243E-17	1.029628E-18
6.486176E+03	2.091982E-17	1.036298E-18
6.496079E+03	2.110833E-17	1.042919E-18
6.505981E+03	2.129760E-17	1.049472E-18
6.515884E+03	2.148801E-17	1.055974E-18
6.525786E+03	2.167954E-17	1.062423E-18
6.535689E+03	2.187187E-17	1.068801E-18
6.545591E+03	2.206503E-17	1.075108E-18
6.555494E+03	2.225901E-17	1.081343E-18
6.565396E+03	2.245420E-17	1.087522E-18
6.575299E+03	2.264990E-17	1.093611E-18
6.585202E+03	2.284650E-17	1.099626E-18
6.595104E+03	2.304400E-17	1.105567E-18
6.605007E+03	2.324206E-17	1.111416E-18
6.614909E+03	2.344106E-17	1.117190E-18
6.624812E+03	2.364065E-17	1.122871E-18
6.634714E+03	2.384124E-17	1.128476E-18
6.644617E+03	2.404202E-17	1.133968E-18
6.654520E+03	2.424344E-17	1.139366E-18
6.664422E+03	2.444593E-17	1.144689E-18
6.674325E+03	2.464868E-17	1.149898E-18
6.684227E+03	2.485213E-17	1.155014E-18
6.694130E+03	2.505589E-17	1.160017E-18
6.704032E+03	2.526043E-17	1.164928E-18
6.713935E+03	2.546533E-17	1.169727E-18
6.723837E+03	2.567063E-17	1.174417E-18
6.733740E+03	2.587683E-17	1.179018E-18
6.743643E+03	2.608304E-17	1.183490E-18
6.753545E+03	2.629024E-17	1.187878E-18
6.763448E+03	2.649753E-17	1.192139E-18
6.773350E+03	2.670591E-17	1.196320E-18
6.783253E+03	2.691444E-17	1.200378E-18
6.793155E+03	2.712314E-17	1.204314E-18
6.803058E+03	2.733254E-17	1.208152E-18
6.812960E+03	2.754266E-17	1.211892E-18
6.822863E+03	2.775251E-17	1.215492E-18
6.832766E+03	2.796310E-17	1.218996E-18
6.842668E+03	2.817395E-17	1.222385E-18
6.852571E+03	2.838557E-17	1.225681E-18
6.862473E+03	2.859691E-17	1.228839E-18
6.872376E+03	2.880851E-17	1.231884E-18
6.882278E+03	2.902033E-17	1.234816E-18
6.892181E+03	2.923183E-17	1.237613E-18
6.902083E+03	2.944354E-17	1.240299E-18
6.911986E+03	2.965546E-17	1.242876E-18
6.921889E+03	2.986700E-17	1.245322E-18
6.931791E+03	3.007816E-17	1.247638E-18
6.941694E+03	3.028888E-17	1.249826E-18
6.951596E+03	3.049978E-17	1.251912E-18
6.961499E+03	3.070963E-17	1.253850E-18
6.971401E+03	3.091965E-17	1.255693E-18
6.981304E+03	3.112861E-17	1.257393E-18
6.991207E+03	3.133711E-17	1.258980E-18
7.001109E+03	3.154454E-17	1.260432E-18
7.011012E+03	3.175150E-17	1.261778E-18
7.020914E+03	3.195802E-17	1.263022E-18
7.030817E+03	3.216347E-17	1.264146E-18
7.040719E+03	3.236720E-17	1.265128E-18
7.050622E+03	3.257051E-17	1.266025E-18
7.060524E+03	3.277278E-17	1.266817E-18
7.070427E+03	3.297400E-17	1.267512E-18
7.080330E+03	3.317422E-17	1.268115E-18
7.090232E+03	3.337277E-17	1.268608E-18
7.100135E+03	3.357032E-17	1.269023E-18
7.110037E+03	3.376622E-17	1.269344E-18
7.119940E+03	3.396046E-17	1.269576E-18
7.129842E+03	3.415380E-17	1.269755E-18
7.139745E+03	3.434555E-17	1.269864E-18
7.149647E+03	3.453646E-17	1.269939E-18
7.159550E+03	3.472510E-17	1.269935E-18
7.169453E+03	3.491224E-17	1.269889E-18
7.179355E+03	3.509787E-17	1.269810E-18
7.189258E+03	3.528199E-17	1.269708E-18
7.199160E+03	3.546459E-17	1.269591E-18
7.209063E+03	3.564566E-17	1.269468E-18
7.218965E+03	3.582435E-17	1.269320E-18
7.228868E+03	3.600139E-17	1.269183E-18
7.238770E+03	3.617671E-17	1.269065E-18
7.248673E+03	3.635023E-17	1.268975E-18
7.258576E+03	3.652109E-17	1.268894E-18
7.268478E+03	3.669000E-17	1.268857E-18
7.278381E+03	3.685770E-17	1.268902E-18
7.288283E+03	3.702252E-17	1.268984E-18
7.298186E+03	3.718522E-17	1.269140E-18
7.308088E+03	3.734574E-17	1.269381E-18
7.317991E+03	3.750488E-17	1.269746E-18
7.327894E+03	3.766180E-17	1.270219E-18
7.337796E+03	3.781732E-17	1.270840E-18
7.347699E+03	3.797232E-17	1.271652E-18
7.357601E+03	3.812603E-17	1.272640E-18
7.367504E+03	3.828029E-17	1.273878E-18
7.377406E+03	3.843346E-17	1.275324E-18
7.387309E+03	3.858662E-17	1.277026E-18
7.397211E+03	3.873905E-17	1.278973E-18
7.407114E+03	3.889186E-17	1.281213E-18
7.417017E+03	3.904353E-17	1.283708E-18
7.426919E+03	3.919520E-17	1.286509E-18
7.436822E+03	3.934717E-17	1.289637E-18
7.446724E+03	3.949863E-17	1.293078E-18
7.456627E+03	3.965128E-17	1.296899E-18
7.466529E+03	3.980308E-17	1.301045E-18
7.476432E+03	3.995488E-17	1.305554E-18
7.486334E+03	4.010565E-17	1.310406E-18
7.496237E+03	4.025628E-17	1.315633E-18
7.506140E+03	4.040580E-17	1.321202E-18
7.516042E+03	4.055514E-17	1.327143E-18
7.525945E+03	4.070333E-17	1.333422E-18
7.535847E+03	4.085033E-17	1.340034E-18
7.545750E+03	4.099706E-17	1.347008E-18
7.555652E+03	4.114249E-17	1.354305E-18
7.565555E+03	4.128654E-17	1.361920E-18
7.575457E+03	4.143012E-17	1.369877E-18
7.585360E+03	4.157213E-17	1.378137E-18
7.595263E+03	4.171347E-17	1.386724E-18
7.605165E+03	4.185195E-17	1.395559E-18
7.615068E+03	4.198948E-17	1.404701E-18
7.624970E+03	4.212593E-17	1.414140E-18
7.634873E+03	4.226010E-17	1.423829E-18
7.644775E+03	4.239291E-17	1.433792E-18
7.654678E+03	4.252316E-17	1.443982E-18
7.664581E+03	4.265073E-17	1.454388E-18
7.674483E+03	4.277653E-17	1.465034E-18
7.684386E+03	4.290044E-17	1.475907E-18
