#wls	flux	fluxerr
1.584409E+03	6.406343E-19	-2.802634E-18
1.624020E+03	2.084204E-18	-9.015359E-18
1.663630E+03	3.049437E-18	-1.303877E-17
1.703240E+03	3.391657E-18	-1.433462E-17
1.742850E+03	3.032976E-18	-1.266690E-17
1.782461E+03	1.863461E-18	-7.690280E-18
1.822071E+03	-1.807552E-19	7.368560E-19
1.861681E+03	-3.109139E-18	1.252011E-17
1.901291E+03	-6.945586E-18	2.761710E-17
1.940902E+03	-1.151016E-17	4.519324E-17
1.980512E+03	-1.677866E-17	6.502331E-17
2.020122E+03	-2.237631E-17	8.559743E-17
2.059732E+03	-2.842099E-17	1.072592E-16
2.099342E+03	-3.462938E-17	1.289517E-16
2.138953E+03	-4.165690E-17	1.529600E-16
2.178563E+03	-4.936543E-17	1.787789E-16
2.218173E+03	-5.851950E-17	2.088663E-16
2.257783E+03	-6.826915E-17	2.402134E-16
2.297394E+03	-7.899692E-17	2.737781E-16
2.337004E+03	-8.906869E-17	3.041638E-16
2.376614E+03	-9.905541E-17	3.329581E-16
2.416224E+03	-1.070165E-16	3.542671E-16
2.455835E+03	-1.140954E-16	3.714971E-16
2.495445E+03	-1.181871E-16	3.787795E-16
2.535055E+03	-1.210262E-16	3.811873E-16
2.574665E+03	-1.203982E-16	3.730407E-16
2.614276E+03	-1.185225E-16	3.605461E-16
2.653886E+03	-1.131646E-16	3.384444E-16
2.693496E+03	-1.069108E-16	3.135686E-16
2.733106E+03	-9.762605E-17	2.813427E-16
2.772716E+03	-8.806969E-17	2.485664E-16
2.812327E+03	-7.632254E-17	2.115447E-16
2.851937E+03	-6.508946E-17	1.763891E-16
2.891547E+03	-5.273626E-17	1.403085E-16
2.931157E+03	-4.165541E-17	1.081126E-16
2.967758E+03	-5.265204E-16	1.338330E-15
2.968352E+03	-5.237139E-16	1.330654E-15
2.969144E+03	-5.201157E-16	1.320905E-15
2.969343E+03	-5.184059E-16	1.316410E-15
2.969739E+03	-5.160542E-16	1.310163E-15
2.986574E+03	-4.601370E-16	1.156713E-15
2.990338E+03	-4.467579E-16	1.120588E-15
2.990536E+03	-4.452695E-16	1.116720E-15
2.990932E+03	-4.430704E-16	1.110946E-15
2.991724E+03	-4.396138E-16	1.101760E-15
2.992319E+03	-4.367765E-16	1.094266E-15
2.993308E+03	-4.325945E-16	1.083151E-15
2.993903E+03	-4.297793E-16	1.075723E-15
2.994497E+03	-4.270204E-16	1.068439E-15
2.995091E+03	-4.241630E-16	1.060915E-15
2.995289E+03	-4.225773E-16	1.056824E-15
2.995487E+03	-4.209745E-16	1.052693E-15
2.997270E+03	-4.143249E-16	1.034965E-15
2.997468E+03	-4.128058E-16	1.031050E-15
2.999052E+03	-4.068200E-16	1.015139E-15
2.999845E+03	-4.033591E-16	1.006028E-15
3.000242E+03	-4.011255E-16	1.000219E-15
3.001232E+03	-3.970289E-16	9.894259E-16
3.003212E+03	-3.898875E-16	9.704710E-16
3.003410E+03	-3.883725E-16	9.665855E-16
3.003807E+03	-3.861462E-16	9.608163E-16
3.004796E+03	-3.821366E-16	9.502783E-16
3.005390E+03	-3.794108E-16	9.431614E-16
3.005589E+03	-3.778127E-16	9.390771E-16
3.006381E+03	-3.743938E-16	9.301362E-16
3.007768E+03	-3.690329E-16	9.160584E-16
3.008560E+03	-3.656426E-16	9.072060E-16
3.009946E+03	-3.604414E-16	8.935767E-16
3.014106E+03	-3.467599E-16	8.574816E-16
3.014898E+03	-3.434289E-16	8.488560E-16
3.021038E+03	-3.237745E-16	7.972822E-16
3.037676E+03	-2.719391E-16	6.635933E-16
3.049758E+03	-2.357847E-16	5.704149E-16
3.059067E+03	-2.078251E-16	4.999467E-16
3.062039E+03	-1.987268E-16	4.770652E-16
3.065404E+03	-1.884793E-16	4.515034E-16
3.065603E+03	-1.873145E-16	4.486540E-16
3.065801E+03	-1.861951E-16	4.459171E-16
3.065999E+03	-1.850478E-16	4.431135E-16
3.067386E+03	-1.806072E-16	4.321000E-16
3.067584E+03	-1.794629E-16	4.293072E-16
3.067980E+03	-1.777591E-16	4.251247E-16
3.068178E+03	-1.766269E-16	4.223633E-16
3.070159E+03	-1.705798E-16	4.073903E-16
3.070357E+03	-1.694688E-16	4.046844E-16
3.071347E+03	-1.662267E-16	3.966929E-16
3.071743E+03	-1.646406E-16	3.928070E-16
3.072139E+03	-1.630139E-16	3.888281E-16
3.072535E+03	-1.614271E-16	3.849452E-16
3.073725E+03	-1.577490E-16	3.758918E-16
3.074517E+03	-1.550885E-16	3.693615E-16
3.075903E+03	-1.508741E-16	3.590064E-16
3.076101E+03	-1.498503E-16	3.565241E-16
3.076695E+03	-1.477816E-16	3.514685E-16
3.076892E+03	-1.467427E-16	3.489530E-16
3.077090E+03	-1.457143E-16	3.464638E-16
3.077289E+03	-1.446993E-16	3.440063E-16
3.077883E+03	-1.426666E-16	3.390458E-16
3.078477E+03	-1.406362E-16	3.340918E-16
3.078675E+03	-1.396263E-16	3.316512E-16
3.079864E+03	-1.361132E-16	3.230585E-16
3.080062E+03	-1.351193E-16	3.206588E-16
3.080260E+03	-1.341340E-16	3.182798E-16
3.080656E+03	-1.326616E-16	3.147059E-16
3.080854E+03	-1.316860E-16	3.123515E-16
3.081052E+03	-1.307007E-16	3.099750E-16
3.081250E+03	-1.297173E-16	3.076033E-16
3.082241E+03	-1.267891E-16	3.004690E-16
3.082637E+03	-1.253518E-16	2.969856E-16
3.083033E+03	-1.239043E-16	2.934818E-16
3.083627E+03	-1.219871E-16	2.888291E-16
3.083825E+03	-1.210419E-16	2.865548E-16
3.084221E+03	-1.196264E-16	2.831308E-16
3.084419E+03	-1.187245E-16	2.809605E-16
3.084617E+03	-1.178161E-16	2.787749E-16
3.084815E+03	-1.168863E-16	2.765397E-16
3.085213E+03	-1.155085E-16	2.732096E-16
3.085609E+03	-1.141244E-16	2.698670E-16
3.086005E+03	-1.127411E-16	2.665270E-16
3.086203E+03	-1.118654E-16	2.644230E-16
3.086401E+03	-1.109695E-16	2.622715E-16
3.086599E+03	-1.100653E-16	2.601012E-16
3.086797E+03	-1.091652E-16	2.579410E-16
3.086995E+03	-1.082767E-16	2.558090E-16
3.087589E+03	-1.065038E-16	2.515232E-16
3.087787E+03	-1.056231E-16	2.494117E-16
3.088381E+03	-1.038535E-16	2.451383E-16
3.088578E+03	-1.029929E-16	2.430758E-16
3.088777E+03	-1.021356E-16	2.410211E-16
3.088974E+03	-1.012693E-16	2.389464E-16
3.089173E+03	-1.004332E-16	2.369430E-16
3.089767E+03	-9.872473E-17	2.328228E-16
3.089965E+03	-9.787226E-17	2.307824E-16
3.090163E+03	-9.702348E-17	2.287516E-16
3.090361E+03	-9.619530E-17	2.267697E-16
3.090559E+03	-9.535063E-17	2.247496E-16
3.090757E+03	-9.451920E-17	2.227610E-16
3.090955E+03	-9.368240E-17	2.207605E-16
3.091153E+03	-9.286233E-17	2.187997E-16
3.091352E+03	-9.203478E-17	2.168221E-16
3.091946E+03	-9.037803E-17	2.128363E-16
3.092144E+03	-8.956288E-17	2.108897E-16
3.092540E+03	-8.834474E-17	2.079675E-16
3.092738E+03	-8.753781E-17	2.060414E-16
3.092937E+03	-8.673667E-17	2.041293E-16
3.093135E+03	-8.595654E-17	2.022673E-16
3.093333E+03	-8.516314E-17	2.003743E-16
3.093531E+03	-8.438200E-17	1.985110E-16
3.093927E+03	-8.320672E-17	1.956953E-16
3.094125E+03	-8.243363E-17	1.938521E-16
3.094323E+03	-8.167456E-17	1.920421E-16
3.094521E+03	-8.090243E-17	1.902021E-16
3.094719E+03	-8.014591E-17	1.883990E-16
3.094917E+03	-7.938647E-17	1.865897E-16
3.095115E+03	-7.862768E-17	1.847823E-16
3.095313E+03	-7.786771E-17	1.829728E-16
3.095709E+03	-7.673176E-17	1.802567E-16
3.095907E+03	-7.598494E-17	1.784792E-16
3.096105E+03	-7.524052E-17	1.767077E-16
3.096303E+03	-7.450145E-17	1.749493E-16
3.096501E+03	-7.376480E-17	1.731969E-16
3.096699E+03	-7.303192E-17	1.714540E-16
3.096898E+03	-7.230303E-17	1.697208E-16
3.097096E+03	-7.157635E-17	1.679933E-16
3.097295E+03	-7.085184E-17	1.662710E-16
3.097493E+03	-7.013449E-17	1.645664E-16
3.097691E+03	-6.941960E-17	1.628677E-16
3.097889E+03	-6.870849E-17	1.611785E-16
3.098087E+03	-6.800133E-17	1.594988E-16
3.098285E+03	-6.729646E-17	1.578251E-16
3.098483E+03	-6.660611E-17	1.561857E-16
3.098681E+03	-6.591495E-17	1.545450E-16
3.098879E+03	-6.523068E-17	1.529207E-16
3.099077E+03	-6.454862E-17	1.513022E-16
3.099275E+03	-6.387195E-17	1.496965E-16
3.099473E+03	-6.320626E-17	1.481172E-16
3.099671E+03	-6.252979E-17	1.465128E-16
3.099869E+03	-6.185711E-17	1.449179E-16
3.100067E+03	-6.119123E-17	1.433391E-16
3.100265E+03	-6.053484E-17	1.417832E-16
3.100463E+03	-5.987655E-17	1.402230E-16
3.100661E+03	-5.922368E-17	1.386762E-16
3.100860E+03	-5.856853E-17	1.371241E-16
3.101058E+03	-5.792161E-17	1.355919E-16
3.101255E+03	-5.728860E-17	1.340926E-16
3.101454E+03	-5.665727E-17	1.325976E-16
3.101651E+03	-5.602473E-17	1.311002E-16
3.101849E+03	-5.539014E-17	1.295984E-16
3.102047E+03	-5.476627E-17	1.281219E-16
3.102245E+03	-5.413928E-17	1.266387E-16
3.102443E+03	-5.352560E-17	1.251868E-16
3.102641E+03	-5.290752E-17	1.237252E-16
3.102839E+03	-5.231195E-17	1.223164E-16
3.103037E+03	-5.170793E-17	1.208884E-16
3.103235E+03	-5.110641E-17	1.194664E-16
3.103434E+03	-5.050961E-17	1.180559E-16
3.103632E+03	-4.992072E-17	1.166642E-16
3.103830E+03	-4.932379E-17	1.152542E-16
3.104028E+03	-4.873713E-17	1.138684E-16
3.104226E+03	-4.815156E-17	1.124857E-16
3.104424E+03	-4.757613E-17	1.111268E-16
3.104623E+03	-4.699798E-17	1.097622E-16
3.104821E+03	-4.642365E-17	1.084066E-16
3.105019E+03	-4.586538E-17	1.070890E-16
3.105217E+03	-4.530584E-17	1.057686E-16
3.105415E+03	-4.474738E-17	1.044513E-16
3.105613E+03	-4.419021E-17	1.031372E-16
3.105811E+03	-4.363785E-17	1.018348E-16
3.106009E+03	-4.308565E-17	1.005329E-16
3.106207E+03	-4.254423E-17	9.925665E-17
3.106405E+03	-4.200771E-17	9.799203E-17
3.106603E+03	-4.147940E-17	9.674705E-17
3.106801E+03	-4.094416E-17	9.548605E-17
3.106999E+03	-4.041366E-17	9.423661E-17
3.107197E+03	-3.989615E-17	9.301761E-17
3.107395E+03	-3.937862E-17	9.179905E-17
3.107593E+03	-3.886130E-17	9.058113E-17
3.107791E+03	-3.835319E-17	8.938512E-17
3.107989E+03	-3.784192E-17	8.818194E-17
3.108187E+03	-3.734313E-17	8.700827E-17
3.108385E+03	-3.684457E-17	8.583533E-17
3.108584E+03	-3.634506E-17	8.466059E-17
3.108782E+03	-3.585797E-17	8.351496E-17
3.108980E+03	-3.536556E-17	8.235737E-17
3.109178E+03	-3.488005E-17	8.121599E-17
3.109377E+03	-3.439891E-17	8.008520E-17
3.109575E+03	-3.392363E-17	7.896825E-17
3.109773E+03	-3.344650E-17	7.784741E-17
3.109971E+03	-3.297613E-17	7.674247E-17
3.110169E+03	-3.251128E-17	7.565078E-17
3.110367E+03	-3.204893E-17	7.456506E-17
3.110565E+03	-3.159204E-17	7.349247E-17
3.110763E+03	-3.113866E-17	7.242819E-17
3.110961E+03	-3.068866E-17	7.137216E-17
3.111159E+03	-3.024318E-17	7.032680E-17
3.111357E+03	-2.980205E-17	6.929196E-17
3.111555E+03	-2.936439E-17	6.826531E-17
3.111753E+03	-2.893104E-17	6.724908E-17
3.111951E+03	-2.850210E-17	6.624325E-17
3.112149E+03	-2.807646E-17	6.524547E-17
3.112347E+03	-2.766111E-17	6.427176E-17
3.112546E+03	-2.724008E-17	6.328515E-17
3.112743E+03	-2.682469E-17	6.231187E-17
3.112942E+03	-2.641695E-17	6.135667E-17
3.113140E+03	-2.600992E-17	6.040326E-17
3.113337E+03	-2.560722E-17	5.946032E-17
3.113536E+03	-2.520664E-17	5.852236E-17
3.113733E+03	-2.480872E-17	5.759100E-17
3.113931E+03	-2.441492E-17	5.666930E-17
3.114129E+03	-2.402969E-17	5.576783E-17
3.114327E+03	-2.364331E-17	5.486384E-17
3.114525E+03	-2.326104E-17	5.396972E-17
3.114723E+03	-2.288382E-17	5.308742E-17
3.114921E+03	-2.251405E-17	5.222276E-17
3.115119E+03	-2.214747E-17	5.136563E-17
3.115317E+03	-2.178651E-17	5.052186E-17
3.115516E+03	-2.143277E-17	4.969489E-17
3.115714E+03	-2.107465E-17	4.885812E-17
3.115912E+03	-2.071728E-17	4.802322E-17
3.116110E+03	-2.037034E-17	4.721288E-17
3.116507E+03	-1.983573E-17	4.596152E-17
3.116705E+03	-1.949576E-17	4.516787E-17
3.116903E+03	-1.915576E-17	4.437423E-17
3.117101E+03	-1.882349E-17	4.359880E-17
3.117299E+03	-1.849507E-17	4.283238E-17
3.117497E+03	-1.817110E-17	4.207659E-17
3.117695E+03	-1.784941E-17	4.132616E-17
3.117893E+03	-1.753139E-17	4.058455E-17
3.118091E+03	-1.721861E-17	3.985515E-17
3.118289E+03	-1.691235E-17	3.914111E-17
3.118487E+03	-1.660824E-17	3.843216E-17
3.118685E+03	-1.630051E-17	3.771510E-17
3.118883E+03	-1.599864E-17	3.701169E-17
3.119081E+03	-1.570034E-17	3.631683E-17
3.119279E+03	-1.540845E-17	3.563687E-17
3.119477E+03	-1.511934E-17	3.496363E-17
3.119675E+03	-1.483039E-17	3.429082E-17
3.119873E+03	-1.454493E-17	3.362638E-17
3.120071E+03	-1.426835E-17	3.298253E-17
3.120270E+03	-1.398986E-17	3.233452E-17
3.120468E+03	-1.371683E-17	3.169920E-17
3.120666E+03	-1.345036E-17	3.107932E-17
3.120864E+03	-1.318470E-17	3.046138E-17
3.121062E+03	-1.291984E-17	2.984554E-17
3.121260E+03	-1.265838E-17	2.923762E-17
3.121459E+03	-1.240133E-17	2.864011E-17
3.121657E+03	-1.214773E-17	2.805066E-17
3.121855E+03	-1.189617E-17	2.746616E-17
3.122053E+03	-1.165381E-17	2.690298E-17
3.122251E+03	-1.141218E-17	2.634171E-17
3.122449E+03	-1.117258E-17	2.578520E-17
3.122647E+03	-1.093721E-17	2.523866E-17
3.122845E+03	-1.070552E-17	2.470070E-17
3.123043E+03	-1.047629E-17	2.416860E-17
3.123241E+03	-1.025176E-17	2.364742E-17
3.123439E+03	-1.002962E-17	2.313197E-17
3.123637E+03	-9.808873E-18	2.261981E-17
3.123835E+03	-9.591067E-18	2.211462E-17
3.124034E+03	-9.378830E-18	2.162234E-17
3.124232E+03	-9.170428E-18	2.113910E-17
3.124429E+03	-8.959983E-18	2.065121E-17
3.124628E+03	-8.754108E-18	2.017404E-17
3.124825E+03	-8.551886E-18	1.970536E-17
3.125023E+03	-8.350358E-18	1.923847E-17
3.125222E+03	-8.151542E-18	1.877786E-17
3.125419E+03	-7.959531E-18	1.833314E-17
3.125617E+03	-7.769147E-18	1.789221E-17
3.125815E+03	-7.580951E-18	1.745650E-17
3.126013E+03	-7.397224E-18	1.703112E-17
3.126211E+03	-7.214734E-18	1.660878E-17
3.126409E+03	-7.033581E-18	1.618956E-17
3.126607E+03	-6.857129E-18	1.578133E-17
3.126805E+03	-6.683642E-18	1.537997E-17
3.127003E+03	-6.510975E-18	1.498067E-17
3.127201E+03	-6.342457E-18	1.459095E-17
3.127399E+03	-6.177525E-18	1.420966E-17
3.127598E+03	-6.015207E-18	1.383440E-17
3.127796E+03	-5.854218E-18	1.346237E-17
3.127995E+03	-5.697839E-18	1.310097E-17
3.128193E+03	-5.545499E-18	1.274902E-17
3.128391E+03	-5.391745E-18	1.239385E-17
3.128589E+03	-5.239876E-18	1.204318E-17
3.128787E+03	-5.089944E-18	1.169698E-17
3.128985E+03	-4.943574E-18	1.135912E-17
3.129183E+03	-4.801043E-18	1.103011E-17
3.129381E+03	-4.662168E-18	1.070965E-17
3.129579E+03	-4.522135E-18	1.038655E-17
3.129777E+03	-4.386638E-18	1.007402E-17
3.129975E+03	-4.252217E-18	9.763974E-18
3.130173E+03	-4.118862E-18	9.456525E-18
3.130371E+03	-3.988675E-18	9.156370E-18
3.130569E+03	-3.860097E-18	8.860047E-18
3.130767E+03	-3.732356E-18	8.565664E-18
3.130965E+03	-3.607061E-18	8.277032E-18
3.131163E+03	-3.483934E-18	7.993395E-18
3.131361E+03	-3.362886E-18	7.714658E-18
3.131559E+03	-3.244162E-18	7.441272E-18
3.131758E+03	-3.128129E-18	7.174186E-18
3.131956E+03	-3.013570E-18	6.910495E-18
3.132154E+03	-2.901109E-18	6.651740E-18
3.132352E+03	-2.790943E-18	6.398262E-18
3.132550E+03	-2.681263E-18	6.146020E-18
3.132748E+03	-2.573209E-18	5.897518E-18
3.132946E+03	-2.466912E-18	5.653161E-18
3.133144E+03	-2.363126E-18	5.414573E-18
3.133342E+03	-2.261501E-18	5.181051E-18
3.133541E+03	-2.160142E-18	4.948144E-18
3.133739E+03	-2.060603E-18	4.719524E-18
3.133937E+03	-1.964404E-18	4.498563E-18
3.134135E+03	-1.867376E-18	4.275814E-18
3.134333E+03	-1.772018E-18	4.056898E-18
3.134531E+03	-1.677944E-18	3.841030E-18
3.134729E+03	-1.585574E-18	3.629069E-18
3.134927E+03	-1.494782E-18	3.420829E-18
3.135125E+03	-1.405285E-18	3.215556E-18
3.135323E+03	-1.317904E-18	3.015228E-18
3.135521E+03	-1.230774E-18	2.815481E-18
3.135720E+03	-1.144276E-18	2.617284E-18
3.135918E+03	-1.059156E-18	2.422240E-18
3.136116E+03	-9.750354E-19	2.229583E-18
3.136314E+03	-8.924791E-19	2.040506E-18
3.136511E+03	-8.111712E-19	1.854384E-18
3.136710E+03	-7.297040E-19	1.667897E-18
3.136907E+03	-6.502863E-19	1.486194E-18
3.137105E+03	-5.711211E-19	1.305069E-18
3.137304E+03	-4.927054E-19	1.125752E-18
3.137501E+03	-4.158797E-19	9.500703E-19
3.137699E+03	-3.389062E-19	7.741440E-19
3.137897E+03	-2.628091E-19	6.002206E-19
3.138095E+03	-1.872902E-19	4.277107E-19
3.138293E+03	-1.124146E-19	2.566705E-19
3.138491E+03	-3.809283E-20	1.688114E-19
3.138689E+03	3.571979E-20	8.152906E-20
3.138887E+03	1.091483E-19	2.490050E-19
3.139085E+03	1.821467E-19	4.154998E-19
3.139283E+03	2.547357E-19	5.808670E-19
3.139482E+03	3.271345E-19	7.458009E-19
3.139681E+03	3.995311E-19	9.105357E-19
3.139879E+03	4.713879E-19	1.074043E-18
3.140077E+03	5.431833E-19	1.237217E-18
3.140275E+03	6.147929E-19	1.399971E-18
3.140473E+03	6.862064E-19	1.562086E-18
3.140671E+03	7.582383E-19	1.725611E-18
3.140869E+03	8.299254E-19	1.888159E-18
3.141067E+03	9.013225E-19	2.050049E-18
3.141265E+03	9.730568E-19	2.212516E-18
3.141463E+03	1.044612E-18	2.374576E-18
3.141661E+03	1.116728E-18	2.537721E-18
3.141859E+03	1.188939E-18	2.701082E-18
3.142057E+03	1.262001E-18	2.866186E-18
3.142255E+03	1.334906E-18	3.030929E-18
3.142453E+03	1.408689E-18	3.197477E-18
3.142651E+03	1.482203E-18	3.363412E-18
3.142849E+03	1.556571E-18	3.531090E-18
3.143047E+03	1.631257E-18	3.699487E-18
3.143245E+03	1.706626E-18	3.869241E-18
3.143444E+03	1.782870E-18	4.040973E-18
3.143642E+03	1.859587E-18	4.213581E-18
3.143840E+03	1.938003E-18	4.390033E-18
3.144038E+03	2.018307E-18	4.570559E-18
3.144236E+03	2.097773E-18	4.749182E-18
3.144434E+03	2.178850E-18	4.931247E-18
3.144632E+03	2.260200E-18	5.113923E-18
3.144830E+03	2.342465E-18	5.298463E-18
3.145028E+03	2.426299E-18	5.486539E-18
3.145226E+03	2.510939E-18	5.676232E-18
3.145424E+03	2.598206E-18	5.871847E-18
3.145623E+03	2.686555E-18	6.069687E-18
3.145821E+03	2.775456E-18	6.268763E-18
3.146019E+03	2.866322E-18	6.472061E-18
3.146217E+03	2.957430E-18	6.675888E-18
3.146415E+03	3.050343E-18	6.883568E-18
3.146613E+03	3.146178E-18	7.097817E-18
3.146811E+03	3.243196E-18	7.314510E-18
3.147009E+03	3.341947E-18	7.535083E-18
3.147207E+03	3.441942E-18	7.758230E-18
3.147406E+03	3.543461E-18	7.984783E-18
3.147604E+03	3.646874E-18	8.215366E-18
3.147802E+03	3.751896E-18	8.449543E-18
3.148000E+03	3.858598E-18	8.687259E-18
3.148198E+03	3.966981E-18	8.928727E-18
3.148396E+03	4.077443E-18	9.174623E-18
3.148593E+03	4.189602E-18	9.424315E-18
3.148792E+03	4.304076E-18	9.678929E-18
3.148990E+03	4.421368E-18	9.939854E-18
3.149187E+03	4.543374E-18	1.021112E-17
3.149386E+03	4.666486E-18	1.048480E-17
3.149583E+03	4.789395E-18	1.075778E-17
3.149781E+03	4.915862E-18	1.103869E-17
3.149979E+03	5.045222E-18	1.132581E-17
3.150177E+03	5.175979E-18	1.161602E-17
3.150375E+03	5.314014E-18	1.192227E-17
3.150573E+03	5.452046E-18	1.222844E-17
3.150771E+03	5.594055E-18	1.254324E-17
3.150969E+03	5.737256E-18	1.286065E-17
3.151168E+03	5.883736E-18	1.318509E-17
3.151366E+03	6.033531E-18	1.351690E-17
3.151565E+03	6.186777E-18	1.385609E-17
3.151763E+03	6.340849E-18	1.419709E-17
3.151961E+03	6.497974E-18	1.454459E-17
3.152159E+03	6.660845E-18	1.490486E-17
3.152357E+03	6.828757E-18	1.527608E-17
3.152555E+03	6.996296E-18	1.564638E-17
3.152753E+03	7.169447E-18	1.602887E-17
3.152951E+03	7.343604E-18	1.641352E-17
3.153149E+03	7.520674E-18	1.680432E-17
3.153347E+03	7.700652E-18	1.720152E-17
3.153545E+03	7.886059E-18	1.761048E-17
3.153743E+03	8.075493E-18	1.802832E-17
3.153941E+03	8.268058E-18	1.845277E-17
3.154139E+03	8.463240E-18	1.888295E-17
3.154337E+03	8.664694E-18	1.932672E-17
3.154535E+03	8.867836E-18	1.977414E-17
3.154733E+03	9.075844E-18	2.023200E-17
3.154931E+03	9.288767E-18	2.070069E-17
3.155130E+03	9.502416E-18	2.117058E-17
3.155328E+03	9.721055E-18	2.165145E-17
3.155526E+03	9.943707E-18	2.214083E-17
3.155724E+03	1.017094E-17	2.264027E-17
3.155922E+03	1.040230E-17	2.314844E-17
3.156120E+03	1.063779E-17	2.366566E-17
3.156318E+03	1.087807E-17	2.419309E-17
3.156516E+03	1.112261E-17	2.472982E-17
3.156714E+03	1.137148E-17	2.527570E-17
3.156912E+03	1.162529E-17	2.583239E-17
3.157110E+03	1.188354E-17	2.639847E-17
3.157308E+03	1.214684E-17	2.697561E-17
3.157506E+03	1.241408E-17	2.756097E-17
3.157705E+03	1.268773E-17	2.816034E-17
3.157903E+03	1.296544E-17	2.876823E-17
3.158101E+03	1.324779E-17	2.938626E-17
3.158299E+03	1.353619E-17	3.001713E-17
3.158497E+03	1.382872E-17	3.065700E-17
3.158695E+03	1.412676E-17	3.130851E-17
3.158893E+03	1.442970E-17	3.197066E-17
3.159092E+03	1.473825E-17	3.264469E-17
3.159290E+03	1.505245E-17	3.333101E-17
3.159488E+03	1.537174E-17	3.402800E-17
3.159686E+03	1.569612E-17	3.473603E-17
3.159884E+03	1.602638E-17	3.545647E-17
3.160082E+03	1.636180E-17	3.618811E-17
3.160279E+03	1.670252E-17	3.693086E-17
3.160478E+03	1.705064E-17	3.768965E-17
3.160675E+03	1.740272E-17	3.845665E-17
3.160874E+03	1.776237E-17	3.924001E-17
3.161072E+03	1.812752E-17	4.003490E-17
3.161269E+03	1.849742E-17	4.084008E-17
3.161467E+03	1.887440E-17	4.166017E-17
3.161665E+03	1.925698E-17	4.249233E-17
3.162061E+03	1.980122E-17	4.366755E-17
3.162259E+03	2.020667E-17	4.454891E-17
3.162457E+03	2.061808E-17	4.544256E-17
3.162655E+03	2.100402E-17	4.627980E-17
3.162854E+03	2.149124E-17	4.733941E-17
3.163052E+03	2.070145E-17	4.558654E-17
3.163250E+03	1.983067E-17	4.365617E-17
3.163448E+03	1.974961E-17	4.346514E-17
3.163647E+03	1.997026E-17	4.393776E-17
3.163845E+03	1.995720E-17	4.389632E-17
3.164043E+03	2.021187E-17	4.444341E-17
3.164241E+03	2.045815E-17	4.497193E-17
3.164439E+03	1.908506E-17	4.194123E-17
