#wls	flux	fluxerr
1.584409E+03	-4.784495E-17	-1.832136E-17
1.624020E+03	-4.959719E-17	-1.885291E-17
1.663630E+03	-5.126904E-17	-1.934435E-17
1.703240E+03	-5.286290E-17	-1.979724E-17
1.742850E+03	-5.435432E-17	-2.020317E-17
1.782461E+03	-5.550105E-17	-2.046331E-17
1.822071E+03	-5.645630E-17	-2.064663E-17
1.861681E+03	-5.715278E-17	-2.073045E-17
1.901291E+03	-5.752091E-17	-2.069205E-17
1.940902E+03	-5.725993E-17	-2.041605E-17
1.980512E+03	-5.658312E-17	-1.999483E-17
2.020122E+03	-5.556945E-17	-1.946002E-17
2.059732E+03	-5.442861E-17	-1.888759E-17
2.099342E+03	-5.328155E-17	-1.830972E-17
2.138953E+03	-5.281076E-17	-1.796978E-17
2.178563E+03	-5.328151E-17	-1.795028E-17
2.218173E+03	-5.466713E-17	-1.823281E-17
2.257783E+03	-5.641498E-17	-1.861413E-17
2.297394E+03	-5.844493E-17	-1.907510E-17
2.337004E+03	-6.046767E-17	-1.951932E-17
2.376614E+03	-6.230270E-17	-1.988925E-17
2.416224E+03	-6.347846E-17	-2.002486E-17
2.455835E+03	-6.435050E-17	-2.005701E-17
2.495445E+03	-6.493349E-17	-1.999365E-17
2.535055E+03	-6.526790E-17	-1.985038E-17
2.574665E+03	-6.492054E-17	-1.948631E-17
2.614276E+03	-6.438151E-17	-1.906832E-17
2.653886E+03	-6.367831E-17	-1.860672E-17
2.693496E+03	-6.283684E-17	-1.811095E-17
2.733106E+03	-6.135185E-17	-1.742631E-17
2.772716E+03	-5.976501E-17	-1.672565E-17
2.812327E+03	-5.809494E-17	-1.601539E-17
2.851937E+03	-5.635660E-17	-1.530063E-17
2.891547E+03	-5.405690E-17	-1.444050E-17
2.931157E+03	-5.173625E-17	-1.359497E-17
2.970768E+03	-4.941294E-17	-1.276905E-17
2.980670E+03	-4.883333E-17	-1.256606E-17
2.990573E+03	-4.817683E-17	-1.234338E-17
3.000475E+03	-4.752211E-17	-1.212262E-17
3.010378E+03	-4.687024E-17	-1.190405E-17
3.020280E+03	-4.622022E-17	-1.168740E-17
3.030183E+03	-4.553418E-17	-1.146260E-17
3.040086E+03	-4.485284E-17	-1.124053E-17
3.049988E+03	-4.417608E-17	-1.102114E-17
3.059891E+03	-4.350738E-17	-1.080527E-17
3.069793E+03	-4.280667E-17	-1.058251E-17
3.079696E+03	-4.211194E-17	-1.036282E-17
3.089598E+03	-4.142424E-17	-1.014643E-17
3.099501E+03	-4.074134E-17	-9.932785E-18
3.109403E+03	-4.002479E-17	-9.712076E-18
3.119306E+03	-3.931328E-17	-9.494234E-18
3.129209E+03	-3.860716E-17	-9.279326E-18
3.139111E+03	-3.790541E-17	-9.067090E-18
3.149014E+03	-3.716930E-17	-8.847879E-18
3.158916E+03	-3.643814E-17	-8.631554E-18
3.168819E+03	-3.571118E-17	-8.417915E-18
3.178721E+03	-3.498896E-17	-8.207078E-18
3.188624E+03	-3.423233E-17	-7.989525E-18
3.198526E+03	-3.348006E-17	-7.774758E-18
3.208429E+03	-3.273330E-17	-7.563028E-18
3.218332E+03	-3.199093E-17	-7.354056E-18
3.228234E+03	-3.121443E-17	-7.138701E-18
3.238137E+03	-3.044266E-17	-6.926254E-18
3.248039E+03	-2.967611E-17	-6.716816E-18
3.257942E+03	-2.891524E-17	-6.510467E-18
3.267844E+03	-2.811894E-17	-6.297709E-18
3.277747E+03	-2.732849E-17	-6.088150E-18
3.287650E+03	-2.654294E-17	-5.881559E-18
3.297552E+03	-2.576266E-17	-5.678000E-18
3.307455E+03	-2.494651E-17	-5.468210E-18
3.317357E+03	-2.413573E-17	-5.261547E-18
3.327260E+03	-2.333016E-17	-5.057960E-18
3.337162E+03	-2.252934E-17	-4.857329E-18
3.347065E+03	-2.169161E-17	-4.650521E-18
3.356967E+03	-2.085863E-17	-4.446751E-18
3.366870E+03	-2.003023E-17	-4.245963E-18
3.376773E+03	-1.920594E-17	-4.048041E-18
3.386675E+03	-1.834348E-17	-3.843969E-18
3.396578E+03	-1.748499E-17	-3.642820E-18
3.406480E+03	-1.662999E-17	-3.444481E-18
3.416383E+03	-1.577823E-17	-3.248888E-18
3.426285E+03	-1.488678E-17	-3.047134E-18
3.436188E+03	-1.399789E-17	-2.848081E-18
3.446090E+03	-1.311145E-17	-2.651697E-18
3.455993E+03	-1.222698E-17	-2.457875E-18
3.465896E+03	-1.130069E-17	-2.257789E-18
3.475798E+03	-1.037579E-17	-2.060257E-18
3.485701E+03	-9.451689E-18	-1.865154E-18
3.495603E+03	-8.528049E-18	-1.672412E-18
3.505506E+03	-7.560408E-18	-1.473323E-18
3.515408E+03	-6.592548E-18	-1.276580E-18
3.525311E+03	-5.624029E-18	-1.082099E-18
3.535213E+03	-4.654426E-18	-8.897991E-19
3.545116E+03	-3.638525E-18	-6.910826E-19
3.555019E+03	-2.620951E-18	-4.945656E-19
3.564921E+03	-1.601287E-18	-3.001760E-19
3.574824E+03	-5.791830E-19	-1.078563E-19
3.584726E+03	4.906392E-19	9.075869E-20
3.594629E+03	1.563391E-18	2.872569E-19
3.604531E+03	2.639351E-18	4.816782E-19
3.614434E+03	3.718804E-18	6.740625E-19
3.624337E+03	4.843217E-18	8.718531E-19
3.634239E+03	5.971389E-18	1.067521E-18
3.644142E+03	7.103420E-18	1.261071E-18
3.654044E+03	8.239552E-18	1.452530E-18
3.663947E+03	9.415929E-18	1.648207E-18
3.673849E+03	1.059644E-17	1.841679E-18
3.683752E+03	1.178109E-17	2.032931E-18
3.693654E+03	1.297022E-17	2.222005E-18
3.703557E+03	1.419441E-17	2.414107E-18
3.713460E+03	1.542291E-17	2.603894E-18
3.723362E+03	1.665573E-17	2.791358E-18
3.733265E+03	1.789306E-17	2.976509E-18
3.743167E+03	1.916023E-17	3.163577E-18
3.753070E+03	2.043186E-17	3.348238E-18
3.762972E+03	2.170771E-17	3.530436E-18
3.772875E+03	2.298809E-17	3.710205E-18
3.782777E+03	2.429288E-17	3.890843E-18
3.792680E+03	2.560199E-17	4.068949E-18
3.802583E+03	2.691551E-17	4.244521E-18
3.812485E+03	2.823323E-17	4.417514E-18
3.822388E+03	2.956977E-17	4.590405E-18
3.832290E+03	3.091062E-17	4.760684E-18
3.842193E+03	3.225552E-17	4.928295E-18
3.852095E+03	3.360470E-17	5.093260E-18
3.861998E+03	3.496635E-17	5.257155E-18
3.871900E+03	3.633193E-17	5.418327E-18
3.881803E+03	3.770101E-17	5.576699E-18
3.891706E+03	3.907410E-17	5.732331E-18
3.901608E+03	4.045293E-17	5.886003E-18
3.911511E+03	4.183516E-17	6.036851E-18
3.921413E+03	4.322021E-17	6.184779E-18
3.931316E+03	4.460778E-17	6.329734E-18
3.941218E+03	4.599438E-17	6.471992E-18
3.951121E+03	4.738255E-17	6.611181E-18
3.961024E+03	4.877226E-17	6.747290E-18
3.970926E+03	5.016305E-17	6.880252E-18
3.980829E+03	5.154465E-17	7.009731E-18
3.990731E+03	5.292602E-17	7.135959E-18
4.000634E+03	5.430654E-17	7.258855E-18
4.010536E+03	5.568601E-17	7.378394E-18
4.020439E+03	5.704769E-17	7.493804E-18
4.030341E+03	5.840571E-17	7.605632E-18
4.040244E+03	5.976072E-17	7.713972E-18
4.050147E+03	6.111090E-17	7.818604E-18
4.060049E+03	6.243338E-17	7.918501E-18
4.069952E+03	6.374898E-17	8.014594E-18
4.079854E+03	6.505725E-17	8.106848E-18
4.089757E+03	6.635714E-17	8.195160E-18
4.099659E+03	6.761811E-17	8.278197E-18
4.109562E+03	6.886779E-17	8.357148E-18
4.119464E+03	7.010501E-17	8.431910E-18
4.129367E+03	7.132913E-17	8.502445E-18
4.139270E+03	7.250296E-17	8.567389E-18
4.149172E+03	7.365987E-17	8.627919E-18
4.159075E+03	7.479856E-17	8.683936E-18
4.168977E+03	7.591762E-17	8.735334E-18
4.178880E+03	7.697396E-17	8.780941E-18
4.188782E+03	7.800725E-17	8.821852E-18
4.198685E+03	7.901603E-17	8.857971E-18
4.208587E+03	7.999820E-17	8.889137E-18
4.218490E+03	8.090438E-17	8.914447E-18
4.228393E+03	8.178045E-17	8.934773E-18
4.238295E+03	8.262487E-17	8.950033E-18
4.248198E+03	8.343615E-17	8.960154E-18
4.258100E+03	8.415702E-17	8.964428E-18
4.268003E+03	8.484137E-17	8.963587E-18
4.277905E+03	8.548632E-17	8.957420E-18
4.287808E+03	8.609036E-17	8.945876E-18
4.297711E+03	8.659154E-17	8.928848E-18
4.307613E+03	8.704948E-17	8.906589E-18
4.317516E+03	8.746061E-17	8.878842E-18
4.327418E+03	8.782498E-17	8.845723E-18
4.337321E+03	8.807754E-17	8.807865E-18
4.347223E+03	8.828169E-17	8.764833E-18
4.357126E+03	8.843784E-17	8.716770E-18
4.367028E+03	8.854587E-17	8.663770E-18
4.376931E+03	8.854601E-17	8.607863E-18
4.386834E+03	8.849857E-17	8.547356E-18
4.396736E+03	8.840522E-17	8.482500E-18
4.406639E+03	8.826545E-17	8.413330E-18
4.416541E+03	8.802483E-17	8.343110E-18
4.426444E+03	8.774084E-17	8.269058E-18
4.436346E+03	8.741171E-17	8.191075E-18
4.446249E+03	8.704026E-17	8.109500E-18
4.456151E+03	8.657755E-17	8.028638E-18
4.466054E+03	8.607415E-17	7.944421E-18
4.475957E+03	8.553013E-17	7.856909E-18
4.485859E+03	8.494637E-17	7.766235E-18
4.495762E+03	8.428447E-17	7.677988E-18
4.505664E+03	8.358444E-17	7.586714E-18
4.515567E+03	8.284884E-17	7.492682E-18
4.525469E+03	8.207738E-17	7.395900E-18
4.535372E+03	8.123997E-17	7.302563E-18
4.545274E+03	8.037028E-17	7.206698E-18
4.555177E+03	7.946964E-17	7.108448E-18
4.565080E+03	7.853874E-17	7.007892E-18
4.574982E+03	7.755521E-17	6.911056E-18
4.584885E+03	7.654454E-17	6.812034E-18
4.594787E+03	7.550826E-17	6.710972E-18
4.604690E+03	7.444795E-17	6.608021E-18
4.614592E+03	7.335121E-17	6.509046E-18
4.624495E+03	7.223357E-17	6.408266E-18
4.634398E+03	7.109606E-17	6.305773E-18
4.644300E+03	6.993972E-17	6.201661E-18
4.654203E+03	6.876412E-17	6.101787E-18
4.664105E+03	6.757267E-17	6.000356E-18
4.674008E+03	6.636653E-17	5.897467E-18
4.683910E+03	6.514688E-17	5.793224E-18
4.693813E+03	6.392301E-17	5.693308E-18
4.703715E+03	6.268744E-17	5.592006E-18
4.713618E+03	6.144139E-17	5.489422E-18
4.723521E+03	6.018613E-17	5.385666E-18
4.733423E+03	5.894068E-17	5.286333E-18
4.743326E+03	5.768755E-17	5.185796E-18
4.753228E+03	5.642697E-17	5.084071E-18
4.763131E+03	5.516138E-17	4.981374E-18
4.773033E+03	5.391769E-17	4.883174E-18
4.782936E+03	5.266955E-17	4.783917E-18
4.792838E+03	5.141833E-17	4.683723E-18
4.802741E+03	5.016443E-17	4.582627E-18
4.812644E+03	4.894322E-17	4.486168E-18
4.822546E+03	4.772051E-17	4.388812E-18
4.832449E+03	4.649822E-17	4.290737E-18
4.842351E+03	4.527643E-17	4.191951E-18
4.852254E+03	4.409545E-17	4.097887E-18
4.862156E+03	4.291578E-17	4.003122E-18
4.872059E+03	4.173933E-17	3.907836E-18
4.881961E+03	4.056712E-17	3.812128E-18
4.891864E+03	3.944145E-17	3.721189E-18
4.901767E+03	3.831959E-17	3.629757E-18
4.911669E+03	3.720336E-17	3.538011E-18
4.921572E+03	3.609452E-17	3.446126E-18
4.931474E+03	3.503570E-17	3.359005E-18
4.941377E+03	3.398308E-17	3.271630E-18
4.951279E+03	3.293837E-17	3.184174E-18
4.961182E+03	3.190285E-17	3.096771E-18
4.971085E+03	3.091949E-17	3.014139E-18
4.980987E+03	2.994416E-17	2.931469E-18
4.990890E+03	2.897807E-17	2.848893E-18
5.000792E+03	2.802236E-17	2.766534E-18
5.010695E+03	2.711969E-17	2.688940E-18
5.020597E+03	2.622592E-17	2.611456E-18
5.030500E+03	2.534235E-17	2.534226E-18
5.040402E+03	2.446944E-17	2.457310E-18
5.050305E+03	2.364910E-17	2.385098E-18
5.060208E+03	2.283794E-17	2.313103E-18
5.070110E+03	2.203686E-17	2.241429E-18
5.080013E+03	2.124669E-17	2.170174E-18
5.089915E+03	2.050733E-17	2.103492E-18
5.099818E+03	1.977698E-17	2.037093E-18
5.109720E+03	1.905659E-17	1.971088E-18
5.119623E+03	1.834646E-17	1.905522E-18
5.129525E+03	1.768371E-17	1.844259E-18
5.139428E+03	1.702953E-17	1.783318E-18
5.149331E+03	1.638456E-17	1.722778E-18
5.159233E+03	1.574932E-17	1.662708E-18
5.169136E+03	1.515670E-17	1.606544E-18
5.179038E+03	1.457200E-17	1.550716E-18
5.188941E+03	1.399600E-17	1.495317E-18
5.198843E+03	1.342871E-17	1.440360E-18
5.208746E+03	1.289992E-17	1.388980E-18
5.218648E+03	1.237850E-17	1.337952E-18
5.228551E+03	1.186492E-17	1.287337E-18
5.238454E+03	1.135939E-17	1.237169E-18
5.248356E+03	1.088867E-17	1.190279E-18
5.258259E+03	1.042476E-17	1.143752E-18
5.268161E+03	9.967699E-18	1.097602E-18
5.278064E+03	9.517795E-18	1.051870E-18
5.285204E+03	3.625729E-17	4.017278E-18
5.286195E+03	3.618556E-17	4.010751E-18
5.286393E+03	3.624467E-17	4.017587E-18
5.286789E+03	3.626686E-17	4.020616E-18
5.287779E+03	3.618720E-17	4.013197E-18
5.288968E+03	3.607449E-17	4.002387E-18
5.289166E+03	3.612601E-17	4.008384E-18
5.289364E+03	3.617565E-17	4.014175E-18
5.289958E+03	3.616312E-17	4.013629E-18
5.290156E+03	3.621292E-17	4.019439E-18
5.290354E+03	3.625973E-17	4.024917E-18
5.290552E+03	3.630979E-17	4.030757E-18
5.290949E+03	3.631988E-17	4.032443E-18
5.292732E+03	3.608969E-17	4.009410E-18
5.293128E+03	3.609652E-17	4.010729E-18
5.294910E+03	3.586143E-17	3.987115E-18
5.295108E+03	3.589959E-17	3.991635E-18
5.296297E+03	3.576451E-17	3.978278E-18
5.297683E+03	3.559280E-17	3.961104E-18
5.298277E+03	3.555747E-17	3.957997E-18
5.298475E+03	3.558933E-17	3.961818E-18
5.298673E+03	3.562047E-17	3.965560E-18
5.298871E+03	3.564985E-17	3.969105E-18
5.299069E+03	3.567800E-17	3.972516E-18
5.299267E+03	3.570337E-17	3.975615E-18
5.299465E+03	3.572696E-17	3.978518E-18
5.299663E+03	3.574990E-17	3.981348E-18
5.300059E+03	3.573625E-17	3.980379E-18
5.300456E+03	3.572196E-17	3.979338E-18
5.300852E+03	3.570633E-17	3.978147E-18
5.301248E+03	3.568889E-17	3.976753E-18
5.301446E+03	3.570570E-17	3.978902E-18
5.301645E+03	3.572071E-17	3.980851E-18
5.301843E+03	3.573469E-17	3.982684E-18
5.302041E+03	3.574751E-17	3.984387E-18
5.303229E+03	3.558345E-17	3.967742E-18
5.303823E+03	3.552573E-17	3.962124E-18
5.304021E+03	3.553426E-17	3.963349E-18
5.304219E+03	3.554006E-17	3.964268E-18
5.304616E+03	3.551212E-17	3.961697E-18
5.305012E+03	3.548525E-17	3.959244E-18
5.305408E+03	3.545553E-17	3.956470E-18
5.306596E+03	3.528076E-17	3.938589E-18
5.306794E+03	3.528065E-17	3.938847E-18
5.307389E+03	3.521361E-17	3.932172E-18
5.307785E+03	3.518120E-17	3.929090E-18
5.307983E+03	3.518190E-17	3.929438E-18
5.309370E+03	3.496610E-17	3.907205E-18
5.309963E+03	3.489145E-17	3.899660E-18
5.310161E+03	3.488143E-17	3.898806E-18
5.310755E+03	3.480116E-17	3.890630E-18
5.311349E+03	3.471869E-17	3.882203E-18
5.311547E+03	3.470495E-17	3.880930E-18
5.312142E+03	3.462403E-17	3.872672E-18
5.312341E+03	3.461404E-17	3.871818E-18
5.313529E+03	3.442012E-17	3.851698E-18
5.314123E+03	3.433201E-17	3.842619E-18
5.314321E+03	3.431236E-17	3.840680E-18
5.314519E+03	3.429620E-17	3.839132E-18
5.315311E+03	3.417491E-17	3.826591E-18
5.316104E+03	3.405289E-17	3.813959E-18
5.316302E+03	3.403509E-17	3.812223E-18
5.317292E+03	3.387493E-17	3.795566E-18
5.317490E+03	3.385451E-17	3.793534E-18
5.317689E+03	3.383249E-17	3.791324E-18
5.318085E+03	3.377432E-17	3.785315E-18
5.318679E+03	3.367881E-17	3.775374E-18
5.318877E+03	3.365338E-17	3.772777E-18
5.319471E+03	3.355557E-17	3.762571E-18
5.319669E+03	3.352719E-17	3.759642E-18
5.319868E+03	3.349782E-17	3.756600E-18
5.320462E+03	3.339496E-17	3.745821E-18
5.321452E+03	3.321959E-17	3.727399E-18
5.321847E+03	3.314883E-17	3.719957E-18
5.322045E+03	3.311364E-17	3.716258E-18
5.322243E+03	3.306974E-17	3.711580E-18
5.322441E+03	3.302835E-17	3.707183E-18
5.322639E+03	3.298213E-17	3.702242E-18
5.323234E+03	3.286659E-17	3.690015E-18
5.323432E+03	3.281997E-17	3.685027E-18
5.324027E+03	3.270493E-17	3.672846E-18
5.324225E+03	3.266179E-17	3.668246E-18
5.324423E+03	3.260909E-17	3.662572E-18
5.324621E+03	3.256265E-17	3.657600E-18
5.324819E+03	3.250965E-17	3.651891E-18
5.325215E+03	3.242280E-17	3.642620E-18
5.326205E+03	3.223071E-17	3.622245E-18
5.327393E+03	3.200507E-17	3.598322E-18
5.327988E+03	3.187824E-17	3.584776E-18
5.328385E+03	3.178823E-17	3.575129E-18
5.329573E+03	3.155797E-17	3.550644E-18
5.330167E+03	3.143301E-17	3.537289E-18
5.330365E+03	3.137312E-17	3.530782E-18
5.330959E+03	3.124733E-17	3.517322E-18
5.331554E+03	3.112402E-17	3.504137E-18
5.331752E+03	3.106532E-17	3.497759E-18
5.331950E+03	3.100079E-17	3.490723E-18
5.332544E+03	3.086710E-17	3.476357E-18
5.332742E+03	3.079865E-17	3.468877E-18
5.333534E+03	3.063267E-17	3.451091E-18
5.334128E+03	3.050489E-17	3.437372E-18
5.335316E+03	3.026714E-17	3.411926E-18
5.335713E+03	3.016387E-17	3.400732E-18
5.335911E+03	3.009320E-17	3.392987E-18
5.336109E+03	3.002137E-17	3.385109E-18
5.336307E+03	2.995052E-17	3.377342E-18
5.337297E+03	2.975006E-17	3.355836E-18
5.337495E+03	2.967511E-17	3.347600E-18
5.337693E+03	2.960033E-17	3.339382E-18
5.338089E+03	2.949455E-17	3.327884E-18
5.338287E+03	2.941691E-17	3.319339E-18
5.339080E+03	2.924359E-17	3.300645E-18
5.339278E+03	2.916771E-17	3.292295E-18
5.340071E+03	2.898764E-17	3.272823E-18
5.340269E+03	2.890774E-17	3.264014E-18
5.340665E+03	2.879550E-17	3.251764E-18
5.340863E+03	2.871595E-17	3.242991E-18
5.341061E+03	2.863083E-17	3.233589E-18
5.341853E+03	2.845495E-17	3.214561E-18
5.342051E+03	2.837504E-17	3.205741E-18
5.342249E+03	2.829400E-17	3.196793E-18
5.342447E+03	2.820963E-17	3.187467E-18
5.342645E+03	2.812234E-17	3.177810E-18
5.343240E+03	2.797158E-17	3.161389E-18
5.343438E+03	2.788259E-17	3.151534E-18
5.343834E+03	2.776257E-17	3.138375E-18
5.344032E+03	2.767134E-17	3.128265E-18
5.344230E+03	2.758154E-17	3.118315E-18
5.344627E+03	2.746299E-17	3.105314E-18
5.344824E+03	2.737239E-17	3.095269E-18
5.345023E+03	2.728006E-17	3.085028E-18
5.345221E+03	2.718923E-17	3.074955E-18
5.345418E+03	2.709315E-17	3.064286E-18
5.345814E+03	2.697092E-17	3.050854E-18
5.346210E+03	2.684814E-17	3.037358E-18
5.346606E+03	2.672480E-17	3.023794E-18
5.347201E+03	2.656626E-17	3.006436E-18
5.347399E+03	2.646965E-17	2.995696E-18
5.347993E+03	2.631111E-17	2.978328E-18
5.348191E+03	2.621414E-17	2.967542E-18
5.348785E+03	2.605542E-17	2.950142E-18
5.348983E+03	2.595737E-17	2.939228E-18
5.349181E+03	2.585905E-17	2.928284E-18
5.350172E+03	2.563872E-17	2.904265E-18
5.350370E+03	2.553991E-17	2.893257E-18
5.350568E+03	2.544046E-17	2.882175E-18
5.351163E+03	2.528049E-17	2.864601E-18
5.351757E+03	2.512063E-17	2.847034E-18
5.351955E+03	2.501434E-17	2.835167E-18
5.353341E+03	2.473146E-17	2.804357E-18
5.353539E+03	2.462896E-17	2.792912E-18
5.353737E+03	2.452502E-17	2.781302E-18
5.353935E+03	2.441648E-17	2.769170E-18
5.354133E+03	2.431181E-17	2.757473E-18
5.355125E+03	2.408901E-17	2.733073E-18
5.355323E+03	2.398107E-17	2.720999E-18
5.355719E+03	2.384433E-17	2.705827E-18
5.355917E+03	2.373736E-17	2.693859E-18
5.356511E+03	2.356973E-17	2.675344E-18
5.356709E+03	2.345898E-17	2.662941E-18
5.356907E+03	2.335006E-17	2.650745E-18
5.357105E+03	2.323739E-17	2.638122E-18
5.357303E+03	2.312651E-17	2.625700E-18
5.357500E+03	2.301512E-17	2.613218E-18
5.357698E+03	2.290113E-17	2.600440E-18
5.357896E+03	2.278856E-17	2.587821E-18
5.358490E+03	2.262365E-17	2.569580E-18
5.358689E+03	2.251131E-17	2.556983E-18
5.359085E+03	2.237129E-17	2.541398E-18
5.359283E+03	2.225996E-17	2.528911E-18
5.359877E+03	2.209070E-17	2.510155E-18
5.360472E+03	2.192081E-17	2.491322E-18
5.361066E+03	2.175349E-17	2.472773E-18
5.361264E+03	2.163833E-17	2.459837E-18
5.361462E+03	2.152262E-17	2.446836E-18
5.361858E+03	2.137818E-17	2.430722E-18
5.362056E+03	2.125927E-17	2.417352E-18
5.362254E+03	2.114292E-17	2.404272E-18
5.363245E+03	2.092370E-17	2.380089E-18
5.364433E+03	2.067853E-17	2.353085E-18
5.364631E+03	2.056170E-17	2.339937E-18
5.365027E+03	2.042138E-17	2.324258E-18
5.365820E+03	2.022960E-17	2.303006E-18
5.366018E+03	2.011359E-17	2.289942E-18
5.366216E+03	1.999487E-17	2.276567E-18
5.366811E+03	1.982701E-17	2.257877E-18
5.367009E+03	1.971090E-17	2.244793E-18
5.367207E+03	1.959464E-17	2.231692E-18
5.367405E+03	1.947422E-17	2.218115E-18
5.367801E+03	1.932887E-17	2.201833E-18
5.368989E+03	1.909042E-17	2.175479E-18
5.369780E+03	1.889864E-17	2.154159E-18
5.369978E+03	1.877858E-17	2.140606E-18
5.370177E+03	1.865727E-17	2.126909E-18
5.370375E+03	1.853561E-17	2.113170E-18
5.370573E+03	1.841632E-17	2.099701E-18
5.370771E+03	1.829658E-17	2.086178E-18
5.370970E+03	1.817517E-17	2.072464E-18
5.371366E+03	1.803463E-17	2.056692E-18
5.371564E+03	1.791252E-17	2.042893E-18
5.371762E+03	1.778925E-17	2.028959E-18
5.371960E+03	1.766590E-17	2.015015E-18
5.372356E+03	1.752099E-17	1.998732E-18
5.372752E+03	1.737696E-17	1.982546E-18
5.372950E+03	1.725469E-17	1.968717E-18
5.373148E+03	1.713306E-17	1.954960E-18
5.373346E+03	1.701133E-17	1.941189E-18
5.373742E+03	1.686875E-17	1.925155E-18
5.373940E+03	1.674735E-17	1.911418E-18
5.374138E+03	1.662659E-17	1.897753E-18
5.374733E+03	1.646375E-17	1.879512E-18
5.375327E+03	1.630171E-17	1.861355E-18
5.375525E+03	1.617805E-17	1.847349E-18
5.375921E+03	1.603422E-17	1.831149E-18
5.376516E+03	1.587117E-17	1.812862E-18
5.376912E+03	1.573170E-17	1.797151E-18
5.377308E+03	1.559113E-17	1.781310E-18
5.377506E+03	1.547101E-17	1.767694E-18
5.378497E+03	1.527027E-17	1.745290E-18
5.379091E+03	1.510830E-17	1.727094E-18
5.379289E+03	1.498430E-17	1.713022E-18
5.380081E+03	1.480414E-17	1.692838E-18
5.380279E+03	1.468079E-17	1.678835E-18
5.380477E+03	1.455771E-17	1.664862E-18
5.380675E+03	1.443495E-17	1.650923E-18
5.381467E+03	1.425727E-17	1.630997E-18
5.381666E+03	1.413576E-17	1.617195E-18
5.381864E+03	1.401460E-17	1.603431E-18
5.382459E+03	1.385764E-17	1.585761E-18
5.382656E+03	1.373744E-17	1.572100E-18
5.383052E+03	1.360004E-17	1.556565E-18
5.383448E+03	1.346285E-17	1.541049E-18
5.383646E+03	1.334405E-17	1.527542E-18
5.383844E+03	1.322555E-17	1.514068E-18
5.384042E+03	1.310731E-17	1.500623E-18
5.384834E+03	1.293705E-17	1.481488E-18
5.385032E+03	1.281747E-17	1.467883E-18
5.385428E+03	1.267924E-17	1.452227E-18
