#wls	flux	fluxerr
1.584409E+03	1.532351E-16	4.834840E-17
1.624020E+03	1.591357E-16	5.020943E-17
1.663630E+03	1.644256E-16	5.187773E-17
1.703240E+03	1.690198E-16	5.332641E-17
1.742850E+03	1.727635E-16	5.450671E-17
1.782461E+03	1.755418E-16	5.538232E-17
1.822071E+03	1.771006E-16	5.587316E-17
1.861681E+03	1.772496E-16	5.591913E-17
1.901291E+03	1.757706E-16	5.545150E-17
1.940902E+03	1.724768E-16	5.441131E-17
1.980512E+03	1.673965E-16	5.280754E-17
2.020122E+03	1.608203E-16	5.073190E-17
2.059732E+03	1.534749E-16	4.841366E-17
2.099342E+03	1.464743E-16	4.620423E-17
2.138953E+03	1.409290E-16	4.445396E-17
2.178563E+03	1.373795E-16	4.333323E-17
2.218173E+03	1.355098E-16	4.274234E-17
2.257783E+03	1.344104E-16	4.239442E-17
2.297394E+03	1.331056E-16	4.198168E-17
2.337004E+03	1.309430E-16	4.129837E-17
2.376614E+03	1.275993E-16	4.024256E-17
2.416224E+03	1.230385E-16	3.880293E-17
2.455835E+03	1.173712E-16	3.701440E-17
2.495445E+03	1.108077E-16	3.494333E-17
2.535055E+03	1.035722E-16	3.266045E-17
2.574665E+03	9.589732E-17	3.023912E-17
2.614276E+03	8.798672E-17	2.774362E-17
2.653886E+03	8.002396E-17	2.523183E-17
2.693496E+03	7.216903E-17	2.275420E-17
2.733106E+03	6.455091E-17	2.035141E-17
2.772716E+03	5.727738E-17	1.805743E-17
2.812327E+03	5.043271E-17	1.589883E-17
2.851937E+03	4.408249E-17	1.389627E-17
2.891547E+03	3.827370E-17	1.206455E-17
2.931157E+03	3.303289E-17	1.041202E-17
2.970768E+03	2.836809E-17	8.941189E-18
2.980670E+03	2.729096E-17	8.601580E-18
2.990573E+03	2.624839E-17	8.272868E-18
3.000475E+03	2.524098E-17	7.955247E-18
3.010378E+03	2.426697E-17	7.648159E-18
3.020280E+03	2.332680E-17	7.351745E-18
3.030183E+03	2.241977E-17	7.065784E-18
3.040086E+03	2.154583E-17	6.790257E-18
3.049988E+03	2.070414E-17	6.524900E-18
3.059891E+03	1.989592E-17	6.270097E-18
3.069793E+03	1.911902E-17	6.025173E-18
3.079696E+03	1.837306E-17	5.790007E-18
3.089598E+03	1.765684E-17	5.564218E-18
3.099501E+03	1.696894E-17	5.347359E-18
3.109403E+03	1.630900E-17	5.139314E-18
3.119306E+03	1.567565E-17	4.939659E-18
3.129209E+03	1.506826E-17	4.748186E-18
3.139111E+03	1.448590E-17	4.564605E-18
3.149014E+03	1.392764E-17	4.388627E-18
3.158916E+03	1.339289E-17	4.220059E-18
3.168819E+03	1.288078E-17	4.058629E-18
3.178721E+03	1.239026E-17	3.904009E-18
3.188624E+03	1.192099E-17	3.756087E-18
3.198526E+03	1.147196E-17	3.614546E-18
3.208429E+03	1.104263E-17	3.479215E-18
3.218332E+03	1.063223E-17	3.349856E-18
3.228234E+03	1.023990E-17	3.226192E-18
3.238137E+03	9.865271E-18	3.108108E-18
3.248039E+03	9.507347E-18	2.995291E-18
3.257942E+03	9.165784E-18	2.887631E-18
3.267844E+03	8.839926E-18	2.784923E-18
3.277747E+03	8.528887E-18	2.686887E-18
3.287650E+03	8.232340E-18	2.593418E-18
3.297552E+03	7.949690E-18	2.504331E-18
3.307455E+03	7.680260E-18	2.419411E-18
3.317357E+03	7.423514E-18	2.338490E-18
3.327260E+03	7.178932E-18	2.261402E-18
3.337162E+03	6.946016E-18	2.187992E-18
3.347065E+03	6.724281E-18	2.118106E-18
3.356967E+03	6.513262E-18	2.051598E-18
3.366870E+03	6.312425E-18	1.988299E-18
3.376773E+03	6.121268E-18	1.928052E-18
3.386675E+03	5.939548E-18	1.870778E-18
3.396578E+03	5.766644E-18	1.816284E-18
3.406480E+03	5.602264E-18	1.764476E-18
3.416383E+03	5.445989E-18	1.715222E-18
3.426285E+03	5.297483E-18	1.668417E-18
3.436188E+03	5.156306E-18	1.623921E-18
3.446090E+03	5.022104E-18	1.581624E-18
3.455993E+03	4.894598E-18	1.541437E-18
3.465896E+03	4.773416E-18	1.503243E-18
3.475798E+03	4.658313E-18	1.466964E-18
3.485701E+03	4.548853E-18	1.432464E-18
3.495603E+03	4.444829E-18	1.399677E-18
3.505506E+03	4.345906E-18	1.368497E-18
3.515408E+03	4.251811E-18	1.338839E-18
3.525311E+03	4.162299E-18	1.310624E-18
3.535213E+03	4.077047E-18	1.283752E-18
3.545116E+03	3.995924E-18	1.258181E-18
3.555019E+03	3.918686E-18	1.233834E-18
3.564921E+03	3.845099E-18	1.210638E-18
3.574824E+03	3.775062E-18	1.188560E-18
3.584726E+03	3.708327E-18	1.167523E-18
3.594629E+03	3.644736E-18	1.147475E-18
3.604531E+03	3.584136E-18	1.128371E-18
3.614434E+03	3.526385E-18	1.110164E-18
3.624337E+03	3.471345E-18	1.092811E-18
3.634239E+03	3.418885E-18	1.076271E-18
3.644142E+03	3.368913E-18	1.060514E-18
3.654044E+03	3.321333E-18	1.045512E-18
3.663947E+03	3.276027E-18	1.031225E-18
3.673849E+03	3.232997E-18	1.017655E-18
3.683752E+03	3.192097E-18	1.004757E-18
3.693654E+03	3.153298E-18	9.925195E-19
3.703557E+03	3.116514E-18	9.809174E-19
3.713460E+03	3.081694E-18	9.699335E-19
3.723362E+03	3.048831E-18	9.595660E-19
3.733265E+03	3.017794E-18	9.497733E-19
3.743167E+03	2.988577E-18	9.405541E-19
3.753070E+03	2.961155E-18	9.318998E-19
3.762972E+03	2.935421E-18	9.237770E-19
3.772875E+03	2.911373E-18	9.161853E-19
3.782777E+03	2.888984E-18	9.091156E-19
3.792680E+03	2.868178E-18	9.025442E-19
3.802583E+03	2.848904E-18	8.964551E-19
3.812485E+03	2.831182E-18	8.908545E-19
3.822388E+03	2.814919E-18	8.857129E-19
3.832290E+03	2.800112E-18	8.810299E-19
3.842193E+03	2.786714E-18	8.767898E-19
3.852095E+03	2.774700E-18	8.729856E-19
3.861998E+03	2.764048E-18	8.696097E-19
3.871900E+03	2.754693E-18	8.666420E-19
3.881803E+03	2.746613E-18	8.640753E-19
3.891706E+03	2.739810E-18	8.619103E-19
3.901608E+03	2.734243E-18	8.601338E-19
3.911511E+03	2.729870E-18	8.587331E-19
3.921413E+03	2.726674E-18	8.577024E-19
3.931316E+03	2.724616E-18	8.570298E-19
3.941218E+03	2.723682E-18	8.567104E-19
3.951121E+03	2.723855E-18	8.567390E-19
3.961024E+03	2.725121E-18	8.571110E-19
3.970926E+03	2.727423E-18	8.578087E-19
3.980829E+03	2.730748E-18	8.588281E-19
3.990731E+03	2.735085E-18	8.601652E-19
4.000634E+03	2.740421E-18	8.618165E-19
4.010536E+03	2.746724E-18	8.637715E-19
4.020439E+03	2.753965E-18	8.660211E-19
4.030341E+03	2.762133E-18	8.685617E-19
4.040244E+03	2.771197E-18	8.713838E-19
4.050147E+03	2.781151E-18	8.744854E-19
4.060049E+03	2.791965E-18	8.778569E-19
4.069952E+03	2.803634E-18	8.814966E-19
4.079854E+03	2.816128E-18	8.853954E-19
4.089757E+03	2.829422E-18	8.895452E-19
4.099659E+03	2.843509E-18	8.939439E-19
4.109562E+03	2.858362E-18	8.985831E-19
4.119464E+03	2.873980E-18	9.034619E-19
4.129367E+03	2.890314E-18	9.085651E-19
4.139270E+03	2.907360E-18	9.138918E-19
4.149172E+03	2.925071E-18	9.194268E-19
4.159075E+03	2.943466E-18	9.251761E-19
4.168977E+03	2.962500E-18	9.311255E-19
4.178880E+03	2.982169E-18	9.372740E-19
4.188782E+03	3.002402E-18	9.435991E-19
4.198685E+03	3.023221E-18	9.501077E-19
4.208587E+03	3.044555E-18	9.567771E-19
4.218490E+03	3.066424E-18	9.636141E-19
4.228393E+03	3.088756E-18	9.705958E-19
4.238295E+03	3.111500E-18	9.777062E-19
4.248198E+03	3.134679E-18	9.849522E-19
4.258100E+03	3.158191E-18	9.923023E-19
4.268003E+03	3.182058E-18	9.997629E-19
4.277905E+03	3.206176E-18	1.007302E-18
4.287808E+03	3.230565E-18	1.014925E-18
4.297711E+03	3.255172E-18	1.022615E-18
4.307613E+03	3.279939E-18	1.030355E-18
4.317516E+03	3.304860E-18	1.038143E-18
4.327418E+03	3.329902E-18	1.045967E-18
4.337321E+03	3.355090E-18	1.053837E-18
4.347223E+03	3.380362E-18	1.061732E-18
4.357126E+03	3.405771E-18	1.069669E-18
4.367028E+03	3.431312E-18	1.077646E-18
4.376931E+03	3.456986E-18	1.085664E-18
4.386834E+03	3.482790E-18	1.093722E-18
4.396736E+03	3.508753E-18	1.101829E-18
4.406639E+03	3.534849E-18	1.109977E-18
4.416541E+03	3.561110E-18	1.118175E-18
4.426444E+03	3.587538E-18	1.126425E-18
4.436346E+03	3.614142E-18	1.134729E-18
4.446249E+03	3.640896E-18	1.143079E-18
4.456151E+03	3.667808E-18	1.151478E-18
4.466054E+03	3.694855E-18	1.159917E-18
4.475957E+03	3.722079E-18	1.168412E-18
4.485859E+03	3.749427E-18	1.176944E-18
4.495762E+03	3.776910E-18	1.185517E-18
4.505664E+03	3.804540E-18	1.194135E-18
4.515567E+03	3.832270E-18	1.202784E-18
4.525469E+03	3.860144E-18	1.211476E-18
4.535372E+03	3.888113E-18	1.220197E-18
4.545274E+03	3.916194E-18	1.228952E-18
4.555177E+03	3.944341E-18	1.237727E-18
4.565080E+03	3.972602E-18	1.246536E-18
4.574982E+03	4.000968E-18	1.255376E-18
4.584885E+03	4.029389E-18	1.264233E-18
4.594787E+03	4.057891E-18	1.273114E-18
4.604690E+03	4.086498E-18	1.282026E-18
4.614592E+03	4.115202E-18	1.290968E-18
4.624495E+03	4.143957E-18	1.299924E-18
4.634398E+03	4.172868E-18	1.308927E-18
4.644300E+03	4.201965E-18	1.317988E-18
4.654203E+03	4.231212E-18	1.327094E-18
4.664105E+03	4.260641E-18	1.336256E-18
4.674008E+03	4.290294E-18	1.345487E-18
4.683910E+03	4.320094E-18	1.354762E-18
4.693813E+03	4.350080E-18	1.364095E-18
4.703715E+03	4.380214E-18	1.373472E-18
4.713618E+03	4.410539E-18	1.382907E-18
4.723521E+03	4.441058E-18	1.392403E-18
4.733423E+03	4.471736E-18	1.401946E-18
4.743326E+03	4.502620E-18	1.411552E-18
4.753228E+03	4.533670E-18	1.421208E-18
4.763131E+03	4.564937E-18	1.430931E-18
4.773033E+03	4.596383E-18	1.440709E-18
4.782936E+03	4.628017E-18	1.450544E-18
4.792838E+03	4.659845E-18	1.460438E-18
4.802741E+03	4.691918E-18	1.470407E-18
4.812644E+03	4.724202E-18	1.480440E-18
4.822546E+03	4.756704E-18	1.490540E-18
4.832449E+03	4.789387E-18	1.500695E-18
4.842351E+03	4.822349E-18	1.510936E-18
4.852254E+03	4.855556E-18	1.521251E-18
4.862156E+03	4.889012E-18	1.531643E-18
4.872059E+03	4.922684E-18	1.542100E-18
4.881961E+03	4.956622E-18	1.552639E-18
4.891864E+03	4.990787E-18	1.563247E-18
4.901767E+03	5.025189E-18	1.573928E-18
4.911669E+03	5.059878E-18	1.584696E-18
4.921572E+03	5.094813E-18	1.595539E-18
4.931474E+03	5.130002E-18	1.606460E-18
4.941377E+03	5.165398E-18	1.617444E-18
4.951279E+03	5.201053E-18	1.628506E-18
4.961182E+03	5.236972E-18	1.639649E-18
4.971085E+03	5.273105E-18	1.650857E-18
4.980987E+03	5.309453E-18	1.662131E-18
4.990890E+03	5.346018E-18	1.673470E-18
5.000792E+03	5.382745E-18	1.684857E-18
5.010695E+03	5.419682E-18	1.696308E-18
5.020597E+03	5.456828E-18	1.707822E-18
5.030500E+03	5.494073E-18	1.719364E-18
5.040402E+03	5.531461E-18	1.730950E-18
5.050305E+03	5.568984E-18	1.742575E-18
5.060208E+03	5.606583E-18	1.754221E-18
5.070110E+03	5.644242E-18	1.765884E-18
5.080013E+03	5.681953E-18	1.777560E-18
5.089915E+03	5.719700E-18	1.789246E-18
5.099818E+03	5.757415E-18	1.800919E-18
5.109720E+03	5.795134E-18	1.812590E-18
5.119623E+03	5.832727E-18	1.824220E-18
5.129525E+03	5.870231E-18	1.835819E-18
5.139428E+03	5.907565E-18	1.847363E-18
5.149331E+03	5.944708E-18	1.858844E-18
5.159233E+03	5.981633E-18	1.870255E-18
5.169136E+03	6.018313E-18	1.881586E-18
5.179038E+03	6.054602E-18	1.892793E-18
5.188941E+03	6.090588E-18	1.903903E-18
5.198843E+03	6.126181E-18	1.914886E-18
5.208746E+03	6.161349E-18	1.925735E-18
5.218648E+03	6.195998E-18	1.936419E-18
5.228551E+03	6.230093E-18	1.946926E-18
5.238454E+03	6.263599E-18	1.957248E-18
5.248356E+03	6.296478E-18	1.967370E-18
5.258259E+03	6.328695E-18	1.977284E-18
5.268161E+03	6.360154E-18	1.986958E-18
5.278064E+03	6.390939E-18	1.996419E-18
5.287966E+03	6.420893E-18	2.005617E-18
5.297869E+03	6.449978E-18	2.014542E-18
5.307772E+03	6.478288E-18	2.023222E-18
5.317674E+03	6.505662E-18	2.031608E-18
5.327577E+03	6.532196E-18	2.039729E-18
5.337479E+03	6.557796E-18	2.047555E-18
5.347382E+03	6.582501E-18	2.055100E-18
5.357284E+03	6.606214E-18	2.062333E-18
5.367187E+03	6.629043E-18	2.069287E-18
5.377089E+03	6.650901E-18	2.075937E-18
5.386992E+03	6.671834E-18	2.082295E-18
5.396895E+03	6.691687E-18	2.088314E-18
5.406797E+03	6.710511E-18	2.094010E-18
5.416700E+03	6.728223E-18	2.099356E-18
5.426602E+03	6.744742E-18	2.104328E-18
5.436505E+03	6.760123E-18	2.108944E-18
5.446407E+03	6.774221E-18	2.113156E-18
5.456310E+03	6.786958E-18	2.116943E-18
5.466212E+03	6.798327E-18	2.120301E-18
5.476115E+03	6.808187E-18	2.123186E-18
5.486018E+03	6.816601E-18	2.125619E-18
5.495920E+03	6.823361E-18	2.127534E-18
5.505823E+03	6.828605E-18	2.128976E-18
5.515725E+03	6.832268E-18	2.129922E-18
5.525628E+03	6.834283E-18	2.130354E-18
5.535530E+03	6.834655E-18	2.130272E-18
5.545433E+03	6.833396E-18	2.129681E-18
5.555335E+03	6.830443E-18	2.128561E-18
5.565238E+03	6.825950E-18	2.126959E-18
5.575141E+03	6.819791E-18	2.124838E-18
5.585043E+03	6.812122E-18	2.122245E-18
5.594946E+03	6.802821E-18	2.119143E-18
5.604848E+03	6.792052E-18	2.115583E-18
5.614751E+03	6.779834E-18	2.111572E-18
5.624653E+03	6.766124E-18	2.107095E-18
5.634556E+03	6.751018E-18	2.102183E-18
5.644459E+03	6.734546E-18	2.096845E-18
5.654361E+03	6.716808E-18	2.091113E-18
5.664264E+03	6.697838E-18	2.084998E-18
5.674166E+03	6.677602E-18	2.078488E-18
5.684069E+03	6.656277E-18	2.071639E-18
5.693971E+03	6.633900E-18	2.064463E-18
5.703874E+03	6.610444E-18	2.056952E-18
5.713776E+03	6.586023E-18	2.049140E-18
5.723679E+03	6.560750E-18	2.041064E-18
5.733582E+03	6.534672E-18	2.032737E-18
5.743484E+03	6.507770E-18	2.024155E-18
5.753387E+03	6.480160E-18	2.015353E-18
5.763289E+03	6.451965E-18	2.006370E-18
5.773192E+03	6.423237E-18	1.997222E-18
5.783094E+03	6.393961E-18	1.987904E-18
5.792997E+03	6.364262E-18	1.978454E-18
5.802899E+03	6.334194E-18	1.968892E-18
5.812802E+03	6.303884E-18	1.959255E-18
5.822705E+03	6.273387E-18	1.949560E-18
5.832607E+03	6.242692E-18	1.939805E-18
5.842510E+03	6.211926E-18	1.930029E-18
5.852412E+03	6.181075E-18	1.920227E-18
5.862315E+03	6.150405E-18	1.910482E-18
5.872217E+03	6.119761E-18	1.900747E-18
5.882120E+03	6.089272E-18	1.891060E-18
5.892022E+03	6.059058E-18	1.881460E-18
5.901925E+03	6.029105E-18	1.871941E-18
5.911828E+03	5.999462E-18	1.862520E-18
5.921730E+03	5.970251E-18	1.853234E-18
5.931633E+03	5.941451E-18	1.844077E-18
5.941535E+03	5.913178E-18	1.835083E-18
5.951438E+03	5.885340E-18	1.826226E-18
5.961340E+03	5.858116E-18	1.817560E-18
5.971243E+03	5.831412E-18	1.809057E-18
5.981146E+03	5.805405E-18	1.800770E-18
5.991048E+03	5.779926E-18	1.792648E-18
6.000951E+03	5.755146E-18	1.784743E-18
6.010853E+03	5.731031E-18	1.777045E-18
6.020756E+03	5.707611E-18	1.769563E-18
6.030658E+03	5.684780E-18	1.762265E-18
6.040561E+03	5.662698E-18	1.755199E-18
6.050463E+03	5.641186E-18	1.748310E-18
6.060366E+03	5.620402E-18	1.741648E-18
6.070269E+03	5.600162E-18	1.735154E-18
6.080171E+03	5.580481E-18	1.728834E-18
6.090074E+03	5.561306E-18	1.722672E-18
6.099976E+03	5.542648E-18	1.716669E-18
6.109879E+03	5.524312E-18	1.710767E-18
6.119781E+03	5.506304E-18	1.704967E-18
6.129684E+03	5.488558E-18	1.699248E-18
6.139586E+03	5.471077E-18	1.693611E-18
6.149489E+03	5.453856E-18	1.688056E-18
6.159392E+03	5.437035E-18	1.682624E-18
6.169294E+03	5.420817E-18	1.677379E-18
6.179197E+03	5.405267E-18	1.672341E-18
6.189099E+03	5.390522E-18	1.667552E-18
6.199002E+03	5.376718E-18	1.663054E-18
6.208904E+03	5.363920E-18	1.658867E-18
6.218807E+03	5.352267E-18	1.655034E-18
6.228709E+03	5.341826E-18	1.651576E-18
6.238612E+03	5.332665E-18	1.648514E-18
6.248515E+03	5.324927E-18	1.645891E-18
6.258417E+03	5.318613E-18	1.643707E-18
6.268320E+03	5.313865E-18	1.642007E-18
6.278222E+03	5.310612E-18	1.640768E-18
6.288125E+03	5.308931E-18	1.640013E-18
6.298027E+03	5.308825E-18	1.639744E-18
6.307930E+03	5.310370E-18	1.639984E-18
6.317833E+03	5.313495E-18	1.640711E-18
6.327735E+03	5.318206E-18	1.641926E-18
6.337638E+03	5.324430E-18	1.643606E-18
6.347540E+03	5.332015E-18	1.645704E-18
6.357443E+03	5.340887E-18	1.648198E-18
6.367345E+03	5.351040E-18	1.651085E-18
6.377248E+03	5.362476E-18	1.654366E-18
6.387150E+03	5.375192E-18	1.658040E-18
6.397053E+03	5.389271E-18	1.662131E-18
6.406956E+03	5.404792E-18	1.666665E-18
6.416858E+03	5.421764E-18	1.671643E-18
6.426761E+03	5.440106E-18	1.677041E-18
6.436663E+03	5.459989E-18	1.682911E-18
6.446566E+03	5.481421E-18	1.689256E-18
6.456468E+03	5.504326E-18	1.696051E-18
6.466371E+03	5.528798E-18	1.703325E-18
6.476273E+03	5.554846E-18	1.711082E-18
6.486176E+03	5.582393E-18	1.719296E-18
6.496079E+03	5.611451E-18	1.727972E-18
6.505981E+03	5.642206E-18	1.737166E-18
6.515884E+03	5.674405E-18	1.746800E-18
6.525786E+03	5.708238E-18	1.756933E-18
6.535689E+03	5.743719E-18	1.767569E-18
6.545591E+03	5.780678E-18	1.778654E-18
6.555494E+03	5.819313E-18	1.790251E-18
6.565396E+03	5.859449E-18	1.802304E-18
6.575299E+03	5.901293E-18	1.814876E-18
6.585202E+03	5.944664E-18	1.827913E-18
6.595104E+03	5.989677E-18	1.841450E-18
6.605007E+03	6.036349E-18	1.855490E-18
6.614909E+03	6.084591E-18	1.870006E-18
6.624812E+03	6.134420E-18	1.885004E-18
6.634714E+03	6.185953E-18	1.900520E-18
6.644617E+03	6.239106E-18	1.916526E-18
6.654520E+03	6.293892E-18	1.933027E-18
6.664422E+03	6.350328E-18	1.950027E-18
6.674325E+03	6.408433E-18	1.967533E-18
6.684227E+03	6.468220E-18	1.985548E-18
6.694130E+03	6.529711E-18	2.004078E-18
6.704032E+03	6.592805E-18	2.023092E-18
6.713935E+03	6.657636E-18	2.042631E-18
6.723837E+03	6.724223E-18	2.062700E-18
6.733740E+03	6.792465E-18	2.083268E-18
6.743643E+03	6.862500E-18	2.104378E-18
6.753545E+03	6.934222E-18	2.125996E-18
6.763448E+03	7.007651E-18	2.148128E-18
6.773350E+03	7.082801E-18	2.170778E-18
6.783253E+03	7.159688E-18	2.193950E-18
6.793155E+03	7.238462E-18	2.217691E-18
6.803058E+03	7.318877E-18	2.241925E-18
6.812960E+03	7.401080E-18	2.266696E-18
6.822863E+03	7.485089E-18	2.292009E-18
6.832766E+03	7.570781E-18	2.317827E-18
6.842668E+03	7.658308E-18	2.344195E-18
6.852571E+03	7.747690E-18	2.371121E-18
6.862473E+03	7.838799E-18	2.398562E-18
6.872376E+03	7.931640E-18	2.426522E-18
6.882278E+03	8.026382E-18	2.455052E-18
6.892181E+03	8.122886E-18	2.484108E-18
6.902083E+03	8.221162E-18	2.513694E-18
6.911986E+03	8.321221E-18	2.543812E-18
6.921889E+03	8.423072E-18	2.574465E-18
6.931791E+03	8.526560E-18	2.605604E-18
6.941694E+03	8.632023E-18	2.637334E-18
6.951596E+03	8.739136E-18	2.669554E-18
6.961499E+03	8.848075E-18	2.702318E-18
6.971401E+03	8.958667E-18	2.735572E-18
6.981304E+03	9.070917E-18	2.769318E-18
6.991207E+03	9.185002E-18	2.803610E-18
7.001109E+03	9.300744E-18	2.838392E-18
7.011012E+03	9.417953E-18	2.873607E-18
7.020914E+03	9.536998E-18	2.909367E-18
7.030817E+03	9.657691E-18	2.945613E-18
7.040719E+03	9.779825E-18	2.982283E-18
7.050622E+03	9.903590E-18	3.019435E-18
7.060524E+03	1.002877E-17	3.057001E-18
7.070427E+03	1.015556E-17	3.095041E-18
7.080330E+03	1.028373E-17	3.133486E-18
7.090232E+03	1.041349E-17	3.172396E-18
7.100135E+03	1.054437E-17	3.211634E-18
7.110037E+03	1.067658E-17	3.251256E-18
7.119940E+03	1.081031E-17	3.291324E-18
7.129842E+03	1.094508E-17	3.331694E-18
7.139745E+03	1.108087E-17	3.372353E-18
7.149647E+03	1.121786E-17	3.413361E-18
7.159550E+03	1.135603E-17	3.454709E-18
7.169453E+03	1.149510E-17	3.496311E-18
7.179355E+03	1.163527E-17	3.538232E-18
7.189258E+03	1.177626E-17	3.580382E-18
7.199160E+03	1.191802E-17	3.622746E-18
7.209063E+03	1.206076E-17	3.665389E-18
7.218965E+03	1.220417E-17	3.708219E-18
7.228868E+03	1.234847E-17	3.751300E-18
7.238770E+03	1.249336E-17	3.794538E-18
7.248673E+03	1.263876E-17	3.837915E-18
7.258576E+03	1.278520E-17	3.881585E-18
7.268478E+03	1.293205E-17	3.925364E-18
7.278381E+03	1.307986E-17	3.969411E-18
7.288283E+03	1.322829E-17	4.013626E-18
7.298186E+03	1.337758E-17	4.058085E-18
7.308088E+03	1.352802E-17	4.102870E-18
7.317991E+03	1.367926E-17	4.147881E-18
7.327894E+03	1.383192E-17	4.193299E-18
7.337796E+03	1.398597E-17	4.239120E-18
7.347699E+03	1.414174E-17	4.285440E-18
7.357601E+03	1.429923E-17	4.332261E-18
7.367504E+03	1.445846E-17	4.379588E-18
7.377406E+03	1.461976E-17	4.427524E-18
7.387309E+03	1.478249E-17	4.475868E-18
7.397211E+03	1.494664E-17	4.524620E-18
7.407114E+03	1.511185E-17	4.573672E-18
7.417017E+03	1.527845E-17	4.623124E-18
7.426919E+03	1.544607E-17	4.672861E-18
7.436822E+03	1.561434E-17	4.722776E-18
7.446724E+03	1.578322E-17	4.772848E-18
7.456627E+03	1.595264E-17	4.823065E-18
7.466529E+03	1.612221E-17	4.873303E-18
7.476432E+03	1.629225E-17	4.923664E-18
7.486334E+03	1.646192E-17	4.973890E-18
7.496237E+03	1.663197E-17	5.024205E-18
7.506140E+03	1.680189E-17	5.074465E-18
7.516042E+03	1.697166E-17	5.124654E-18
7.525945E+03	1.714077E-17	5.174621E-18
7.535847E+03	1.730956E-17	5.224473E-18
7.545750E+03	1.747794E-17	5.274176E-18
7.555652E+03	1.764585E-17	5.323718E-18
7.565555E+03	1.781272E-17	5.372927E-18
7.575457E+03	1.797894E-17	5.421915E-18
7.585360E+03	1.814392E-17	5.470512E-18
7.595263E+03	1.830850E-17	5.518964E-18
7.605165E+03	1.847115E-17	5.566818E-18
7.615068E+03	1.863319E-17	5.614464E-18
7.624970E+03	1.879401E-17	5.661726E-18
7.634873E+03	1.895304E-17	5.708427E-18
7.644775E+03	1.911061E-17	5.754671E-18
7.654678E+03	1.926662E-17	5.800425E-18
7.664581E+03	1.942093E-17	5.845649E-18
7.674483E+03	1.957344E-17	5.890309E-18
7.684386E+03	1.972449E-17	5.934517E-18
