#wls	flux	fluxerr
1.584409E+03	1.134946E-16	7.482263E-18
1.624020E+03	1.165222E-16	7.668486E-18
1.663630E+03	1.192599E-16	7.834650E-18
1.703240E+03	1.216633E-16	7.977922E-18
1.742850E+03	1.236954E-16	8.095984E-18
1.782461E+03	1.252636E-16	8.182895E-18
1.822071E+03	1.262634E-16	8.231995E-18
1.861681E+03	1.265590E-16	8.234659E-18
1.901291E+03	1.259976E-16	8.181239E-18
1.940902E+03	1.244540E-16	8.063960E-18
1.980512E+03	1.218995E-16	7.881388E-18
2.020122E+03	1.185201E-16	7.645955E-18
2.059732E+03	1.147789E-16	7.387854E-18
2.099342E+03	1.114799E-16	7.158910E-18
2.138953E+03	1.094841E-16	7.014105E-18
2.178563E+03	1.092874E-16	6.984553E-18
2.218173E+03	1.108070E-16	7.064144E-18
2.257783E+03	1.134347E-16	7.213368E-18
2.297394E+03	1.164180E-16	7.383925E-18
2.337004E+03	1.191335E-16	7.536190E-18
2.376614E+03	1.212011E-16	7.646277E-18
2.416224E+03	1.224659E-16	7.704758E-18
2.455835E+03	1.228907E-16	7.709705E-18
2.495445E+03	1.225306E-16	7.665006E-18
2.535055E+03	1.214682E-16	7.576239E-18
2.574665E+03	1.197819E-16	7.448677E-18
2.614276E+03	1.175546E-16	7.287834E-18
2.653886E+03	1.148564E-16	7.098361E-18
2.693496E+03	1.117564E-16	6.884826E-18
2.733106E+03	1.083123E-16	6.651031E-18
2.772716E+03	1.045795E-16	6.400617E-18
2.812327E+03	1.006099E-16	6.136960E-18
2.851937E+03	9.646668E-17	5.864090E-18
2.891547E+03	9.220896E-17	5.585735E-18
2.931157E+03	8.789623E-17	5.305602E-18
2.970768E+03	8.359939E-17	5.028035E-18
2.980670E+03	8.253621E-17	4.959562E-18
2.990573E+03	8.147875E-17	4.891534E-18
3.000475E+03	8.042783E-17	4.824001E-18
3.010378E+03	7.938610E-17	4.757122E-18
3.020280E+03	7.835440E-17	4.690944E-18
3.030183E+03	7.733355E-17	4.625516E-18
3.040086E+03	7.632519E-17	4.560937E-18
3.049988E+03	7.533329E-17	4.497440E-18
3.059891E+03	7.436151E-17	4.435241E-18
3.069793E+03	7.341092E-17	4.374402E-18
3.079696E+03	7.248115E-17	4.314898E-18
3.089598E+03	7.157062E-17	4.256632E-18
3.099501E+03	7.068216E-17	4.199770E-18
3.109403E+03	6.981307E-17	4.144146E-18
3.119306E+03	6.896492E-17	4.089854E-18
3.129209E+03	6.813932E-17	4.036983E-18
3.139111E+03	6.733536E-17	3.985477E-18
3.149014E+03	6.655473E-17	3.935434E-18
3.158916E+03	6.579664E-17	3.886802E-18
3.168819E+03	6.506292E-17	3.839686E-18
3.178721E+03	6.435412E-17	3.794115E-18
3.188624E+03	6.366975E-17	3.750055E-18
3.198526E+03	6.301161E-17	3.707610E-18
3.208429E+03	6.238047E-17	3.666820E-18
3.218332E+03	6.177702E-17	3.627721E-18
3.228234E+03	6.120202E-17	3.590353E-18
3.238137E+03	6.065621E-17	3.554756E-18
3.248039E+03	6.014045E-17	3.520975E-18
3.257942E+03	5.965460E-17	3.488995E-18
3.267844E+03	5.920135E-17	3.458970E-18
3.277747E+03	5.877972E-17	3.430838E-18
3.287650E+03	5.839147E-17	3.404694E-18
3.297552E+03	5.803667E-17	3.380537E-18
3.307455E+03	5.771700E-17	3.358461E-18
3.317357E+03	5.743350E-17	3.338518E-18
3.327260E+03	5.718527E-17	3.320651E-18
3.337162E+03	5.697507E-17	3.305013E-18
3.347065E+03	5.680218E-17	3.291556E-18
3.356967E+03	5.666841E-17	3.280378E-18
3.366870E+03	5.657481E-17	3.271534E-18
3.376773E+03	5.652083E-17	3.264984E-18
3.386675E+03	5.650913E-17	3.260874E-18
3.396578E+03	5.653925E-17	3.259170E-18
3.406480E+03	5.661234E-17	3.259933E-18
3.416383E+03	5.672962E-17	3.263222E-18
3.426285E+03	5.689149E-17	3.269055E-18
3.436188E+03	5.709994E-17	3.277537E-18
3.446090E+03	5.735476E-17	3.288647E-18
3.455993E+03	5.765726E-17	3.302452E-18
3.465896E+03	5.800804E-17	3.318978E-18
3.475798E+03	5.840918E-17	3.338335E-18
3.485701E+03	5.886061E-17	3.360510E-18
3.495603E+03	5.936304E-17	3.385533E-18
3.505506E+03	5.991858E-17	3.413517E-18
3.515408E+03	6.052654E-17	3.444410E-18
3.525311E+03	6.118832E-17	3.478285E-18
3.535213E+03	6.190542E-17	3.515217E-18
3.545116E+03	6.267785E-17	3.555194E-18
3.555019E+03	6.350691E-17	3.598282E-18
3.564921E+03	6.439257E-17	3.644467E-18
3.574824E+03	6.533546E-17	3.693775E-18
3.584726E+03	6.633680E-17	3.746265E-18
3.594629E+03	6.739561E-17	3.801870E-18
3.604531E+03	6.851362E-17	3.860678E-18
3.614434E+03	6.969043E-17	3.922655E-18
3.624337E+03	7.092605E-17	3.987790E-18
3.634239E+03	7.221967E-17	4.056028E-18
3.644142E+03	7.357183E-17	4.127388E-18
3.654044E+03	7.498206E-17	4.201834E-18
3.663947E+03	7.644894E-17	4.279275E-18
3.673849E+03	7.797240E-17	4.359696E-18
3.683752E+03	7.955120E-17	4.443020E-18
3.693654E+03	8.118326E-17	4.529119E-18
3.703557E+03	8.286916E-17	4.618017E-18
3.713460E+03	8.460540E-17	4.709509E-18
3.723362E+03	8.639044E-17	4.803500E-18
3.733265E+03	8.822340E-17	4.899933E-18
3.743167E+03	9.009963E-17	4.998542E-18
3.753070E+03	9.201842E-17	5.099280E-18
3.762972E+03	9.397543E-17	5.201900E-18
3.772875E+03	9.596838E-17	5.306269E-18
3.782777E+03	9.799407E-17	5.412204E-18
3.792680E+03	1.000479E-16	5.519446E-18
3.802583E+03	1.021260E-16	5.627780E-18
3.812485E+03	1.042251E-16	5.737018E-18
3.822388E+03	1.063397E-16	5.846863E-18
3.832290E+03	1.084664E-16	5.957113E-18
3.842193E+03	1.105991E-16	6.067444E-18
3.852095E+03	1.127338E-16	6.177633E-18
3.861998E+03	1.148653E-16	6.287393E-18
3.871900E+03	1.169882E-16	6.396433E-18
3.881803E+03	1.190980E-16	6.504515E-18
3.891706E+03	1.211883E-16	6.611288E-18
3.901608E+03	1.232545E-16	6.716508E-18
3.911511E+03	1.252922E-16	6.819936E-18
3.921413E+03	1.272935E-16	6.921162E-18
3.931316E+03	1.292564E-16	7.020075E-18
3.941218E+03	1.311744E-16	7.116329E-18
3.951121E+03	1.330420E-16	7.209646E-18
3.961024E+03	1.348553E-16	7.299819E-18
3.970926E+03	1.366081E-16	7.386526E-18
3.980829E+03	1.382979E-16	7.469646E-18
3.990731E+03	1.399201E-16	7.548941E-18
4.000634E+03	1.414703E-16	7.624188E-18
4.010536E+03	1.429431E-16	7.695113E-18
4.020439E+03	1.443370E-16	7.761647E-18
4.030341E+03	1.456484E-16	7.823612E-18
4.040244E+03	1.468737E-16	7.880843E-18
4.050147E+03	1.480102E-16	7.933197E-18
4.060049E+03	1.490549E-16	7.980540E-18
4.069952E+03	1.500069E-16	8.022833E-18
4.079854E+03	1.508627E-16	8.059917E-18
4.089757E+03	1.516221E-16	8.091794E-18
4.099659E+03	1.522838E-16	8.118418E-18
4.109562E+03	1.528472E-16	8.139766E-18
4.119464E+03	1.533118E-16	8.155839E-18
4.129367E+03	1.536780E-16	8.166666E-18
4.139270E+03	1.539475E-16	8.172370E-18
4.149172E+03	1.541192E-16	8.172896E-18
4.159075E+03	1.541958E-16	8.168417E-18
4.168977E+03	1.541812E-16	8.159144E-18
4.178880E+03	1.540754E-16	8.145104E-18
4.188782E+03	1.538831E-16	8.126556E-18
4.198685E+03	1.536070E-16	8.103656E-18
4.208587E+03	1.532528E-16	8.076725E-18
4.218490E+03	1.528242E-16	8.045966E-18
4.228393E+03	1.523255E-16	8.011618E-18
4.238295E+03	1.517652E-16	7.974141E-18
4.248198E+03	1.511460E-16	7.933689E-18
4.258100E+03	1.504774E-16	7.890767E-18
4.268003E+03	1.497654E-16	7.845699E-18
4.277905E+03	1.490178E-16	7.798897E-18
4.287808E+03	1.482412E-16	7.750719E-18
4.297711E+03	1.474451E-16	7.701659E-18
4.307613E+03	1.466378E-16	7.652156E-18
4.317516E+03	1.458261E-16	7.602568E-18
4.327418E+03	1.450217E-16	7.553501E-18
4.337321E+03	1.442305E-16	7.505270E-18
4.347223E+03	1.434615E-16	7.458324E-18
4.357126E+03	1.427156E-16	7.412722E-18
4.367028E+03	1.419920E-16	7.368410E-18
4.376931E+03	1.412854E-16	7.325111E-18
4.386834E+03	1.405952E-16	7.282784E-18
4.396736E+03	1.399169E-16	7.241204E-18
4.406639E+03	1.392465E-16	7.200154E-18
4.416541E+03	1.385840E-16	7.159635E-18
4.426444E+03	1.379262E-16	7.119475E-18
4.436346E+03	1.372716E-16	7.079597E-18
4.446249E+03	1.366191E-16	7.039950E-18
4.456151E+03	1.359684E-16	7.000507E-18
4.466054E+03	1.353183E-16	6.961209E-18
4.475957E+03	1.346704E-16	6.922141E-18
4.485859E+03	1.340257E-16	6.883347E-18
4.495762E+03	1.333842E-16	6.844828E-18
4.505664E+03	1.327463E-16	6.806604E-18
4.515567E+03	1.321150E-16	6.768828E-18
4.525469E+03	1.314925E-16	6.731608E-18
4.535372E+03	1.308785E-16	6.694931E-18
4.545274E+03	1.302780E-16	6.659045E-18
4.555177E+03	1.296898E-16	6.623892E-18
4.565080E+03	1.291178E-16	6.589667E-18
4.574982E+03	1.285647E-16	6.556504E-18
4.584885E+03	1.280322E-16	6.524485E-18
4.594787E+03	1.275232E-16	6.493755E-18
4.604690E+03	1.270382E-16	6.464341E-18
4.614592E+03	1.265829E-16	6.436521E-18
4.624495E+03	1.261568E-16	6.410275E-18
4.634398E+03	1.257647E-16	6.385839E-18
4.644300E+03	1.254091E-16	6.363333E-18
4.654203E+03	1.250939E-16	6.342952E-18
4.664105E+03	1.248207E-16	6.324777E-18
4.674008E+03	1.245941E-16	6.309029E-18
4.683910E+03	1.244146E-16	6.295729E-18
4.693813E+03	1.242833E-16	6.284928E-18
4.703715E+03	1.241963E-16	6.276420E-18
4.713618E+03	1.241536E-16	6.270207E-18
4.723521E+03	1.241544E-16	6.266235E-18
4.733423E+03	1.241965E-16	6.264397E-18
4.743326E+03	1.242808E-16	6.264723E-18
4.753228E+03	1.244056E-16	6.267126E-18
4.763131E+03	1.245703E-16	6.271579E-18
4.773033E+03	1.247747E-16	6.278055E-18
4.782936E+03	1.250183E-16	6.286536E-18
4.792838E+03	1.252995E-16	6.296928E-18
4.802741E+03	1.256201E-16	6.309326E-18
4.812644E+03	1.259758E-16	6.323504E-18
4.822546E+03	1.263684E-16	6.339547E-18
4.832449E+03	1.267954E-16	6.357337E-18
4.842351E+03	1.272574E-16	6.376884E-18
4.852254E+03	1.277503E-16	6.397997E-18
4.862156E+03	1.282742E-16	6.420665E-18
4.872059E+03	1.288276E-16	6.444817E-18
4.881961E+03	1.294077E-16	6.470305E-18
4.891864E+03	1.300141E-16	6.497108E-18
4.901767E+03	1.306437E-16	6.525071E-18
4.911669E+03	1.312962E-16	6.554177E-18
4.921572E+03	1.319671E-16	6.584197E-18
4.931474E+03	1.326574E-16	6.615176E-18
4.941377E+03	1.333625E-16	6.646896E-18
4.951279E+03	1.340822E-16	6.679331E-18
4.961182E+03	1.348136E-16	6.712336E-18
4.971085E+03	1.355563E-16	6.745901E-18
4.980987E+03	1.363089E-16	6.779950E-18
4.990890E+03	1.370674E-16	6.814278E-18
5.000792E+03	1.378317E-16	6.848886E-18
5.010695E+03	1.386007E-16	6.883713E-18
5.020597E+03	1.393732E-16	6.918707E-18
5.030500E+03	1.401454E-16	6.953669E-18
5.040402E+03	1.409189E-16	6.988685E-18
5.050305E+03	1.416927E-16	7.023704E-18
5.060208E+03	1.424616E-16	7.058463E-18
5.070110E+03	1.432285E-16	7.093116E-18
5.080013E+03	1.439896E-16	7.127463E-18
5.089915E+03	1.447434E-16	7.161436E-18
5.099818E+03	1.454885E-16	7.194966E-18
5.109720E+03	1.462217E-16	7.227899E-18
5.119623E+03	1.469428E-16	7.260214E-18
5.129525E+03	1.476479E-16	7.291733E-18
5.139428E+03	1.483350E-16	7.322344E-18
5.149331E+03	1.490012E-16	7.351919E-18
5.159233E+03	1.496407E-16	7.380163E-18
5.169136E+03	1.502533E-16	7.407071E-18
5.179038E+03	1.508340E-16	7.432399E-18
5.188941E+03	1.513777E-16	7.455891E-18
5.198843E+03	1.518801E-16	7.477351E-18
5.208746E+03	1.523374E-16	7.496579E-18
5.218648E+03	1.527436E-16	7.513295E-18
5.228551E+03	1.530959E-16	7.527357E-18
5.238454E+03	1.533868E-16	7.538404E-18
5.248356E+03	1.536137E-16	7.546305E-18
5.258259E+03	1.537692E-16	7.550711E-18
5.268161E+03	1.538510E-16	7.551505E-18
5.278064E+03	1.538541E-16	7.548446E-18
5.287966E+03	1.537752E-16	7.541381E-18
5.297869E+03	1.536119E-16	7.530196E-18
5.307772E+03	1.533592E-16	7.514649E-18
5.317674E+03	1.530174E-16	7.494761E-18
5.327577E+03	1.525847E-16	7.470450E-18
5.337479E+03	1.520617E-16	7.441747E-18
5.347382E+03	1.514467E-16	7.408580E-18
5.357284E+03	1.507454E-16	7.371232E-18
5.367187E+03	1.499569E-16	7.329658E-18
5.377089E+03	1.490858E-16	7.284089E-18
5.386992E+03	1.481376E-16	7.234806E-18
5.396895E+03	1.471117E-16	7.181776E-18
5.406797E+03	1.460085E-16	7.125028E-18
5.416700E+03	1.448295E-16	7.064631E-18
5.426602E+03	1.435898E-16	7.001337E-18
5.436505E+03	1.423039E-16	6.935849E-18
5.446407E+03	1.409834E-16	6.868735E-18
5.456310E+03	1.396396E-16	6.800547E-18
5.466212E+03	1.382839E-16	6.731844E-18
5.476115E+03	1.369249E-16	6.663041E-18
5.486018E+03	1.355766E-16	6.594824E-18
5.495920E+03	1.342475E-16	6.527598E-18
5.505823E+03	1.329467E-16	6.461811E-18
5.515725E+03	1.316859E-16	6.398024E-18
5.525628E+03	1.304719E-16	6.336568E-18
5.535530E+03	1.293137E-16	6.277876E-18
5.545433E+03	1.282193E-16	6.222332E-18
5.555335E+03	1.271945E-16	6.170220E-18
5.565238E+03	1.262458E-16	6.121842E-18
5.575141E+03	1.253771E-16	6.077385E-18
5.585043E+03	1.245915E-16	6.036997E-18
5.594946E+03	1.238923E-16	6.000833E-18
5.604848E+03	1.232793E-16	5.968881E-18
5.614751E+03	1.227565E-16	5.941324E-18
5.624653E+03	1.223206E-16	5.918003E-18
5.634556E+03	1.219725E-16	5.898950E-18
5.644459E+03	1.217097E-16	5.884045E-18
5.654361E+03	1.215277E-16	5.873067E-18
5.664264E+03	1.214252E-16	5.865945E-18
5.674166E+03	1.213964E-16	5.862400E-18
5.684069E+03	1.214378E-16	5.862254E-18
5.693971E+03	1.215440E-16	5.865242E-18
5.703874E+03	1.217106E-16	5.871153E-18
5.713776E+03	1.219304E-16	5.879640E-18
5.723679E+03	1.222002E-16	5.890540E-18
5.733582E+03	1.225113E-16	5.903434E-18
5.743484E+03	1.228592E-16	5.918102E-18
5.753387E+03	1.232393E-16	5.934324E-18
5.763289E+03	1.236461E-16	5.951836E-18
5.773192E+03	1.240731E-16	5.970318E-18
5.783094E+03	1.245166E-16	5.989595E-18
5.792997E+03	1.249734E-16	6.009509E-18
5.802899E+03	1.254364E-16	6.029728E-18
5.812802E+03	1.259034E-16	6.050138E-18
5.822705E+03	1.263722E-16	6.070641E-18
5.832607E+03	1.268373E-16	6.090963E-18
5.842510E+03	1.272987E-16	6.111119E-18
5.852412E+03	1.277547E-16	6.131014E-18
5.862315E+03	1.282004E-16	6.150425E-18
5.872217E+03	1.286361E-16	6.169362E-18
5.882120E+03	1.290623E-16	6.187853E-18
5.892022E+03	1.294756E-16	6.205732E-18
5.901925E+03	1.298772E-16	6.223059E-18
5.911828E+03	1.302671E-16	6.239844E-18
5.921730E+03	1.306445E-16	6.256037E-18
5.931633E+03	1.310101E-16	6.271683E-18
5.941535E+03	1.313650E-16	6.286831E-18
5.951438E+03	1.317092E-16	6.301481E-18
5.961340E+03	1.320457E-16	6.315787E-18
5.971243E+03	1.323754E-16	6.329780E-18
5.981146E+03	1.327004E-16	6.343575E-18
5.991048E+03	1.330206E-16	6.357157E-18
6.000951E+03	1.333421E-16	6.370824E-18
6.010853E+03	1.336635E-16	6.384512E-18
6.020756E+03	1.339920E-16	6.398563E-18
6.030658E+03	1.343269E-16	6.412943E-18
6.040561E+03	1.346761E-16	6.428034E-18
6.050463E+03	1.350397E-16	6.443838E-18
6.060366E+03	1.354249E-16	6.460701E-18
6.070269E+03	1.358375E-16	6.478899E-18
6.080171E+03	1.362823E-16	6.498659E-18
6.090074E+03	1.367642E-16	6.520223E-18
6.099976E+03	1.372922E-16	6.544012E-18
6.109879E+03	1.378737E-16	6.570380E-18
6.119781E+03	1.385163E-16	6.599693E-18
6.129684E+03	1.392278E-16	6.632317E-18
6.139586E+03	1.400140E-16	6.668530E-18
6.149489E+03	1.408703E-16	6.708119E-18
6.159392E+03	1.417861E-16	6.750571E-18
6.169294E+03	1.427576E-16	6.795705E-18
6.179197E+03	1.437755E-16	6.843088E-18
6.189099E+03	1.448326E-16	6.892365E-18
6.199002E+03	1.459254E-16	6.943377E-18
6.208904E+03	1.470472E-16	6.995804E-18
6.218807E+03	1.481935E-16	7.049428E-18
6.228709E+03	1.493580E-16	7.103951E-18
6.238612E+03	1.505349E-16	7.159094E-18
6.248515E+03	1.517245E-16	7.214875E-18
6.258417E+03	1.529175E-16	7.270852E-18
6.268320E+03	1.541131E-16	7.326986E-18
6.278222E+03	1.553044E-16	7.382952E-18
6.288125E+03	1.564913E-16	7.438736E-18
6.298027E+03	1.576674E-16	7.494046E-18
6.307930E+03	1.588311E-16	7.548795E-18
6.317833E+03	1.599808E-16	7.602913E-18
6.327735E+03	1.611085E-16	7.656024E-18
6.337638E+03	1.622156E-16	7.708187E-18
6.347540E+03	1.632990E-16	7.759259E-18
6.357443E+03	1.643559E-16	7.809104E-18
6.367345E+03	1.653860E-16	7.857713E-18
6.377248E+03	1.663894E-16	7.905084E-18
6.387150E+03	1.673663E-16	7.951236E-18
6.397053E+03	1.683151E-16	7.996080E-18
6.406956E+03	1.692338E-16	8.039532E-18
6.416858E+03	1.701234E-16	8.081637E-18
6.426761E+03	1.709775E-16	8.122087E-18
6.436663E+03	1.717999E-16	8.161068E-18
6.446566E+03	1.725896E-16	8.198525E-18
6.456468E+03	1.733457E-16	8.234421E-18
6.466371E+03	1.740673E-16	8.268713E-18
6.476273E+03	1.747540E-16	8.301378E-18
6.486176E+03	1.754081E-16	8.332525E-18
6.496079E+03	1.760263E-16	8.362001E-18
6.505981E+03	1.766114E-16	8.389935E-18
6.515884E+03	1.771633E-16	8.416324E-18
6.525786E+03	1.776792E-16	8.441031E-18
6.535689E+03	1.781620E-16	8.464197E-18
6.545591E+03	1.786120E-16	8.485838E-18
6.555494E+03	1.790296E-16	8.505962E-18
6.565396E+03	1.794149E-16	8.524587E-18
6.575299E+03	1.797685E-16	8.541734E-18
6.585202E+03	1.800908E-16	8.557419E-18
6.595104E+03	1.803792E-16	8.571521E-18
6.605007E+03	1.806370E-16	8.584199E-18
6.614909E+03	1.808618E-16	8.595332E-18
6.624812E+03	1.810569E-16	8.605084E-18
6.634714E+03	1.812228E-16	8.613472E-18
6.644617E+03	1.813567E-16	8.620364E-18
6.654520E+03	1.814590E-16	8.625779E-18
6.664422E+03	1.815330E-16	8.629876E-18
6.674325E+03	1.815727E-16	8.632364E-18
6.684227E+03	1.815848E-16	8.633561E-18
6.694130E+03	1.815662E-16	8.633321E-18
6.704032E+03	1.815138E-16	8.631500E-18
6.713935E+03	1.814311E-16	8.628260E-18
6.723837E+03	1.813182E-16	8.623607E-18
6.733740E+03	1.811721E-16	8.617392E-18
6.743643E+03	1.809962E-16	8.609783E-18
6.753545E+03	1.807874E-16	8.600630E-18
6.763448E+03	1.805493E-16	8.590104E-18
6.773350E+03	1.802755E-16	8.577897E-18
6.783253E+03	1.799730E-16	8.564343E-18
6.793155E+03	1.796354E-16	8.549138E-18
6.803058E+03	1.792698E-16	8.532619E-18
6.812960E+03	1.788700E-16	8.514492E-18
6.822863E+03	1.784399E-16	8.494935E-18
6.832766E+03	1.779766E-16	8.473821E-18
6.842668E+03	1.774843E-16	8.451337E-18
6.852571E+03	1.769601E-16	8.427351E-18
6.862473E+03	1.764082E-16	8.402063E-18
6.872376E+03	1.758225E-16	8.375185E-18
6.882278E+03	1.752109E-16	8.347082E-18
6.892181E+03	1.745706E-16	8.317632E-18
6.902083E+03	1.738993E-16	8.286718E-18
6.911986E+03	1.732048E-16	8.254711E-18
6.921889E+03	1.724813E-16	8.221335E-18
6.931791E+03	1.717331E-16	8.186798E-18
6.941694E+03	1.709582E-16	8.150998E-18
6.951596E+03	1.701609E-16	8.114144E-18
6.961499E+03	1.693390E-16	8.076133E-18
6.971401E+03	1.684972E-16	8.037181E-18
6.981304E+03	1.676300E-16	7.997031E-18
6.991207E+03	1.667453E-16	7.956059E-18
7.001109E+03	1.658379E-16	7.914011E-18
7.011012E+03	1.649156E-16	7.871267E-18
7.020914E+03	1.639732E-16	7.827576E-18
7.030817E+03	1.630155E-16	7.783161E-18
7.040719E+03	1.620405E-16	7.737936E-18
7.050622E+03	1.610531E-16	7.692122E-18
7.060524E+03	1.600545E-16	7.645792E-18
7.070427E+03	1.590400E-16	7.598704E-18
7.080330E+03	1.580172E-16	7.551234E-18
7.090232E+03	1.569877E-16	7.503454E-18
7.100135E+03	1.559465E-16	7.455125E-18
7.110037E+03	1.548983E-16	7.406471E-18
7.119940E+03	1.538445E-16	7.357555E-18
7.129842E+03	1.527833E-16	7.308296E-18
7.139745E+03	1.517224E-16	7.259060E-18
7.149647E+03	1.506566E-16	7.209601E-18
7.159550E+03	1.495874E-16	7.159989E-18
7.169453E+03	1.485191E-16	7.110424E-18
7.179355E+03	1.474466E-16	7.060672E-18
7.189258E+03	1.463772E-16	7.011077E-18
7.199160E+03	1.453090E-16	6.961550E-18
7.209063E+03	1.442432E-16	6.912141E-18
7.218965E+03	1.431776E-16	6.862756E-18
7.228868E+03	1.421135E-16	6.813451E-18
7.238770E+03	1.410550E-16	6.764426E-18
7.248673E+03	1.400004E-16	6.715591E-18
7.258576E+03	1.389479E-16	6.666870E-18
7.268478E+03	1.378990E-16	6.618330E-18
7.278381E+03	1.368552E-16	6.570046E-18
7.288283E+03	1.358183E-16	6.522104E-18
7.298186E+03	1.347874E-16	6.474458E-18
7.308088E+03	1.337619E-16	6.427079E-18
7.317991E+03	1.327443E-16	6.380090E-18
7.327894E+03	1.317318E-16	6.333359E-18
7.337796E+03	1.307334E-16	6.287311E-18
7.347699E+03	1.297443E-16	6.241723E-18
7.357601E+03	1.287687E-16	6.196793E-18
7.367504E+03	1.278139E-16	6.152875E-18
7.377406E+03	1.268877E-16	6.110346E-18
7.387309E+03	1.259928E-16	6.069339E-18
7.397211E+03	1.251407E-16	6.030403E-18
7.407114E+03	1.243376E-16	5.993841E-18
7.417017E+03	1.235953E-16	5.960224E-18
7.426919E+03	1.229178E-16	5.929745E-18
7.436822E+03	1.223169E-16	5.902978E-18
7.446724E+03	1.217935E-16	5.879964E-18
7.456627E+03	1.213409E-16	5.860388E-18
7.466529E+03	1.209548E-16	5.844047E-18
7.476432E+03	1.206261E-16	5.830494E-18
7.486334E+03	1.203538E-16	5.819694E-18
7.496237E+03	1.201297E-16	5.811245E-18
7.506140E+03	1.199488E-16	5.804912E-18
7.516042E+03	1.198094E-16	5.800610E-18
7.525945E+03	1.197077E-16	5.798157E-18
7.535847E+03	1.196403E-16	5.797394E-18
7.545750E+03	1.196016E-16	5.798051E-18
7.555652E+03	1.195946E-16	5.800272E-18
7.565555E+03	1.196116E-16	5.803687E-18
7.575457E+03	1.196564E-16	5.808478E-18
7.585360E+03	1.197218E-16	5.814297E-18
7.595263E+03	1.198119E-16	5.821346E-18
7.605165E+03	1.199198E-16	5.829294E-18
7.615068E+03	1.200501E-16	5.838356E-18
7.624970E+03	1.201989E-16	5.848351E-18
7.634873E+03	1.203651E-16	5.859226E-18
7.644775E+03	1.205451E-16	5.870804E-18
7.654678E+03	1.207437E-16	5.883319E-18
7.664581E+03	1.209571E-16	5.896591E-18
7.674483E+03	1.211846E-16	5.910580E-18
7.684386E+03	1.214225E-16	5.925113E-18
