#wls	flux	fluxerr
1.584409E+03	1.339166E-16	2.104079E-17
1.624020E+03	1.396384E-16	2.192674E-17
1.663630E+03	1.450773E-16	2.276693E-17
1.703240E+03	1.501800E-16	2.355303E-17
1.742850E+03	1.548428E-16	2.426881E-17
1.782461E+03	1.589434E-16	2.489524E-17
1.822071E+03	1.622820E-16	2.540116E-17
1.861681E+03	1.646537E-16	2.575475E-17
1.901291E+03	1.658219E-16	2.591931E-17
1.940902E+03	1.655784E-16	2.586269E-17
1.980512E+03	1.638155E-16	2.556855E-17
2.020122E+03	1.607342E-16	2.506878E-17
2.059732E+03	1.569705E-16	2.446297E-17
2.099342E+03	1.535879E-16	2.391699E-17
2.138953E+03	1.517847E-16	2.361719E-17
2.178563E+03	1.522807E-16	2.367489E-17
2.218173E+03	1.549338E-16	2.406710E-17
2.257783E+03	1.588973E-16	2.466156E-17
2.297394E+03	1.630729E-16	2.528739E-17
2.337004E+03	1.666010E-16	2.581127E-17
2.376614E+03	1.689385E-16	2.614936E-17
2.416224E+03	1.698366E-16	2.626371E-17
2.455835E+03	1.692687E-16	2.615077E-17
2.495445E+03	1.673017E-16	2.582156E-17
2.535055E+03	1.640478E-16	2.529401E-17
2.574665E+03	1.596633E-16	2.459281E-17
2.614276E+03	1.542812E-16	2.373900E-17
2.653886E+03	1.480498E-16	2.275591E-17
2.693496E+03	1.410979E-16	2.166377E-17
2.733106E+03	1.335717E-16	2.048544E-17
2.772716E+03	1.256008E-16	1.924114E-17
2.812327E+03	1.173254E-16	1.795263E-17
2.851937E+03	1.088870E-16	1.664178E-17
2.891547E+03	1.004269E-16	1.533030E-17
2.931157E+03	9.208237E-17	1.403927E-17
2.970768E+03	8.398136E-17	1.278814E-17
2.980670E+03	8.200690E-17	1.248353E-17
2.990573E+03	8.005708E-17	1.218285E-17
3.000475E+03	7.813119E-17	1.188597E-17
3.010378E+03	7.623375E-17	1.159359E-17
3.020280E+03	7.436392E-17	1.130558E-17
3.030183E+03	7.252262E-17	1.102208E-17
3.040086E+03	7.071161E-17	1.074334E-17
3.049988E+03	6.893729E-17	1.047034E-17
3.059891E+03	6.719983E-17	1.020309E-17
3.069793E+03	6.550122E-17	9.941909E-18
3.079696E+03	6.383947E-17	9.686470E-18
3.089598E+03	6.221531E-17	9.436889E-18
3.099501E+03	6.062823E-17	9.193081E-18
3.109403E+03	5.907788E-17	8.954988E-18
3.119306E+03	5.756395E-17	8.722560E-18
3.129209E+03	5.608724E-17	8.495913E-18
3.139111E+03	5.464645E-17	8.274846E-18
3.149014E+03	5.324242E-17	8.059479E-18
3.158916E+03	5.187490E-17	7.849772E-18
3.168819E+03	5.054370E-17	7.645690E-18
3.178721E+03	4.924947E-17	7.447329E-18
3.188624E+03	4.799029E-17	7.254390E-18
3.198526E+03	4.676843E-17	7.067213E-18
3.208429E+03	4.558122E-17	6.885390E-18
3.218332E+03	4.443071E-17	6.709226E-18
3.228234E+03	4.331510E-17	6.538444E-18
3.238137E+03	4.223481E-17	6.373101E-18
3.248039E+03	4.118948E-17	6.213139E-18
3.257942E+03	4.017808E-17	6.058398E-18
3.267844E+03	3.920150E-17	5.909006E-18
3.277747E+03	3.825807E-17	5.764708E-18
3.287650E+03	3.734742E-17	5.625442E-18
3.297552E+03	3.647020E-17	5.491301E-18
3.307455E+03	3.562481E-17	5.362042E-18
3.317357E+03	3.481081E-17	5.237591E-18
3.327260E+03	3.402771E-17	5.117869E-18
3.337162E+03	3.327546E-17	5.002868E-18
3.347065E+03	3.255261E-17	4.892361E-18
3.356967E+03	3.185869E-17	4.786274E-18
3.366870E+03	3.119358E-17	4.684587E-18
3.376773E+03	3.055634E-17	4.587152E-18
3.386675E+03	2.994644E-17	4.493885E-18
3.396578E+03	2.936259E-17	4.404591E-18
3.406480E+03	2.880470E-17	4.319248E-18
3.416383E+03	2.827225E-17	4.237778E-18
3.426285E+03	2.776405E-17	4.159995E-18
3.436188E+03	2.727964E-17	4.085830E-18
3.446090E+03	2.681824E-17	4.015161E-18
3.455993E+03	2.637975E-17	3.947967E-18
3.465896E+03	2.596278E-17	3.884041E-18
3.475798E+03	2.556728E-17	3.823367E-18
3.485701E+03	2.519225E-17	3.765795E-18
3.495603E+03	2.483707E-17	3.711228E-18
3.505506E+03	2.450111E-17	3.659570E-18
3.515408E+03	2.418357E-17	3.610696E-18
3.525311E+03	2.388416E-17	3.564561E-18
3.535213E+03	2.360184E-17	3.521006E-18
3.545116E+03	2.333615E-17	3.479961E-18
3.555019E+03	2.308691E-17	3.441396E-18
3.564921E+03	2.285341E-17	3.405200E-18
3.574824E+03	2.263526E-17	3.371316E-18
3.584726E+03	2.243183E-17	3.339645E-18
3.594629E+03	2.224255E-17	3.310098E-18
3.604531E+03	2.206706E-17	3.282624E-18
3.614434E+03	2.190463E-17	3.257108E-18
3.624337E+03	2.175517E-17	3.233536E-18
3.634239E+03	2.161796E-17	3.211797E-18
3.644142E+03	2.149276E-17	3.191856E-18
3.654044E+03	2.137948E-17	3.173696E-18
3.663947E+03	2.127750E-17	3.157221E-18
3.673849E+03	2.118654E-17	3.142391E-18
3.683752E+03	2.110677E-17	3.129226E-18
3.693654E+03	2.103774E-17	3.117658E-18
3.703557E+03	2.097923E-17	3.107654E-18
3.713460E+03	2.093136E-17	3.099229E-18
3.723362E+03	2.089371E-17	3.092319E-18
3.733265E+03	2.086621E-17	3.086912E-18
3.743167E+03	2.084902E-17	3.083027E-18
3.753070E+03	2.084188E-17	3.080627E-18
3.762972E+03	2.084471E-17	3.079697E-18
3.772875E+03	2.085746E-17	3.080228E-18
3.782777E+03	2.088005E-17	3.082207E-18
3.792680E+03	2.091259E-17	3.085646E-18
3.802583E+03	2.095482E-17	3.090506E-18
3.812485E+03	2.100684E-17	3.096801E-18
3.822388E+03	2.106874E-17	3.104541E-18
3.832290E+03	2.114025E-17	3.113684E-18
3.842193E+03	2.122130E-17	3.124218E-18
3.852095E+03	2.131212E-17	3.136176E-18
3.861998E+03	2.141264E-17	3.149545E-18
3.871900E+03	2.152255E-17	3.164276E-18
3.881803E+03	2.164211E-17	3.180408E-18
3.891706E+03	2.177139E-17	3.197949E-18
3.901608E+03	2.190991E-17	3.216824E-18
3.911511E+03	2.205787E-17	3.237064E-18
3.921413E+03	2.221537E-17	3.258678E-18
3.931316E+03	2.238225E-17	3.281643E-18
3.941218E+03	2.255817E-17	3.305907E-18
3.951121E+03	2.274353E-17	3.331526E-18
3.961024E+03	2.293799E-17	3.358449E-18
3.970926E+03	2.314137E-17	3.386647E-18
3.980829E+03	2.335386E-17	3.416145E-18
3.990731E+03	2.357508E-17	3.446888E-18
4.000634E+03	2.380520E-17	3.478898E-18
4.010536E+03	2.404364E-17	3.512088E-18
4.020439E+03	2.429074E-17	3.546506E-18
4.030341E+03	2.454606E-17	3.582086E-18
4.040244E+03	2.480936E-17	3.618790E-18
4.050147E+03	2.508075E-17	3.656634E-18
4.060049E+03	2.535956E-17	3.695518E-18
4.069952E+03	2.564607E-17	3.735482E-18
4.079854E+03	2.593959E-17	3.776422E-18
4.089757E+03	2.623995E-17	3.818314E-18
4.099659E+03	2.654704E-17	3.861139E-18
4.109562E+03	2.686025E-17	3.904807E-18
4.119464E+03	2.717941E-17	3.949291E-18
4.129367E+03	2.750408E-17	3.994527E-18
4.139270E+03	2.783361E-17	4.040421E-18
4.149172E+03	2.816796E-17	4.086964E-18
4.159075E+03	2.850620E-17	4.134020E-18
4.168977E+03	2.884826E-17	4.181578E-18
4.178880E+03	2.919311E-17	4.229490E-18
4.188782E+03	2.954043E-17	4.277705E-18
4.198685E+03	2.988960E-17	4.326137E-18
4.208587E+03	3.023950E-17	4.374621E-18
4.218490E+03	3.058995E-17	4.423131E-18
4.228393E+03	3.093999E-17	4.471530E-18
4.238295E+03	3.128870E-17	4.519681E-18
4.248198E+03	3.163502E-17	4.567436E-18
4.258100E+03	3.197844E-17	4.614720E-18
4.268003E+03	3.231819E-17	4.661420E-18
4.277905E+03	3.265263E-17	4.707305E-18
4.287808E+03	3.298149E-17	4.752334E-18
4.297711E+03	3.330310E-17	4.796268E-18
4.307613E+03	3.361715E-17	4.839067E-18
4.317516E+03	3.392228E-17	4.880532E-18
4.327418E+03	3.421794E-17	4.920591E-18
4.337321E+03	3.450365E-17	4.959172E-18
4.347223E+03	3.477898E-17	4.996219E-18
4.357126E+03	3.504380E-17	5.031716E-18
4.367028E+03	3.529854E-17	5.065723E-18
4.376931E+03	3.554373E-17	5.098323E-18
4.386834E+03	3.577972E-17	5.129566E-18
4.396736E+03	3.600714E-17	5.159544E-18
4.406639E+03	3.622616E-17	5.188285E-18
4.416541E+03	3.643787E-17	5.215944E-18
4.426444E+03	3.664244E-17	5.242551E-18
4.436346E+03	3.684046E-17	5.268189E-18
4.446249E+03	3.703249E-17	5.292939E-18
4.456151E+03	3.721910E-17	5.316886E-18
4.466054E+03	3.740091E-17	5.340118E-18
4.475957E+03	3.757851E-17	5.362721E-18
4.485859E+03	3.775188E-17	5.384691E-18
4.495762E+03	3.792229E-17	5.406211E-18
4.505664E+03	3.808971E-17	5.427278E-18
4.515567E+03	3.825471E-17	5.447972E-18
4.525469E+03	3.841759E-17	5.468339E-18
4.535372E+03	3.857929E-17	5.488510E-18
4.545274E+03	3.874005E-17	5.508520E-18
4.555177E+03	3.889978E-17	5.528357E-18
4.565080E+03	3.905972E-17	5.548198E-18
4.574982E+03	3.921977E-17	5.568026E-18
4.584885E+03	3.938011E-17	5.587868E-18
4.594787E+03	3.954162E-17	5.607850E-18
4.604690E+03	3.970488E-17	5.628051E-18
4.614592E+03	3.986931E-17	5.648390E-18
4.624495E+03	4.003613E-17	5.669039E-18
4.634398E+03	4.020553E-17	5.690025E-18
4.644300E+03	4.037763E-17	5.711362E-18
4.654203E+03	4.055290E-17	5.733118E-18
4.664105E+03	4.073148E-17	5.755311E-18
4.674008E+03	4.091384E-17	5.778005E-18
4.683910E+03	4.109931E-17	5.801109E-18
4.693813E+03	4.128837E-17	5.824684E-18
4.703715E+03	4.148145E-17	5.848795E-18
4.713618E+03	4.167745E-17	5.873282E-18
4.723521E+03	4.187719E-17	5.898261E-18
4.733423E+03	4.208030E-17	5.923679E-18
4.743326E+03	4.228639E-17	5.949480E-18
4.753228E+03	4.249624E-17	5.975774E-18
4.763131E+03	4.270865E-17	6.002390E-18
4.773033E+03	4.292478E-17	6.029491E-18
4.782936E+03	4.314337E-17	6.056899E-18
4.792838E+03	4.336516E-17	6.084716E-18
4.802741E+03	4.358926E-17	6.112817E-18
4.812644E+03	4.381642E-17	6.141307E-18
4.822546E+03	4.404566E-17	6.170048E-18
4.832449E+03	4.427730E-17	6.199083E-18
4.842351E+03	4.451120E-17	6.228393E-18
4.852254E+03	4.474678E-17	6.257894E-18
4.862156E+03	4.498387E-17	6.287565E-18
4.872059E+03	4.522226E-17	6.317373E-18
4.881961E+03	4.546219E-17	6.347354E-18
4.891864E+03	4.570257E-17	6.377353E-18
4.901767E+03	4.594406E-17	6.407462E-18
4.911669E+03	4.618547E-17	6.437516E-18
4.921572E+03	4.642698E-17	6.467539E-18
4.931474E+03	4.666783E-17	6.497426E-18
4.941377E+03	4.690771E-17	6.527132E-18
4.951279E+03	4.714623E-17	6.556606E-18
4.961182E+03	4.738350E-17	6.585860E-18
4.971085E+03	4.761818E-17	6.614709E-18
4.980987E+03	4.785031E-17	6.643160E-18
4.990890E+03	4.807895E-17	6.671083E-18
5.000792E+03	4.830408E-17	6.698476E-18
5.010695E+03	4.852472E-17	6.725203E-18
5.020597E+03	4.873984E-17	6.751123E-18
5.030500E+03	4.894933E-17	6.776222E-18
5.040402E+03	4.915258E-17	6.800417E-18
5.050305E+03	4.934850E-17	6.823557E-18
5.060208E+03	4.953591E-17	6.845483E-18
5.070110E+03	4.971510E-17	6.866236E-18
5.080013E+03	4.988441E-17	6.885588E-18
5.089915E+03	5.004308E-17	6.903437E-18
5.099818E+03	5.019036E-17	6.919683E-18
5.109720E+03	5.032550E-17	6.934225E-18
5.119623E+03	5.044723E-17	6.946891E-18
5.129525E+03	5.055526E-17	6.957644E-18
5.139428E+03	5.064782E-17	6.966243E-18
5.149331E+03	5.072463E-17	6.972656E-18
5.159233E+03	5.078392E-17	6.976640E-18
5.169136E+03	5.082596E-17	6.978241E-18
5.179038E+03	5.084902E-17	6.977222E-18
5.188941E+03	5.085292E-17	6.973564E-18
5.198843E+03	5.083603E-17	6.967048E-18
5.208746E+03	5.079824E-17	6.957667E-18
5.218648E+03	5.073904E-17	6.945354E-18
5.228551E+03	5.065696E-17	6.929913E-18
5.238454E+03	5.055167E-17	6.911306E-18
5.248356E+03	5.042337E-17	6.889566E-18
5.258259E+03	5.027143E-17	6.864612E-18
5.268161E+03	5.009528E-17	6.836372E-18
5.278064E+03	4.989500E-17	6.804865E-18
5.287966E+03	4.967082E-17	6.770128E-18
5.297869E+03	4.942308E-17	6.732213E-18
5.307772E+03	4.915180E-17	6.691128E-18
5.317674E+03	4.885814E-17	6.647038E-18
5.327577E+03	4.854240E-17	6.599989E-18
5.337479E+03	4.820604E-17	6.550187E-18
5.347382E+03	4.784968E-17	6.497719E-18
5.357284E+03	4.747550E-17	6.442889E-18
5.367187E+03	4.708534E-17	6.385949E-18
5.377089E+03	4.668022E-17	6.327041E-18
5.386992E+03	4.626309E-17	6.266572E-18
5.396895E+03	4.583562E-17	6.204768E-18
5.406797E+03	4.539770E-17	6.141619E-18
5.416700E+03	4.495253E-17	6.077560E-18
5.426602E+03	4.450107E-17	6.012724E-18
5.436505E+03	4.404443E-17	5.947259E-18
5.446407E+03	4.358419E-17	5.881384E-18
5.456310E+03	4.312185E-17	5.815298E-18
5.466212E+03	4.265885E-17	5.749200E-18
5.476115E+03	4.219754E-17	5.683403E-18
5.486018E+03	4.173932E-17	5.618099E-18
5.495920E+03	4.128682E-17	5.553637E-18
5.505823E+03	4.084210E-17	5.490295E-18
5.515725E+03	4.040668E-17	5.428274E-18
5.525628E+03	3.998278E-17	5.367871E-18
5.535530E+03	3.957207E-17	5.309306E-18
5.545433E+03	3.917606E-17	5.252779E-18
5.555335E+03	3.879647E-17	5.198517E-18
5.565238E+03	3.843453E-17	5.146679E-18
5.575141E+03	3.809125E-17	5.097397E-18
5.585043E+03	3.776792E-17	5.050839E-18
5.594946E+03	3.746530E-17	5.007099E-18
5.604848E+03	3.718432E-17	4.966300E-18
5.614751E+03	3.692547E-17	4.928498E-18
5.624653E+03	3.668906E-17	4.893731E-18
5.634556E+03	3.647570E-17	4.862074E-18
5.644459E+03	3.628546E-17	4.833529E-18
5.654361E+03	3.611836E-17	4.808093E-18
5.664264E+03	3.597466E-17	4.785796E-18
5.674166E+03	3.585422E-17	4.766613E-18
5.684069E+03	3.575716E-17	4.750553E-18
5.693971E+03	3.568285E-17	4.737526E-18
5.703874E+03	3.563167E-17	4.727577E-18
5.713776E+03	3.560289E-17	4.720604E-18
5.723679E+03	3.559610E-17	4.716545E-18
5.733582E+03	3.561164E-17	4.715440E-18
5.743484E+03	3.564832E-17	4.717126E-18
5.753387E+03	3.570646E-17	4.721639E-18
5.763289E+03	3.578560E-17	4.728914E-18
5.773192E+03	3.588533E-17	4.738889E-18
5.783094E+03	3.600477E-17	4.751445E-18
5.792997E+03	3.614431E-17	4.766624E-18
5.802899E+03	3.630309E-17	4.784312E-18
5.812802E+03	3.648108E-17	4.804498E-18
5.822705E+03	3.667787E-17	4.827122E-18
5.832607E+03	3.689264E-17	4.852072E-18
5.842510E+03	3.712538E-17	4.879342E-18
5.852412E+03	3.737608E-17	4.908926E-18
5.862315E+03	3.764353E-17	4.940660E-18
5.872217E+03	3.792772E-17	4.974537E-18
5.882120E+03	3.822826E-17	5.010505E-18
5.892022E+03	3.854516E-17	5.048557E-18
5.901925E+03	3.887717E-17	5.088526E-18
5.911828E+03	3.922476E-17	5.130470E-18
5.921730E+03	3.958661E-17	5.174213E-18
5.931633E+03	3.996277E-17	5.219758E-18
5.941535E+03	4.035286E-17	5.267048E-18
5.951438E+03	4.075599E-17	5.315967E-18
5.961340E+03	4.117221E-17	5.366518E-18
5.971243E+03	4.160019E-17	5.418522E-18
5.981146E+03	4.204050E-17	5.472050E-18
5.991048E+03	4.249126E-17	5.526856E-18
6.000951E+03	4.295308E-17	5.583017E-18
6.010853E+03	4.342458E-17	5.640349E-18
6.020756E+03	4.390588E-17	5.698867E-18
6.030658E+03	4.439562E-17	5.758390E-18
6.040561E+03	4.489337E-17	5.818862E-18
6.050463E+03	4.539825E-17	5.880165E-18
6.060366E+03	4.590987E-17	5.942249E-18
6.070269E+03	4.642668E-17	6.004911E-18
6.080171E+03	4.694766E-17	6.068017E-18
6.090074E+03	4.747227E-17	6.131499E-18
6.099976E+03	4.799936E-17	6.195204E-18
6.109879E+03	4.852645E-17	6.258815E-18
6.119781E+03	4.905272E-17	6.322225E-18
6.129684E+03	4.957665E-17	6.385240E-18
6.139586E+03	5.009733E-17	6.447743E-18
6.149489E+03	5.061454E-17	6.509707E-18
6.159392E+03	5.112807E-17	6.571107E-18
6.169294E+03	5.163829E-17	6.631990E-18
6.179197E+03	5.214694E-17	6.692584E-18
6.189099E+03	5.265388E-17	6.752869E-18
6.199002E+03	5.315820E-17	6.812731E-18
6.208904E+03	5.366181E-17	6.872414E-18
6.218807E+03	5.416464E-17	6.931913E-18
6.228709E+03	5.466521E-17	6.991035E-18
6.238612E+03	5.516569E-17	7.050061E-18
6.248515E+03	5.566394E-17	7.108716E-18
6.258417E+03	5.616161E-17	7.167212E-18
6.268320E+03	5.665735E-17	7.225378E-18
6.278222E+03	5.715144E-17	7.283249E-18
6.288125E+03	5.764341E-17	7.340768E-18
6.298027E+03	5.813283E-17	7.397879E-18
6.307930E+03	5.861931E-17	7.454534E-18
6.317833E+03	5.910168E-17	7.510585E-18
6.327735E+03	5.957872E-17	7.565880E-18
6.337638E+03	6.005094E-17	7.620482E-18
6.347540E+03	6.051628E-17	7.674135E-18
6.357443E+03	6.097529E-17	7.726909E-18
6.367345E+03	6.142680E-17	7.778659E-18
6.377248E+03	6.187049E-17	7.829346E-18
6.387150E+03	6.230704E-17	7.879057E-18
6.397053E+03	6.273807E-17	7.928001E-18
6.406956E+03	6.316346E-17	7.976164E-18
6.416858E+03	6.358408E-17	8.023657E-18
6.426761E+03	6.400082E-17	8.070597E-18
6.436663E+03	6.441273E-17	8.116861E-18
6.446566E+03	6.482174E-17	8.162697E-18
6.456468E+03	6.522795E-17	8.208117E-18
6.466371E+03	6.563038E-17	8.253000E-18
6.476273E+03	6.603113E-17	8.297611E-18
6.486176E+03	6.642927E-17	8.341834E-18
6.496079E+03	6.682384E-17	8.385550E-18
6.505981E+03	6.721699E-17	8.429031E-18
6.515884E+03	6.760776E-17	8.472154E-18
6.525786E+03	6.799621E-17	8.514932E-18
6.535689E+03	6.838351E-17	8.557511E-18
6.545591E+03	6.876750E-17	8.599621E-18
6.555494E+03	6.914819E-17	8.641265E-18
6.565396E+03	6.952783E-17	8.682726E-18
6.575299E+03	6.990415E-17	8.723722E-18
6.585202E+03	7.027712E-17	8.764251E-18
6.595104E+03	7.064786E-17	8.804452E-18
6.605007E+03	7.101511E-17	8.844170E-18
6.614909E+03	7.137875E-17	8.883394E-18
6.624812E+03	7.173992E-17	8.922265E-18
6.634714E+03	7.209602E-17	8.960463E-18
6.644617E+03	7.244684E-17	8.997962E-18
6.654520E+03	7.279469E-17	9.035051E-18
6.664422E+03	7.313685E-17	9.071398E-18
6.674325E+03	7.347307E-17	9.106970E-18
6.684227E+03	7.380438E-17	9.141899E-18
6.694130E+03	7.412919E-17	9.175990E-18
6.704032E+03	7.444721E-17	9.209209E-18
6.713935E+03	7.475812E-17	9.241520E-18
6.723837E+03	7.506159E-17	9.272885E-18
6.733740E+03	7.535593E-17	9.303097E-18
6.743643E+03	7.564214E-17	9.332283E-18
6.753545E+03	7.591983E-17	9.360399E-18
6.763448E+03	7.618729E-17	9.387238E-18
6.773350E+03	7.644555E-17	9.412927E-18
6.783253E+03	7.669282E-17	9.437252E-18
6.793155E+03	7.692873E-17	9.460171E-18
6.803058E+03	7.715295E-17	9.481645E-18
6.812960E+03	7.736364E-17	9.501455E-18
6.822863E+03	7.756336E-17	9.519919E-18
6.832766E+03	7.775037E-17	9.536825E-18
6.842668E+03	7.792286E-17	9.551957E-18
6.852571E+03	7.808204E-17	9.565467E-18
6.862473E+03	7.822614E-17	9.577143E-18
6.872376E+03	7.835493E-17	9.586962E-18
6.882278E+03	7.846968E-17	9.595083E-18
6.892181E+03	7.856871E-17	9.601305E-18
6.902083E+03	7.865190E-17	9.605619E-18
6.911986E+03	7.871910E-17	9.608012E-18
6.921889E+03	7.877028E-17	9.608482E-18
6.931791E+03	7.880385E-17	9.606843E-18
6.941694E+03	7.882291E-17	9.603476E-18
6.951596E+03	7.882445E-17	9.598020E-18
6.961499E+03	7.880858E-17	9.590491E-18
6.971401E+03	7.877699E-17	9.581102E-18
6.981304E+03	7.872836E-17	9.569696E-18
6.991207E+03	7.866296E-17	9.556309E-18
7.001109E+03	7.858108E-17	9.540983E-18
7.011012E+03	7.848311E-17	9.523769E-18
7.020914E+03	7.837103E-17	9.504911E-18
7.030817E+03	7.824222E-17	9.484094E-18
7.040719E+03	7.809715E-17	9.461382E-18
7.050622E+03	7.793800E-17	9.437042E-18
7.060524E+03	7.776540E-17	9.411153E-18
7.070427E+03	7.757841E-17	9.383606E-18
7.080330E+03	7.737937E-17	9.354686E-18
7.090232E+03	7.716584E-17	9.324103E-18
7.100135E+03	7.694178E-17	9.292337E-18
7.110037E+03	7.670642E-17	9.259298E-18
7.119940E+03	7.646060E-17	9.225092E-18
7.129842E+03	7.620363E-17	9.189637E-18
7.139745E+03	7.593954E-17	9.153421E-18
7.149647E+03	7.566609E-17	9.116177E-18
7.159550E+03	7.538578E-17	9.078207E-18
7.169453E+03	7.509795E-17	9.039435E-18
7.179355E+03	7.480515E-17	9.000166E-18
7.189258E+03	7.450672E-17	8.960327E-18
7.199160E+03	7.420363E-17	8.920033E-18
7.209063E+03	7.389841E-17	8.879589E-18
7.218965E+03	7.359044E-17	8.838923E-18
7.228868E+03	7.328229E-17	8.798342E-18
7.238770E+03	7.297178E-17	8.757587E-18
7.248673E+03	7.266146E-17	8.716963E-18
7.258576E+03	7.235390E-17	8.676781E-18
7.268478E+03	7.204699E-17	8.636785E-18
7.278381E+03	7.174330E-17	8.597285E-18
7.288283E+03	7.144230E-17	8.558218E-18
7.298186E+03	7.114657E-17	8.519891E-18
7.308088E+03	7.085562E-17	8.482246E-18
7.317991E+03	7.057045E-17	8.445403E-18
7.327894E+03	7.029211E-17	8.409487E-18
7.337796E+03	7.001999E-17	8.374424E-18
7.347699E+03	6.975503E-17	8.340328E-18
7.357601E+03	6.949808E-17	8.307297E-18
7.367504E+03	6.924984E-17	8.275418E-18
7.377406E+03	6.901247E-17	8.244945E-18
7.387309E+03	6.878476E-17	8.215736E-18
7.397211E+03	6.856996E-17	8.188177E-18
7.407114E+03	6.836799E-17	8.162258E-18
7.417017E+03	6.817847E-17	8.137932E-18
7.426919E+03	6.800082E-17	8.115130E-18
7.436822E+03	6.783425E-17	8.093753E-18
7.446724E+03	6.768177E-17	8.074159E-18
7.456627E+03	6.754130E-17	8.056095E-18
7.466529E+03	6.741525E-17	8.039849E-18
7.476432E+03	6.730424E-17	8.025491E-18
7.486334E+03	6.721019E-17	8.013247E-18
7.496237E+03	6.713007E-17	8.002756E-18
7.506140E+03	6.706531E-17	7.994184E-18
7.516042E+03	6.701554E-17	7.987487E-18
7.525945E+03	6.698184E-17	7.982790E-18
7.535847E+03	6.696046E-17	7.979645E-18
7.545750E+03	6.695381E-17	7.978339E-18
7.555652E+03	6.695955E-17	7.978591E-18
7.565555E+03	6.697527E-17	7.980113E-18
7.575457E+03	6.700334E-17	7.983186E-18
7.585360E+03	6.704131E-17	7.987516E-18
7.595263E+03	6.708834E-17	7.993004E-18
7.605165E+03	6.714363E-17	7.999552E-18
7.615068E+03	6.720631E-17	8.007058E-18
7.624970E+03	6.727563E-17	8.015429E-18
7.634873E+03	6.735241E-17	8.024764E-18
7.644775E+03	6.743262E-17	8.034581E-18
7.654678E+03	6.751880E-17	8.045183E-18
7.664581E+03	6.760860E-17	8.056289E-18
7.674483E+03	6.770130E-17	8.067812E-18
7.684386E+03	6.779619E-17	8.079668E-18
