#wls	flux	fluxerr
1.584409E+03	1.654536E-16	5.428265E-17
1.624020E+03	1.717658E-16	5.635268E-17
1.663630E+03	1.774149E-16	5.820508E-17
1.703240E+03	1.822939E-16	5.980473E-17
1.742850E+03	1.862735E-16	6.110924E-17
1.782461E+03	1.891797E-16	6.206152E-17
1.822071E+03	1.907769E-16	6.258432E-17
1.861681E+03	1.908468E-16	6.260607E-17
1.901291E+03	1.891591E-16	6.205120E-17
1.940902E+03	1.855315E-16	6.085997E-17
1.980512E+03	1.799830E-16	5.903864E-17
2.020122E+03	1.728291E-16	5.669077E-17
2.059732E+03	1.648533E-16	5.407335E-17
2.099342E+03	1.572742E-16	5.158614E-17
2.138953E+03	1.512670E-16	4.961459E-17
2.178563E+03	1.474329E-16	4.835585E-17
2.218173E+03	1.454477E-16	4.770352E-17
2.257783E+03	1.442647E-16	4.731429E-17
2.297394E+03	1.428999E-16	4.686542E-17
2.337004E+03	1.406374E-16	4.612216E-17
2.376614E+03	1.371144E-16	4.496548E-17
2.416224E+03	1.322639E-16	4.337355E-17
2.455835E+03	1.262130E-16	4.138799E-17
2.495445E+03	1.191764E-16	3.907932E-17
2.535055E+03	1.113926E-16	3.652575E-17
2.574665E+03	1.031077E-16	3.380802E-17
2.614276E+03	9.454760E-17	3.100018E-17
2.653886E+03	8.591303E-17	2.816810E-17
2.693496E+03	7.737827E-17	2.536891E-17
2.733106E+03	6.909561E-17	2.265255E-17
2.772716E+03	6.118093E-17	2.005700E-17
2.812327E+03	5.372930E-17	1.761343E-17
2.851937E+03	4.681736E-17	1.534695E-17
2.891547E+03	4.049927E-17	1.327530E-17
2.931157E+03	3.480976E-17	1.140984E-17
2.970768E+03	2.975899E-17	9.753877E-18
2.980670E+03	2.859472E-17	9.372167E-18
2.990573E+03	2.746911E-17	9.003136E-18
3.000475E+03	2.638212E-17	8.646773E-18
3.010378E+03	2.533298E-17	8.302821E-18
3.020280E+03	2.432092E-17	7.971028E-18
3.030183E+03	2.334566E-17	7.651304E-18
3.040086E+03	2.240610E-17	7.343284E-18
3.049988E+03	2.150319E-17	7.047284E-18
3.059891E+03	2.063623E-17	6.763072E-18
3.069793E+03	1.980426E-17	6.490336E-18
3.079696E+03	1.900592E-17	6.228626E-18
3.089598E+03	1.824031E-17	5.977645E-18
3.099501E+03	1.750618E-17	5.736988E-18
3.109403E+03	1.680235E-17	5.506267E-18
3.119306E+03	1.612802E-17	5.285219E-18
3.129209E+03	1.548180E-17	5.073386E-18
3.139111E+03	1.486323E-17	4.870617E-18
3.149014E+03	1.427098E-17	4.676481E-18
3.158916E+03	1.370435E-17	4.490742E-18
3.168819E+03	1.316238E-17	4.313090E-18
3.178721E+03	1.264411E-17	4.143208E-18
3.188624E+03	1.214889E-17	3.980884E-18
3.198526E+03	1.167582E-17	3.825819E-18
3.208429E+03	1.122384E-17	3.677669E-18
3.218332E+03	1.079268E-17	3.536346E-18
3.228234E+03	1.038098E-17	3.401403E-18
3.238137E+03	9.988471E-18	3.272750E-18
3.248039E+03	9.614046E-18	3.150026E-18
3.257942E+03	9.257124E-18	3.033039E-18
3.267844E+03	8.917116E-18	2.921597E-18
3.277747E+03	8.593046E-18	2.815380E-18
3.287650E+03	8.284504E-18	2.714252E-18
3.297552E+03	7.990818E-18	2.617995E-18
3.307455E+03	7.711236E-18	2.526361E-18
3.317357E+03	7.445152E-18	2.439151E-18
3.327260E+03	7.191985E-18	2.356176E-18
3.337162E+03	6.951269E-18	2.277281E-18
3.347065E+03	6.722270E-18	2.202227E-18
3.356967E+03	6.504653E-18	2.130904E-18
3.366870E+03	6.297745E-18	2.063091E-18
3.376773E+03	6.101078E-18	1.998634E-18
3.386675E+03	5.914279E-18	1.937412E-18
3.396578E+03	5.736694E-18	1.879210E-18
3.406480E+03	5.568064E-18	1.823943E-18
3.416383E+03	5.407929E-18	1.771460E-18
3.426285E+03	5.255731E-18	1.721578E-18
3.436188E+03	5.111256E-18	1.674228E-18
3.446090E+03	4.974001E-18	1.629243E-18
3.455993E+03	4.843666E-18	1.586526E-18
3.465896E+03	4.719914E-18	1.545967E-18
3.475798E+03	4.602270E-18	1.507410E-18
3.485701E+03	4.490500E-18	1.470777E-18
3.495603E+03	4.384239E-18	1.435950E-18
3.505506E+03	4.283147E-18	1.402817E-18
3.515408E+03	4.186954E-18	1.371289E-18
3.525311E+03	4.095324E-18	1.341257E-18
3.535213E+03	4.007991E-18	1.312632E-18
3.545116E+03	3.924665E-18	1.285321E-18
3.555019E+03	3.845156E-18	1.259261E-18
3.564921E+03	3.769248E-18	1.234380E-18
3.574824E+03	3.696700E-18	1.210601E-18
3.584726E+03	3.627360E-18	1.187873E-18
3.594629E+03	3.561082E-18	1.166148E-18
3.604531E+03	3.497659E-18	1.145359E-18
3.614434E+03	3.437059E-18	1.125495E-18
3.624337E+03	3.379086E-18	1.106491E-18
3.634239E+03	3.323678E-18	1.088328E-18
3.644142E+03	3.270742E-18	1.070975E-18
3.654044E+03	3.220187E-18	1.054402E-18
3.663947E+03	3.171949E-18	1.038589E-18
3.673849E+03	3.125994E-18	1.023523E-18
3.683752E+03	3.082175E-18	1.009157E-18
3.693654E+03	3.040512E-18	9.954966E-19
3.703557E+03	3.000886E-18	9.825042E-19
3.713460E+03	2.963261E-18	9.701674E-19
3.723362E+03	2.927602E-18	9.584745E-19
3.733265E+03	2.893795E-18	9.473881E-19
3.743167E+03	2.861851E-18	9.369121E-19
3.753070E+03	2.831689E-18	9.270194E-19
3.762972E+03	2.803267E-18	9.176970E-19
3.772875E+03	2.776529E-18	9.089258E-19
3.782777E+03	2.751438E-18	9.006943E-19
3.792680E+03	2.727940E-18	8.929844E-19
3.802583E+03	2.705999E-18	8.857840E-19
3.812485E+03	2.685560E-18	8.790759E-19
3.822388E+03	2.666615E-18	8.728566E-19
3.832290E+03	2.649110E-18	8.671091E-19
3.842193E+03	2.632994E-18	8.618161E-19
3.852095E+03	2.618239E-18	8.569687E-19
3.861998E+03	2.604795E-18	8.525507E-19
3.871900E+03	2.592658E-18	8.485604E-19
3.881803E+03	2.581780E-18	8.449822E-19
3.891706E+03	2.572137E-18	8.418081E-19
3.901608E+03	2.563686E-18	8.390243E-19
3.911511E+03	2.556383E-18	8.366161E-19
3.921413E+03	2.550245E-18	8.345892E-19
3.931316E+03	2.545194E-18	8.329177E-19
3.941218E+03	2.541228E-18	8.316015E-19
3.951121E+03	2.538308E-18	8.306277E-19
3.961024E+03	2.536417E-18	8.299900E-19
3.970926E+03	2.535537E-18	8.296836E-19
3.980829E+03	2.535612E-18	8.296892E-19
3.990731E+03	2.536647E-18	8.300090E-19
4.000634E+03	2.538606E-18	8.306307E-19
4.010536E+03	2.541476E-18	8.315507E-19
4.020439E+03	2.545225E-18	8.327578E-19
4.030341E+03	2.549819E-18	8.342414E-19
4.040244E+03	2.555267E-18	8.360040E-19
4.050147E+03	2.561518E-18	8.380294E-19
4.060049E+03	2.568563E-18	8.403142E-19
4.069952E+03	2.576393E-18	8.428555E-19
4.079854E+03	2.584959E-18	8.456372E-19
4.089757E+03	2.594272E-18	8.486632E-19
4.099659E+03	2.604285E-18	8.519180E-19
4.109562E+03	2.614993E-18	8.553997E-19
4.119464E+03	2.626388E-18	8.591059E-19
4.129367E+03	2.638424E-18	8.630213E-19
4.139270E+03	2.651118E-18	8.671514E-19
4.149172E+03	2.664403E-18	8.714747E-19
4.159075E+03	2.678316E-18	8.760032E-19
4.168977E+03	2.692792E-18	8.807150E-19
4.178880E+03	2.707827E-18	8.856096E-19
4.188782E+03	2.723399E-18	8.906793E-19
4.198685E+03	2.739503E-18	8.959226E-19
4.208587E+03	2.756076E-18	9.013191E-19
4.218490E+03	2.773135E-18	9.068736E-19
4.228393E+03	2.790637E-18	9.125730E-19
4.238295E+03	2.808537E-18	9.184015E-19
4.248198E+03	2.826830E-18	9.243586E-19
4.258100E+03	2.845496E-18	9.304368E-19
4.268003E+03	2.864464E-18	9.366134E-19
4.277905E+03	2.883708E-18	9.428797E-19
4.287808E+03	2.903203E-18	9.492278E-19
4.297711E+03	2.922923E-18	9.556487E-19
4.307613E+03	2.942841E-18	9.621339E-19
4.317516E+03	2.962952E-18	9.686814E-19
4.327418E+03	2.983230E-18	9.752830E-19
4.337321E+03	3.003645E-18	9.819292E-19
4.347223E+03	3.024243E-18	9.886345E-19
4.357126E+03	3.044996E-18	9.953896E-19
4.367028E+03	3.065901E-18	1.002194E-18
4.376931E+03	3.086983E-18	1.009056E-18
4.386834E+03	3.108238E-18	1.015973E-18
4.396736E+03	3.129645E-18	1.022940E-18
4.406639E+03	3.151227E-18	1.029963E-18
4.416541E+03	3.172963E-18	1.037036E-18
4.426444E+03	3.194853E-18	1.044159E-18
4.436346E+03	3.216901E-18	1.051333E-18
4.446249E+03	3.239059E-18	1.058542E-18
4.456151E+03	3.261359E-18	1.065797E-18
4.466054E+03	3.283781E-18	1.073091E-18
4.475957E+03	3.306305E-18	1.080417E-18
4.485859E+03	3.328940E-18	1.087779E-18
4.495762E+03	3.351638E-18	1.095162E-18
4.505664E+03	3.374412E-18	1.102568E-18
4.515567E+03	3.397274E-18	1.110002E-18
4.525469E+03	3.420208E-18	1.117459E-18
4.535372E+03	3.443170E-18	1.124925E-18
4.545274E+03	3.466179E-18	1.132405E-18
4.555177E+03	3.489217E-18	1.139894E-18
4.565080E+03	3.512278E-18	1.147390E-18
4.574982E+03	3.535378E-18	1.154897E-18
4.584885E+03	3.558479E-18	1.162405E-18
4.594787E+03	3.581601E-18	1.169918E-18
4.604690E+03	3.604738E-18	1.177435E-18
4.614592E+03	3.627882E-18	1.184955E-18
4.624495E+03	3.651028E-18	1.192474E-18
4.634398E+03	3.674173E-18	1.199991E-18
4.644300E+03	3.697310E-18	1.207505E-18
4.654203E+03	3.720502E-18	1.215037E-18
4.664105E+03	3.743748E-18	1.222586E-18
4.674008E+03	3.767049E-18	1.230151E-18
4.683910E+03	3.790472E-18	1.237756E-18
4.693813E+03	3.813987E-18	1.245389E-18
4.703715E+03	3.837596E-18	1.253053E-18
4.713618E+03	3.861339E-18	1.260759E-18
4.723521E+03	3.885220E-18	1.268510E-18
4.733423E+03	3.909210E-18	1.276295E-18
4.743326E+03	3.933352E-18	1.284130E-18
4.753228E+03	3.957654E-18	1.292015E-18
4.763131E+03	3.982086E-18	1.299942E-18
4.773033E+03	4.006694E-18	1.307925E-18
4.782936E+03	4.031486E-18	1.315968E-18
4.792838E+03	4.056474E-18	1.324074E-18
4.802741E+03	4.081669E-18	1.332246E-18
4.812644E+03	4.107043E-18	1.340476E-18
4.822546E+03	4.132683E-18	1.348791E-18
4.832449E+03	4.158526E-18	1.357172E-18
4.842351E+03	4.184583E-18	1.365622E-18
4.852254E+03	4.210904E-18	1.374156E-18
4.862156E+03	4.237502E-18	1.382780E-18
4.872059E+03	4.264392E-18	1.391499E-18
4.881961E+03	4.291505E-18	1.400289E-18
4.891864E+03	4.318933E-18	1.409181E-18
4.901767E+03	4.346649E-18	1.418165E-18
4.911669E+03	4.374663E-18	1.427246E-18
4.921572E+03	4.402987E-18	1.436427E-18
4.931474E+03	4.431632E-18	1.445711E-18
4.941377E+03	4.460566E-18	1.455088E-18
4.951279E+03	4.489797E-18	1.464561E-18
4.961182E+03	4.519378E-18	1.474147E-18
4.971085E+03	4.549270E-18	1.483833E-18
4.980987E+03	4.579438E-18	1.493609E-18
4.990890E+03	4.609975E-18	1.503503E-18
5.000792E+03	4.640753E-18	1.513474E-18
5.010695E+03	4.671862E-18	1.523552E-18
5.020597E+03	4.703306E-18	1.533738E-18
5.030500E+03	4.734950E-18	1.543988E-18
5.040402E+03	4.766930E-18	1.554346E-18
5.050305E+03	4.799154E-18	1.564782E-18
5.060208E+03	4.831619E-18	1.575295E-18
5.070110E+03	4.864366E-18	1.585899E-18
5.080013E+03	4.897298E-18	1.596562E-18
5.089915E+03	4.930410E-18	1.607282E-18
5.099818E+03	4.963740E-18	1.618071E-18
5.109720E+03	4.997231E-18	1.628911E-18
5.119623E+03	5.030877E-18	1.639801E-18
5.129525E+03	5.064615E-18	1.650719E-18
5.139428E+03	5.098482E-18	1.661677E-18
5.149331E+03	5.132367E-18	1.672640E-18
5.159233E+03	5.166353E-18	1.683634E-18
5.169136E+03	5.200375E-18	1.694638E-18
5.179038E+03	5.234364E-18	1.705630E-18
5.188941E+03	5.268301E-18	1.716604E-18
5.198843E+03	5.302216E-18	1.727568E-18
5.208746E+03	5.335985E-18	1.738484E-18
5.218648E+03	5.369638E-18	1.749359E-18
5.228551E+03	5.403201E-18	1.760204E-18
5.238454E+03	5.436490E-18	1.770958E-18
5.248356E+03	5.469640E-18	1.781665E-18
5.258259E+03	5.502459E-18	1.792263E-18
5.268161E+03	5.535086E-18	1.802796E-18
5.278064E+03	5.567324E-18	1.813201E-18
5.287966E+03	5.599254E-18	1.823504E-18
5.297869E+03	5.630849E-18	1.833697E-18
5.307772E+03	5.662020E-18	1.843749E-18
5.317674E+03	5.692852E-18	1.853689E-18
5.327577E+03	5.723146E-18	1.863453E-18
5.337479E+03	5.753041E-18	1.873085E-18
5.347382E+03	5.782453E-18	1.882558E-18
5.357284E+03	5.811354E-18	1.891863E-18
5.367187E+03	5.839715E-18	1.900991E-18
5.377089E+03	5.867512E-18	1.909933E-18
5.386992E+03	5.894655E-18	1.918661E-18
5.396895E+03	5.921121E-18	1.927166E-18
5.406797E+03	5.946880E-18	1.935441E-18
5.416700E+03	5.971908E-18	1.943475E-18
5.426602E+03	5.996119E-18	1.951243E-18
5.436505E+03	6.019428E-18	1.958715E-18
5.446407E+03	6.041867E-18	1.965902E-18
5.456310E+03	6.063353E-18	1.972778E-18
5.466212E+03	6.083796E-18	1.979313E-18
5.476115E+03	6.103111E-18	1.985479E-18
5.486018E+03	6.121336E-18	1.991290E-18
5.495920E+03	6.138318E-18	1.996695E-18
5.505823E+03	6.154100E-18	2.001708E-18
5.515725E+03	6.168529E-18	2.006280E-18
5.525628E+03	6.181586E-18	2.010404E-18
5.535530E+03	6.193310E-18	2.014093E-18
5.545433E+03	6.203553E-18	2.017300E-18
5.555335E+03	6.212362E-18	2.020040E-18
5.565238E+03	6.219716E-18	2.022305E-18
5.575141E+03	6.225538E-18	2.024071E-18
5.585043E+03	6.229815E-18	2.025334E-18
5.594946E+03	6.232598E-18	2.026110E-18
5.604848E+03	6.233877E-18	2.026396E-18
5.614751E+03	6.233584E-18	2.026171E-18
5.624653E+03	6.231780E-18	2.025454E-18
5.634556E+03	6.228527E-18	2.024265E-18
5.644459E+03	6.223700E-18	2.022564E-18
5.654361E+03	6.217368E-18	2.020374E-18
5.664264E+03	6.209605E-18	2.017718E-18
5.674166E+03	6.200424E-18	2.014601E-18
5.684069E+03	6.189839E-18	2.011028E-18
5.693971E+03	6.177869E-18	2.007004E-18
5.703874E+03	6.164534E-18	2.002536E-18
5.713776E+03	6.149925E-18	1.997655E-18
5.723679E+03	6.134003E-18	1.992347E-18
5.733582E+03	6.116932E-18	1.986666E-18
5.743484E+03	6.098676E-18	1.980600E-18
5.753387E+03	6.079276E-18	1.974162E-18
5.763289E+03	6.058900E-18	1.967408E-18
5.773192E+03	6.037461E-18	1.960309E-18
5.783094E+03	6.015069E-18	1.952900E-18
5.792997E+03	5.991836E-18	1.945220E-18
5.802899E+03	5.967751E-18	1.937262E-18
5.812802E+03	5.942926E-18	1.929065E-18
5.822705E+03	5.917356E-18	1.920626E-18
5.832607E+03	5.891227E-18	1.912006E-18
5.842510E+03	5.864532E-18	1.903204E-18
5.852412E+03	5.837328E-18	1.894236E-18
5.862315E+03	5.809744E-18	1.885146E-18
5.872217E+03	5.781776E-18	1.875932E-18
5.882120E+03	5.753548E-18	1.866634E-18
5.892022E+03	5.725059E-18	1.857251E-18
5.901925E+03	5.696432E-18	1.847825E-18
5.911828E+03	5.667729E-18	1.838375E-18
5.921730E+03	5.639010E-18	1.828921E-18
5.931633E+03	5.610266E-18	1.819459E-18
5.941535E+03	5.581617E-18	1.810028E-18
5.951438E+03	5.553121E-18	1.800648E-18
5.961340E+03	5.524763E-18	1.791313E-18
5.971243E+03	5.496658E-18	1.782061E-18
5.981146E+03	5.468791E-18	1.772887E-18
5.991048E+03	5.441146E-18	1.763785E-18
6.000951E+03	5.413891E-18	1.754811E-18
6.010853E+03	5.386944E-18	1.745937E-18
6.020756E+03	5.360405E-18	1.737196E-18
6.030658E+03	5.334183E-18	1.728559E-18
6.040561E+03	5.308378E-18	1.720057E-18
6.050463E+03	5.282956E-18	1.711680E-18
6.060366E+03	5.257949E-18	1.703438E-18
6.070269E+03	5.233383E-18	1.695340E-18
6.080171E+03	5.209218E-18	1.687372E-18
6.090074E+03	5.185479E-18	1.679543E-18
6.099976E+03	5.162183E-18	1.671857E-18
6.109879E+03	5.139352E-18	1.664323E-18
6.119781E+03	5.117001E-18	1.656945E-18
6.129684E+03	5.095076E-18	1.649705E-18
6.139586E+03	5.073657E-18	1.642630E-18
6.149489E+03	5.052754E-18	1.635723E-18
6.159392E+03	5.032373E-18	1.628984E-18
6.169294E+03	5.012585E-18	1.622438E-18
6.179197E+03	4.993464E-18	1.616109E-18
6.189099E+03	4.975077E-18	1.610017E-18
6.199002E+03	4.957493E-18	1.604185E-18
6.208904E+03	4.940780E-18	1.598636E-18
6.218807E+03	4.925074E-18	1.593413E-18
6.228709E+03	4.910306E-18	1.588494E-18
6.238612E+03	4.896747E-18	1.583966E-18
6.248515E+03	4.884332E-18	1.579807E-18
6.258417E+03	4.873196E-18	1.576063E-18
6.268320E+03	4.863411E-18	1.572755E-18
6.278222E+03	4.855046E-18	1.569907E-18
6.288125E+03	4.848106E-18	1.567519E-18
6.298027E+03	4.842663E-18	1.565615E-18
6.307930E+03	4.838794E-18	1.564220E-18
6.317833E+03	4.836503E-18	1.563334E-18
6.327735E+03	4.835800E-18	1.562960E-18
6.337638E+03	4.836762E-18	1.563124E-18
6.347540E+03	4.839258E-18	1.563784E-18
6.357443E+03	4.843294E-18	1.564940E-18
6.367345E+03	4.848809E-18	1.566573E-18
6.377248E+03	4.855665E-18	1.568638E-18
6.387150E+03	4.863939E-18	1.571160E-18
6.397053E+03	4.873491E-18	1.574094E-18
6.406956E+03	4.884400E-18	1.577465E-18
6.416858E+03	4.896672E-18	1.581274E-18
6.426761E+03	4.910238E-18	1.585500E-18
6.436663E+03	4.925105E-18	1.590145E-18
6.446566E+03	4.941275E-18	1.595208E-18
6.456468E+03	4.958758E-18	1.600694E-18
6.466371E+03	4.977557E-18	1.606603E-18
6.476273E+03	4.997760E-18	1.612963E-18
6.486176E+03	5.019293E-18	1.619750E-18
6.496079E+03	5.042087E-18	1.626942E-18
6.505981E+03	5.066306E-18	1.634591E-18
6.515884E+03	5.091800E-18	1.642650E-18
6.525786E+03	5.118655E-18	1.651146E-18
6.535689E+03	5.146884E-18	1.660081E-18
6.545591E+03	5.176491E-18	1.669459E-18
6.555494E+03	5.207489E-18	1.679283E-18
6.565396E+03	5.239802E-18	1.689529E-18
6.575299E+03	5.273523E-18	1.700225E-18
6.585202E+03	5.308576E-18	1.711347E-18
6.595104E+03	5.345059E-18	1.722928E-18
6.605007E+03	5.382892E-18	1.734940E-18
6.614909E+03	5.422086E-18	1.747388E-18
6.624812E+03	5.462742E-18	1.760304E-18
6.634714E+03	5.504874E-18	1.773692E-18
6.644617E+03	5.548303E-18	1.787494E-18
6.654520E+03	5.593233E-18	1.801775E-18
6.664422E+03	5.639478E-18	1.816477E-18
6.674325E+03	5.687248E-18	1.831666E-18
6.684227E+03	5.736457E-18	1.847314E-18
6.694130E+03	5.787014E-18	1.863391E-18
6.704032E+03	5.839133E-18	1.879968E-18
6.713935E+03	5.892624E-18	1.896982E-18
6.723837E+03	5.947601E-18	1.914470E-18
6.733740E+03	6.004076E-18	1.932435E-18
6.743643E+03	6.062062E-18	1.950881E-18
6.753545E+03	6.121466E-18	1.969780E-18
6.763448E+03	6.182403E-18	1.989166E-18
6.773350E+03	6.244781E-18	2.009011E-18
6.783253E+03	6.308718E-18	2.029352E-18
6.793155E+03	6.374115E-18	2.050157E-18
6.803058E+03	6.440980E-18	2.071429E-18
6.812960E+03	6.509444E-18	2.093209E-18
6.822863E+03	6.579277E-18	2.115424E-18
6.832766E+03	6.650729E-18	2.138153E-18
6.842668E+03	6.723689E-18	2.161361E-18
6.852571E+03	6.798170E-18	2.185052E-18
6.862473E+03	6.874175E-18	2.209226E-18
6.872376E+03	6.951716E-18	2.233888E-18
6.882278E+03	7.030667E-18	2.258996E-18
6.892181E+03	7.111166E-18	2.284595E-18
6.902083E+03	7.193222E-18	2.310686E-18
6.911986E+03	7.276841E-18	2.337273E-18
6.921889E+03	7.361746E-18	2.364266E-18
6.931791E+03	7.448365E-18	2.391802E-18
6.941694E+03	7.536272E-18	2.419745E-18
6.951596E+03	7.625756E-18	2.448186E-18
6.961499E+03	7.716673E-18	2.477079E-18
6.971401E+03	7.809021E-18	2.506424E-18
6.981304E+03	7.902797E-18	2.536220E-18
6.991207E+03	7.997998E-18	2.566464E-18
7.001109E+03	8.094461E-18	2.597106E-18
7.011012E+03	8.192337E-18	2.628192E-18
7.020914E+03	8.291622E-18	2.659722E-18
7.030817E+03	8.392140E-18	2.691639E-18
7.040719E+03	8.494052E-18	2.723995E-18
7.050622E+03	8.597171E-18	2.756729E-18
7.060524E+03	8.701483E-18	2.789836E-18
7.070427E+03	8.806973E-18	2.823312E-18
7.080330E+03	8.913804E-18	2.857209E-18
7.090232E+03	9.021593E-18	2.891404E-18
7.100135E+03	9.130310E-18	2.925886E-18
7.110037E+03	9.240309E-18	2.960770E-18
7.119940E+03	9.351188E-18	2.995927E-18
7.129842E+03	9.462912E-18	3.031345E-18
7.139745E+03	9.575647E-18	3.067076E-18
7.149647E+03	9.689162E-18	3.103048E-18
7.159550E+03	9.803422E-18	3.139249E-18
7.169453E+03	9.918384E-18	3.175665E-18
7.179355E+03	1.003401E-17	3.212283E-18
7.189258E+03	1.015048E-17	3.249160E-18
7.199160E+03	1.026731E-17	3.286143E-18
7.209063E+03	1.038490E-17	3.323359E-18
7.218965E+03	1.050298E-17	3.360723E-18
7.228868E+03	1.062150E-17	3.398219E-18
7.238770E+03	1.074067E-17	3.435907E-18
7.248673E+03	1.086018E-17	3.473698E-18
7.258576E+03	1.098024E-17	3.511653E-18
7.268478E+03	1.110080E-17	3.549759E-18
7.278381E+03	1.122208E-17	3.588081E-18
7.288283E+03	1.134403E-17	3.626610E-18
7.298186E+03	1.146689E-17	3.665418E-18
7.308088E+03	1.159037E-17	3.704413E-18
7.317991E+03	1.171523E-17	3.743841E-18
7.327894E+03	1.184149E-17	3.783703E-18
7.337796E+03	1.196886E-17	3.823908E-18
7.347699E+03	1.209817E-17	3.864723E-18
7.357601E+03	1.222916E-17	3.906064E-18
7.367504E+03	1.236214E-17	3.948028E-18
7.377406E+03	1.249683E-17	3.990530E-18
7.387309E+03	1.263356E-17	4.033667E-18
7.397211E+03	1.277143E-17	4.077160E-18
7.407114E+03	1.291105E-17	4.121198E-18
7.417017E+03	1.305150E-17	4.165489E-18
7.426919E+03	1.319306E-17	4.210124E-18
7.436822E+03	1.333540E-17	4.254996E-18
7.446724E+03	1.347817E-17	4.299991E-18
7.456627E+03	1.362165E-17	4.345200E-18
7.466529E+03	1.376480E-17	4.390293E-18
7.476432E+03	1.390823E-17	4.435463E-18
7.486334E+03	1.405154E-17	4.480583E-18
7.496237E+03	1.419467E-17	4.525635E-18
7.506140E+03	1.433721E-17	4.570483E-18
7.516042E+03	1.447941E-17	4.615214E-18
7.525945E+03	1.462086E-17	4.659693E-18
7.535847E+03	1.476146E-17	4.703891E-18
7.545750E+03	1.490150E-17	4.747897E-18
7.555652E+03	1.504053E-17	4.791570E-18
7.565555E+03	1.517883E-17	4.835000E-18
7.575457E+03	1.531555E-17	4.877915E-18
7.585360E+03	1.545136E-17	4.920531E-18
7.595263E+03	1.558579E-17	4.962695E-18
7.605165E+03	1.571914E-17	5.004503E-18
7.615068E+03	1.585091E-17	5.045799E-18
7.624970E+03	1.598100E-17	5.086551E-18
7.634873E+03	1.610931E-17	5.126725E-18
7.644775E+03	1.623658E-17	5.166558E-18
7.654678E+03	1.636145E-17	5.205618E-18
7.664581E+03	1.648510E-17	5.244281E-18
7.674483E+03	1.660658E-17	5.282244E-18
7.684386E+03	1.672623E-17	5.319616E-18
