#wls	flux	fluxerr
1.584409E+03	1.137969E-16	2.781138E-17
1.624020E+03	1.201176E-16	2.924334E-17
1.663630E+03	1.262695E-16	3.061895E-17
1.703240E+03	1.321444E-16	3.191195E-17
1.742850E+03	1.376723E-16	3.310570E-17
1.782461E+03	1.426748E-16	3.415799E-17
1.822071E+03	1.469487E-16	3.502152E-17
1.861681E+03	1.502812E-16	3.564768E-17
1.901291E+03	1.523889E-16	3.597234E-17
1.940902E+03	1.530511E-16	3.594751E-17
1.980512E+03	1.521407E-16	3.554853E-17
2.020122E+03	1.498238E-16	3.481970E-17
2.059732E+03	1.466526E-16	3.389405E-17
2.099342E+03	1.436338E-16	3.300647E-17
2.138953E+03	1.418924E-16	3.241354E-17
2.178563E+03	1.420778E-16	3.225764E-17
2.218173E+03	1.440181E-16	3.249175E-17
2.257783E+03	1.468734E-16	3.291982E-17
2.297394E+03	1.495922E-16	3.330321E-17
2.337004E+03	1.513734E-16	3.346505E-17
2.376614E+03	1.517265E-16	3.330176E-17
2.416224E+03	1.504562E-16	3.277742E-17
2.455835E+03	1.475892E-16	3.190583E-17
2.495445E+03	1.432324E-16	3.071822E-17
2.535055E+03	1.375716E-16	2.926223E-17
2.574665E+03	1.308106E-16	2.758840E-17
2.614276E+03	1.231709E-16	2.574978E-17
2.653886E+03	1.148627E-16	2.379575E-17
2.693496E+03	1.060963E-16	2.177428E-17
2.733106E+03	9.707321E-17	1.973017E-17
2.772716E+03	8.798359E-17	1.770438E-17
2.812327E+03	7.900509E-17	1.573392E-17
2.851937E+03	7.030119E-17	1.385154E-17
2.891547E+03	6.201346E-17	1.208427E-17
2.931157E+03	5.425904E-17	1.045313E-17
2.970768E+03	4.712411E-17	8.972065E-18
2.980670E+03	4.544541E-17	8.626441E-18
2.990573E+03	4.380839E-17	8.290500E-18
3.000475E+03	4.221528E-17	7.964601E-18
3.010378E+03	4.066518E-17	7.648516E-18
3.020280E+03	3.915901E-17	7.342355E-18
3.030183E+03	3.769746E-17	7.046181E-18
3.040086E+03	3.627910E-17	6.759667E-18
3.049988E+03	3.490737E-17	6.483382E-18
3.059891E+03	3.358149E-17	6.217115E-18
3.069793E+03	3.230161E-17	5.960822E-18
3.079696E+03	3.106584E-17	5.714086E-18
3.089598E+03	2.987310E-17	5.476637E-18
3.099501E+03	2.872348E-17	5.248428E-18
3.109403E+03	2.761495E-17	5.029015E-18
3.119306E+03	2.654820E-17	4.818464E-18
3.129209E+03	2.552080E-17	4.616265E-18
3.139111E+03	2.453332E-17	4.422458E-18
3.149014E+03	2.358394E-17	4.236648E-18
3.158916E+03	2.267259E-17	4.058764E-18
3.168819E+03	2.179790E-17	3.888497E-18
3.178721E+03	2.095933E-17	3.725687E-18
3.188624E+03	2.015588E-17	3.570099E-18
3.198526E+03	1.938666E-17	3.421516E-18
3.208429E+03	1.865046E-17	3.279664E-18
3.218332E+03	1.794700E-17	3.144439E-18
3.228234E+03	1.727502E-17	3.015563E-18
3.238137E+03	1.663384E-17	2.892866E-18
3.248039E+03	1.602223E-17	2.776078E-18
3.257942E+03	1.543922E-17	2.664979E-18
3.267844E+03	1.488405E-17	2.559388E-18
3.277747E+03	1.435552E-17	2.459049E-18
3.287650E+03	1.385285E-17	2.363780E-18
3.297552E+03	1.337505E-17	2.273369E-18
3.307455E+03	1.292080E-17	2.187543E-18
3.317357E+03	1.248952E-17	2.106164E-18
3.327260E+03	1.208012E-17	2.029006E-18
3.337162E+03	1.169173E-17	1.955882E-18
3.347065E+03	1.132347E-17	1.886605E-18
3.356967E+03	1.097420E-17	1.820950E-18
3.366870E+03	1.064343E-17	1.758800E-18
3.376773E+03	1.033021E-17	1.699964E-18
3.386675E+03	1.003367E-17	1.644264E-18
3.396578E+03	9.753092E-18	1.591552E-18
3.406480E+03	9.487778E-18	1.541685E-18
3.416383E+03	9.236832E-18	1.494487E-18
3.426285E+03	8.999747E-18	1.449849E-18
3.436188E+03	8.775709E-18	1.407614E-18
3.446090E+03	8.564173E-18	1.367669E-18
3.455993E+03	8.364507E-18	1.329888E-18
3.465896E+03	8.176131E-18	1.294157E-18
3.475798E+03	7.998484E-18	1.260364E-18
3.485701E+03	7.831061E-18	1.228410E-18
3.495603E+03	7.673279E-18	1.198182E-18
3.505506E+03	7.524617E-18	1.169581E-18
3.515408E+03	7.384656E-18	1.142523E-18
3.525311E+03	7.252919E-18	1.116918E-18
3.535213E+03	7.129054E-18	1.092694E-18
3.545116E+03	7.012558E-18	1.069759E-18
3.555019E+03	6.903122E-18	1.048051E-18
3.564921E+03	6.800370E-18	1.027498E-18
3.574824E+03	6.704089E-18	1.008056E-18
3.584726E+03	6.613887E-18	9.896511E-19
3.594629E+03	6.529513E-18	9.722348E-19
3.604531E+03	6.450543E-18	9.557316E-19
3.614434E+03	6.376765E-18	9.400991E-19
3.624337E+03	6.307924E-18	9.252893E-19
3.634239E+03	6.243775E-18	9.112560E-19
3.644142E+03	6.184140E-18	8.979638E-19
3.654044E+03	6.128852E-18	8.853789E-19
3.663947E+03	6.077694E-18	8.734611E-19
3.673849E+03	6.030563E-18	8.621872E-19
3.683752E+03	5.987254E-18	8.515193E-19
3.693654E+03	5.947727E-18	8.414439E-19
3.703557E+03	5.911830E-18	8.319317E-19
3.713460E+03	5.879419E-18	8.229548E-19
3.723362E+03	5.850405E-18	8.144936E-19
3.733265E+03	5.824747E-18	8.065352E-19
3.743167E+03	5.802307E-18	7.990533E-19
3.753070E+03	5.783048E-18	7.920365E-19
3.762972E+03	5.766839E-18	7.854599E-19
3.772875E+03	5.753600E-18	7.793065E-19
3.782777E+03	5.743302E-18	7.735660E-19
3.792680E+03	5.735920E-18	7.682289E-19
3.802583E+03	5.731332E-18	7.632730E-19
3.812485E+03	5.729565E-18	7.586959E-19
3.822388E+03	5.730454E-18	7.544701E-19
3.832290E+03	5.734073E-18	7.505997E-19
3.842193E+03	5.740263E-18	7.470584E-19
3.852095E+03	5.749093E-18	7.438501E-19
3.861998E+03	5.760449E-18	7.409544E-19
3.871900E+03	5.774310E-18	7.383636E-19
3.881803E+03	5.790607E-18	7.360639E-19
3.891706E+03	5.809315E-18	7.340474E-19
3.901608E+03	5.830371E-18	7.323013E-19
3.911511E+03	5.853796E-18	7.308238E-19
3.921413E+03	5.879480E-18	7.295964E-19
3.931316E+03	5.907403E-18	7.286126E-19
3.941218E+03	5.937500E-18	7.278601E-19
3.951121E+03	5.969797E-18	7.273382E-19
3.961024E+03	6.004234E-18	7.270354E-19
3.970926E+03	6.040743E-18	7.269399E-19
3.980829E+03	6.079260E-18	7.270402E-19
3.990731E+03	6.119819E-18	7.273373E-19
4.000634E+03	6.162312E-18	7.278148E-19
4.010536E+03	6.206777E-18	7.284741E-19
4.020439E+03	6.253113E-18	7.293004E-19
4.030341E+03	6.301317E-18	7.302905E-19
4.040244E+03	6.351394E-18	7.314423E-19
4.050147E+03	6.403304E-18	7.327486E-19
4.060049E+03	6.457008E-18	7.342024E-19
4.069952E+03	6.512473E-18	7.357980E-19
4.079854E+03	6.569773E-18	7.375414E-19
4.089757E+03	6.628830E-18	7.394217E-19
4.099659E+03	6.689672E-18	7.414404E-19
4.109562E+03	6.752232E-18	7.435880E-19
4.119464E+03	6.816548E-18	7.458672E-19
4.129367E+03	6.882662E-18	7.482813E-19
4.139270E+03	6.950509E-18	7.508215E-19
4.149172E+03	7.020146E-18	7.534928E-19
4.159075E+03	7.091519E-18	7.562883E-19
4.168977E+03	7.164701E-18	7.592148E-19
4.178880E+03	7.239650E-18	7.622671E-19
4.188782E+03	7.316441E-18	7.654521E-19
4.198685E+03	7.395046E-18	7.687665E-19
4.208587E+03	7.475507E-18	7.722139E-19
4.218490E+03	7.557797E-18	7.757914E-19
4.228393E+03	7.642031E-18	7.795106E-19
4.238295E+03	7.728205E-18	7.833707E-19
4.248198E+03	7.816374E-18	7.873776E-19
4.258100E+03	7.906554E-18	7.915329E-19
4.268003E+03	7.998742E-18	7.958366E-19
4.277905E+03	8.093022E-18	8.002976E-19
4.287808E+03	8.189465E-18	8.049235E-19
4.297711E+03	8.288097E-18	8.097176E-19
4.307613E+03	8.388992E-18	8.146878E-19
4.317516E+03	8.492181E-18	8.198383E-19
4.327418E+03	8.597821E-18	8.251854E-19
4.337321E+03	8.706016E-18	8.307402E-19
4.347223E+03	8.817076E-18	8.365334E-19
4.357126E+03	8.930971E-18	8.425632E-19
4.367028E+03	9.047662E-18	8.488278E-19
4.376931E+03	9.167039E-18	8.553184E-19
4.386834E+03	9.289145E-18	8.620417E-19
4.396736E+03	9.413786E-18	8.689820E-19
4.406639E+03	9.540855E-18	8.761328E-19
4.416541E+03	9.670305E-18	8.834937E-19
4.426444E+03	9.802018E-18	8.910575E-19
4.436346E+03	9.935826E-18	8.988122E-19
4.446249E+03	1.007147E-17	9.067376E-19
4.456151E+03	1.020883E-17	9.148258E-19
4.466054E+03	1.034763E-17	9.230556E-19
4.475957E+03	1.048761E-17	9.314093E-19
4.485859E+03	1.062854E-17	9.398688E-19
4.495762E+03	1.076997E-17	9.484016E-19
4.505664E+03	1.091170E-17	9.569941E-19
4.515567E+03	1.105333E-17	9.656178E-19
4.525469E+03	1.119457E-17	9.742524E-19
4.535372E+03	1.133488E-17	9.828584E-19
4.545274E+03	1.147401E-17	9.914204E-19
4.555177E+03	1.161140E-17	9.998977E-19
4.565080E+03	1.174677E-17	1.008272E-18
4.574982E+03	1.187950E-17	1.016500E-18
4.584885E+03	1.200919E-17	1.024553E-18
4.594787E+03	1.213526E-17	1.032392E-18
4.604690E+03	1.225736E-17	1.039993E-18
4.614592E+03	1.237480E-17	1.047306E-18
4.624495E+03	1.248719E-17	1.054306E-18
4.634398E+03	1.259388E-17	1.060946E-18
4.644300E+03	1.269423E-17	1.067181E-18
4.654203E+03	1.278778E-17	1.072980E-18
4.664105E+03	1.287375E-17	1.078283E-18
4.674008E+03	1.295152E-17	1.083047E-18
4.683910E+03	1.302058E-17	1.087234E-18
4.693813E+03	1.308117E-17	1.090873E-18
4.703715E+03	1.313333E-17	1.093972E-18
4.713618E+03	1.317740E-17	1.096562E-18
4.723521E+03	1.321351E-17	1.098658E-18
4.733423E+03	1.324211E-17	1.100298E-18
4.743326E+03	1.326338E-17	1.101494E-18
4.753228E+03	1.327760E-17	1.102271E-18
4.763131E+03	1.328508E-17	1.102650E-18
4.773033E+03	1.328612E-17	1.102655E-18
4.782936E+03	1.328099E-17	1.102304E-18
4.792838E+03	1.326986E-17	1.101609E-18
4.802741E+03	1.325314E-17	1.100600E-18
4.812644E+03	1.323110E-17	1.099295E-18
4.822546E+03	1.320392E-17	1.097704E-18
4.832449E+03	1.317187E-17	1.095846E-18
4.842351E+03	1.313536E-17	1.093750E-18
4.852254E+03	1.309441E-17	1.091412E-18
4.862156E+03	1.304952E-17	1.088869E-18
4.872059E+03	1.300082E-17	1.086127E-18
4.881961E+03	1.294842E-17	1.083189E-18
4.891864E+03	1.289263E-17	1.080077E-18
4.901767E+03	1.283364E-17	1.076799E-18
4.911669E+03	1.277150E-17	1.073356E-18
4.921572E+03	1.270646E-17	1.069764E-18
4.931474E+03	1.263844E-17	1.066009E-18
4.941377E+03	1.256781E-17	1.062118E-18
4.951279E+03	1.249455E-17	1.058083E-18
4.961182E+03	1.241865E-17	1.053899E-18
4.971085E+03	1.234032E-17	1.049579E-18
4.980987E+03	1.225955E-17	1.045114E-18
4.990890E+03	1.217641E-17	1.040507E-18
5.000792E+03	1.209099E-17	1.035761E-18
5.010695E+03	1.200336E-17	1.030876E-18
5.020597E+03	1.191347E-17	1.025842E-18
5.030500E+03	1.182150E-17	1.020670E-18
5.040402E+03	1.172739E-17	1.015350E-18
5.050305E+03	1.163119E-17	1.009882E-18
5.060208E+03	1.153283E-17	1.004254E-18
5.070110E+03	1.143251E-17	9.984786E-19
5.080013E+03	1.133006E-17	9.925371E-19
5.089915E+03	1.122581E-17	9.864523E-19
5.099818E+03	1.111962E-17	9.802089E-19
5.109720E+03	1.101173E-17	9.738219E-19
5.119623E+03	1.090213E-17	9.672869E-19
5.129525E+03	1.079083E-17	9.606000E-19
5.139428E+03	1.067803E-17	9.537756E-19
5.149331E+03	1.056375E-17	9.468104E-19
5.159233E+03	1.044810E-17	9.397110E-19
5.169136E+03	1.033120E-17	9.324830E-19
5.179038E+03	1.021305E-17	9.251244E-19
5.188941E+03	1.009379E-17	9.176421E-19
5.198843E+03	9.973420E-18	9.100344E-19
5.208746E+03	9.852169E-18	9.023177E-19
5.218648E+03	9.730061E-18	8.944912E-19
5.228551E+03	9.607224E-18	8.865633E-19
5.238454E+03	9.483784E-18	8.785427E-19
5.248356E+03	9.359780E-18	8.704301E-19
5.258259E+03	9.235335E-18	8.622342E-19
5.268161E+03	9.110604E-18	8.539668E-19
5.278064E+03	8.985709E-18	8.456369E-19
5.287966E+03	8.860721E-18	8.372489E-19
5.297869E+03	8.735870E-18	8.288226E-19
5.307772E+03	8.611307E-18	8.203702E-19
5.317674E+03	8.487208E-18	8.119072E-19
5.327577E+03	8.363639E-18	8.034383E-19
5.337479E+03	8.240976E-18	7.949984E-19
5.347382E+03	8.119347E-18	7.865993E-19
5.357284E+03	7.999111E-18	7.782752E-19
5.367187E+03	7.880432E-18	7.700420E-19
5.377089E+03	7.763622E-18	7.619306E-19
5.386992E+03	7.648903E-18	7.539634E-19
5.396895E+03	7.536681E-18	7.461816E-19
5.406797E+03	7.427140E-18	7.386050E-19
5.416700E+03	7.320428E-18	7.312504E-19
5.426602E+03	7.216643E-18	7.241283E-19
5.436505E+03	7.116008E-18	7.172626E-19
5.446407E+03	7.018610E-18	7.106636E-19
5.456310E+03	6.924657E-18	7.043543E-19
5.466212E+03	6.834352E-18	6.983578E-19
5.476115E+03	6.747883E-18	6.926959E-19
5.486018E+03	6.665420E-18	6.873896E-19
5.495920E+03	6.587189E-18	6.824656E-19
5.505823E+03	6.513326E-18	6.779424E-19
5.515725E+03	6.444083E-18	6.738507E-19
5.525628E+03	6.379498E-18	6.701993E-19
5.535530E+03	6.319853E-18	6.670231E-19
5.545433E+03	6.265139E-18	6.643268E-19
5.555335E+03	6.215527E-18	6.621345E-19
5.565238E+03	6.171172E-18	6.604688E-19
5.575141E+03	6.131993E-18	6.593275E-19
5.585043E+03	6.098210E-18	6.587410E-19
5.594946E+03	6.069786E-18	6.587120E-19
5.604848E+03	6.046644E-18	6.592391E-19
5.614751E+03	6.028951E-18	6.603475E-19
5.624653E+03	6.016559E-18	6.620281E-19
5.634556E+03	6.009482E-18	6.642896E-19
5.644459E+03	6.007734E-18	6.671407E-19
5.654361E+03	6.011268E-18	6.705831E-19
5.664264E+03	6.020020E-18	6.746171E-19
5.674166E+03	6.033930E-18	6.792428E-19
5.684069E+03	6.053004E-18	6.844681E-19
5.693971E+03	6.077241E-18	6.902998E-19
5.703874E+03	6.106448E-18	6.967229E-19
5.713776E+03	6.140760E-18	7.037598E-19
5.723679E+03	6.179994E-18	7.113961E-19
5.733582E+03	6.224227E-18	7.196476E-19
5.743484E+03	6.273347E-18	7.285081E-19
5.753387E+03	6.327379E-18	7.379870E-19
5.763289E+03	6.386286E-18	7.480865E-19
5.773192E+03	6.450103E-18	7.588172E-19
5.783094E+03	6.518730E-18	7.701738E-19
5.792997E+03	6.592138E-18	7.821592E-19
5.802899E+03	6.670372E-18	7.947851E-19
5.812802E+03	6.753487E-18	8.080640E-19
5.822705E+03	6.841316E-18	8.219823E-19
5.832607E+03	6.933989E-18	8.365616E-19
5.842510E+03	7.031419E-18	8.517974E-19
5.852412E+03	7.133672E-18	8.677036E-19
5.862315E+03	7.240735E-18	8.842845E-19
5.872217E+03	7.352515E-18	9.015344E-19
5.882120E+03	7.469075E-18	9.194668E-19
5.892022E+03	7.590395E-18	9.380847E-19
5.901925E+03	7.716370E-18	9.573806E-19
5.911828E+03	7.847156E-18	9.773791E-19
5.921730E+03	7.982539E-18	9.980588E-19
5.931633E+03	8.122578E-18	1.019432E-18
5.941535E+03	8.267241E-18	1.041500E-18
5.951438E+03	8.416391E-18	1.064249E-18
5.961340E+03	8.570079E-18	1.087692E-18
5.971243E+03	8.728060E-18	1.111801E-18
5.981146E+03	8.890470E-18	1.136597E-18
5.991048E+03	9.057046E-18	1.162051E-18
6.000951E+03	9.227834E-18	1.188173E-18
6.010853E+03	9.402639E-18	1.214941E-18
6.020756E+03	9.581388E-18	1.242348E-18
6.030658E+03	9.763872E-18	1.270371E-18
6.040561E+03	9.949869E-18	1.298983E-18
6.050463E+03	1.013938E-17	1.328187E-18
6.060366E+03	1.033195E-17	1.357923E-18
6.070269E+03	1.052753E-17	1.388189E-18
6.080171E+03	1.072574E-17	1.418936E-18
6.090074E+03	1.092643E-17	1.450142E-18
6.099976E+03	1.112888E-17	1.481714E-18
6.109879E+03	1.133303E-17	1.513643E-18
6.119781E+03	1.153825E-17	1.545844E-18
6.129684E+03	1.174417E-17	1.578265E-18
6.139586E+03	1.195022E-17	1.610829E-18
6.149489E+03	1.215644E-17	1.643535E-18
6.159392E+03	1.236304E-17	1.676412E-18
6.169294E+03	1.257025E-17	1.709489E-18
6.179197E+03	1.277838E-17	1.742804E-18
6.189099E+03	1.298723E-17	1.776329E-18
6.199002E+03	1.319751E-17	1.810160E-18
6.208904E+03	1.340895E-17	1.844256E-18
6.218807E+03	1.362193E-17	1.878670E-18
6.228709E+03	1.383675E-17	1.913442E-18
6.238612E+03	1.405319E-17	1.948538E-18
6.248515E+03	1.427154E-17	1.983999E-18
6.258417E+03	1.449198E-17	2.019849E-18
6.268320E+03	1.471467E-17	2.056109E-18
6.278222E+03	1.493941E-17	2.092751E-18
6.288125E+03	1.516641E-17	2.129802E-18
6.298027E+03	1.539568E-17	2.167262E-18
6.307930E+03	1.562723E-17	2.205134E-18
6.317833E+03	1.586088E-17	2.243388E-18
6.327735E+03	1.609643E-17	2.281996E-18
6.337638E+03	1.633364E-17	2.320923E-18
6.347540E+03	1.657253E-17	2.360170E-18
6.357443E+03	1.681288E-17	2.399701E-18
6.367345E+03	1.705394E-17	2.439410E-18
6.377248E+03	1.729642E-17	2.479395E-18
6.387150E+03	1.754036E-17	2.519657E-18
6.397053E+03	1.778600E-17	2.560231E-18
6.406956E+03	1.803393E-17	2.601200E-18
6.416858E+03	1.828395E-17	2.642532E-18
6.426761E+03	1.853665E-17	2.684311E-18
6.436663E+03	1.879215E-17	2.726553E-18
6.446566E+03	1.905083E-17	2.769311E-18
6.456468E+03	1.931219E-17	2.812514E-18
6.466371E+03	1.957724E-17	2.856304E-18
6.476273E+03	1.984550E-17	2.900613E-18
6.486176E+03	2.011738E-17	2.945497E-18
6.496079E+03	2.039301E-17	2.990975E-18
6.505981E+03	2.067219E-17	3.037018E-18
6.515884E+03	2.095535E-17	3.083686E-18
6.525786E+03	2.124265E-17	3.131000E-18
6.535689E+03	2.153387E-17	3.178930E-18
6.545591E+03	2.182913E-17	3.227489E-18
6.555494E+03	2.212856E-17	3.276697E-18
6.565396E+03	2.243265E-17	3.326624E-18
6.575299E+03	2.274079E-17	3.377180E-18
6.585202E+03	2.305349E-17	3.428436E-18
6.595104E+03	2.337086E-17	3.480408E-18
6.605007E+03	2.369261E-17	3.533053E-18
6.614909E+03	2.401926E-17	3.586443E-18
6.624812E+03	2.435051E-17	3.640536E-18
6.634714E+03	2.468686E-17	3.695402E-18
6.644617E+03	2.502759E-17	3.750930E-18
6.654520E+03	2.537319E-17	3.807195E-18
6.664422E+03	2.572421E-17	3.864274E-18
6.674325E+03	2.607987E-17	3.922049E-18
6.684227E+03	2.644070E-17	3.980598E-18
6.694130E+03	2.680632E-17	4.039861E-18
6.704032E+03	2.717730E-17	4.099920E-18
6.713935E+03	2.755327E-17	4.160718E-18
6.723837E+03	2.793430E-17	4.222261E-18
6.733740E+03	2.832099E-17	4.284638E-18
6.743643E+03	2.871242E-17	4.347709E-18
6.753545E+03	2.910972E-17	4.411639E-18
6.763448E+03	2.951194E-17	4.476280E-18
6.773350E+03	2.992024E-17	4.541808E-18
6.783253E+03	3.033363E-17	4.608066E-18
6.793155E+03	3.075216E-17	4.675062E-18
6.803058E+03	3.117648E-17	4.742888E-18
6.812960E+03	3.160664E-17	4.811549E-18
6.822863E+03	3.204155E-17	4.880875E-18
6.832766E+03	3.248241E-17	4.951046E-18
6.842668E+03	3.292866E-17	5.021971E-18
6.852571E+03	3.338098E-17	5.093751E-18
6.862473E+03	3.383812E-17	5.166190E-18
6.872376E+03	3.430071E-17	5.239379E-18
6.882278E+03	3.476878E-17	5.313320E-18
6.892181E+03	3.524167E-17	5.387905E-18
6.902083E+03	3.572001E-17	5.463229E-18
6.911986E+03	3.620385E-17	5.539293E-18
6.921889E+03	3.669249E-17	5.615984E-18
6.931791E+03	3.718588E-17	5.693291E-18
6.941694E+03	3.768403E-17	5.771211E-18
6.951596E+03	3.818768E-17	5.849849E-18
6.961499E+03	3.869532E-17	5.928972E-18
6.971401E+03	3.920848E-17	6.008806E-18
6.981304E+03	3.972562E-17	6.089111E-18
6.991207E+03	4.024750E-17	6.169998E-18
7.001109E+03	4.077333E-17	6.251340E-18
7.011012E+03	4.130390E-17	6.333254E-18
7.020914E+03	4.183922E-17	6.415736E-18
7.030817E+03	4.237849E-17	6.498653E-18
7.040719E+03	4.292081E-17	6.581868E-18
7.050622E+03	4.346789E-17	6.665632E-18
7.060524E+03	4.401885E-17	6.749807E-18
7.070427E+03	4.457370E-17	6.834388E-18
7.080330E+03	4.513238E-17	6.919361E-18
7.090232E+03	4.569397E-17	7.004577E-18
7.100135E+03	4.625932E-17	7.090163E-18
7.110037E+03	4.682740E-17	7.175953E-18
7.119940E+03	4.739815E-17	7.261933E-18
7.129842E+03	4.797246E-17	7.348233E-18
7.139745E+03	4.854920E-17	7.434677E-18
7.149647E+03	4.912931E-17	7.521399E-18
7.159550E+03	4.971057E-17	7.608057E-18
7.169453E+03	5.029380E-17	7.694769E-18
7.179355E+03	5.087878E-17	7.781495E-18
7.189258E+03	5.146526E-17	7.868194E-18
7.199160E+03	5.205290E-17	7.954808E-18
7.209063E+03	5.264137E-17	8.041280E-18
7.218965E+03	5.322911E-17	8.127369E-18
7.228868E+03	5.381678E-17	8.213168E-18
7.238770E+03	5.440386E-17	8.298597E-18
7.248673E+03	5.498980E-17	8.383563E-18
7.258576E+03	5.557276E-17	8.467787E-18
7.268478E+03	5.615330E-17	8.551347E-18
7.278381E+03	5.673196E-17	8.634321E-18
7.288283E+03	5.730549E-17	8.716215E-18
7.298186E+03	5.787435E-17	8.797093E-18
7.308088E+03	5.843771E-17	8.876829E-18
7.317991E+03	5.899597E-17	8.955480E-18
7.327894E+03	5.954694E-17	9.032712E-18
7.337796E+03	6.009098E-17	9.108581E-18
7.347699E+03	6.062848E-17	9.183144E-18
7.357601E+03	6.115712E-17	9.256049E-18
7.367504E+03	6.167865E-17	9.327561E-18
7.377406E+03	6.218926E-17	9.397106E-18
7.387309E+03	6.268928E-17	9.464735E-18
7.397211E+03	6.317620E-17	9.530070E-18
7.407114E+03	6.365027E-17	9.593154E-18
7.417017E+03	6.410741E-17	9.653375E-18
7.426919E+03	6.454787E-17	9.710777E-18
7.436822E+03	6.497039E-17	9.765176E-18
7.446724E+03	6.537297E-17	9.816279E-18
7.456627E+03	6.575917E-17	9.864627E-18
7.466529E+03	6.612654E-17	9.909862E-18
7.476432E+03	6.647728E-17	9.952320E-18
7.486334E+03	6.681047E-17	9.991874E-18
7.496237E+03	6.712838E-17	1.002887E-17
7.506140E+03	6.743007E-17	1.006317E-17
7.516042E+03	6.771788E-17	1.009514E-17
7.525945E+03	6.799088E-17	1.012465E-17
7.535847E+03	6.824977E-17	1.015180E-17
7.545750E+03	6.849684E-17	1.017694E-17
7.555652E+03	6.873107E-17	1.019992E-17
7.565555E+03	6.895303E-17	1.022083E-17
7.575457E+03	6.916494E-17	1.024001E-17
7.585360E+03	6.936560E-17	1.025729E-17
7.595263E+03	6.955713E-17	1.027297E-17
7.605165E+03	6.973651E-17	1.028663E-17
7.615068E+03	6.990745E-17	1.029881E-17
7.624970E+03	7.007031E-17	1.030957E-17
7.634873E+03	7.022358E-17	1.031870E-17
7.644775E+03	7.036925E-17	1.032648E-17
7.654678E+03	7.050575E-17	1.033271E-17
7.664581E+03	7.063323E-17	1.033739E-17
7.674483E+03	7.075356E-17	1.034082E-17
7.684386E+03	7.086681E-17	1.034300E-17
