#wls	flux	fluxerr
1.584409E+03	1.371083E-16	4.130777E-17
1.624020E+03	1.428463E-16	4.303591E-17
1.663630E+03	1.481173E-16	4.462332E-17
1.703240E+03	1.528324E-16	4.604315E-17
1.742850E+03	1.568820E-16	4.726248E-17
1.782461E+03	1.601151E-16	4.823574E-17
1.822071E+03	1.623240E-16	4.890043E-17
1.861681E+03	1.633089E-16	4.919636E-17
1.901291E+03	1.628526E-16	4.905810E-17
1.940902E+03	1.607708E-16	4.843015E-17
1.980512E+03	1.570458E-16	4.730723E-17
2.020122E+03	1.519165E-16	4.576130E-17
2.059732E+03	1.460389E-16	4.399001E-17
2.099342E+03	1.404761E-16	4.231360E-17
2.138953E+03	1.362871E-16	4.105102E-17
2.178563E+03	1.340479E-16	4.037577E-17
2.218173E+03	1.335096E-16	4.021281E-17
2.257783E+03	1.337472E-16	4.028354E-17
2.297394E+03	1.338579E-16	4.031604E-17
2.337004E+03	1.331546E-16	4.010336E-17
2.376614E+03	1.312558E-16	3.953059E-17
2.416224E+03	1.280476E-16	3.856351E-17
2.455835E+03	1.235987E-16	3.722278E-17
2.495445E+03	1.180673E-16	3.555609E-17
2.535055E+03	1.116429E-16	3.362057E-17
2.574665E+03	1.045333E-16	3.147877E-17
2.614276E+03	9.693801E-17	2.919079E-17
2.653886E+03	8.904320E-17	2.681273E-17
2.693496E+03	8.102025E-17	2.439619E-17
2.733106E+03	7.302937E-17	2.198943E-17
2.772716E+03	6.520343E-17	1.963245E-17
2.812327E+03	5.766260E-17	1.736143E-17
2.851937E+03	5.051520E-17	1.520899E-17
2.891547E+03	4.385108E-17	1.320217E-17
2.931157E+03	3.774232E-17	1.136266E-17
2.970768E+03	3.223467E-17	9.704220E-18
2.980670E+03	3.095409E-17	9.318625E-18
2.990573E+03	2.971223E-17	8.944696E-18
3.000475E+03	2.850949E-17	8.582546E-18
3.010378E+03	2.734548E-17	8.232061E-18
3.020280E+03	2.621976E-17	7.893108E-18
3.030183E+03	2.513238E-17	7.565705E-18
3.040086E+03	2.408256E-17	7.249611E-18
3.049988E+03	2.307161E-17	6.945223E-18
3.059891E+03	2.209908E-17	6.652406E-18
3.069793E+03	2.116419E-17	6.370925E-18
3.079696E+03	2.026572E-17	6.100412E-18
3.089598E+03	1.940291E-17	5.840637E-18
3.099501E+03	1.857463E-17	5.591259E-18
3.109403E+03	1.777978E-17	5.351949E-18
3.119306E+03	1.701763E-17	5.122485E-18
3.129209E+03	1.628681E-17	4.902456E-18
3.139111E+03	1.558692E-17	4.691743E-18
3.149014E+03	1.491666E-17	4.489950E-18
3.158916E+03	1.427531E-17	4.296862E-18
3.168819E+03	1.366190E-17	4.112188E-18
3.178721E+03	1.307544E-17	3.935631E-18
3.188624E+03	1.251525E-17	3.766980E-18
3.198526E+03	1.198035E-17	3.605947E-18
3.208429E+03	1.146963E-17	3.452194E-18
3.218332E+03	1.098277E-17	3.305624E-18
3.228234E+03	1.051829E-17	3.165793E-18
3.238137E+03	1.007585E-17	3.032599E-18
3.248039E+03	9.654249E-18	2.905679E-18
3.257942E+03	9.252811E-18	2.784829E-18
3.267844E+03	8.870843E-18	2.669842E-18
3.277747E+03	8.507267E-18	2.560392E-18
3.287650E+03	8.161565E-18	2.456323E-18
3.297552E+03	7.832961E-18	2.357402E-18
3.307455E+03	7.520596E-18	2.263371E-18
3.317357E+03	7.223762E-18	2.174014E-18
3.327260E+03	6.941771E-18	2.089127E-18
3.337162E+03	6.674050E-18	2.008536E-18
3.347065E+03	6.419772E-18	1.931992E-18
3.356967E+03	6.178494E-18	1.859362E-18
3.366870E+03	5.949457E-18	1.790416E-18
3.376773E+03	5.732097E-18	1.724986E-18
3.386675E+03	5.525946E-18	1.662931E-18
3.396578E+03	5.330276E-18	1.604031E-18
3.406480E+03	5.144733E-18	1.548179E-18
3.416383E+03	4.968781E-18	1.495215E-18
3.426285E+03	4.801798E-18	1.444950E-18
3.436188E+03	4.643487E-18	1.397296E-18
3.446090E+03	4.493285E-18	1.352084E-18
3.455993E+03	4.350826E-18	1.309202E-18
3.465896E+03	4.215709E-18	1.268530E-18
3.475798E+03	4.087423E-18	1.229914E-18
3.485701E+03	3.965672E-18	1.193266E-18
3.495603E+03	3.850047E-18	1.158461E-18
3.505506E+03	3.740173E-18	1.125388E-18
3.515408E+03	3.635738E-18	1.093952E-18
3.525311E+03	3.536379E-18	1.064044E-18
3.535213E+03	3.441799E-18	1.035574E-18
3.545116E+03	3.351683E-18	1.008448E-18
3.555019E+03	3.265810E-18	9.825993E-19
3.564921E+03	3.183936E-18	9.579541E-19
3.574824E+03	3.105804E-18	9.344356E-19
3.584726E+03	3.031234E-18	9.119890E-19
3.594629E+03	2.960054E-18	8.905628E-19
3.604531E+03	2.892042E-18	8.700904E-19
3.614434E+03	2.827128E-18	8.505501E-19
3.624337E+03	2.765105E-18	8.318804E-19
3.634239E+03	2.705882E-18	8.140532E-19
3.644142E+03	2.649342E-18	7.970337E-19
3.654044E+03	2.595372E-18	7.807873E-19
3.663947E+03	2.543882E-18	7.652878E-19
3.673849E+03	2.494809E-18	7.505156E-19
3.683752E+03	2.448001E-18	7.364250E-19
3.693654E+03	2.403439E-18	7.230103E-19
3.703557E+03	2.360998E-18	7.102339E-19
3.713460E+03	2.320618E-18	6.980780E-19
3.723362E+03	2.282240E-18	6.865243E-19
3.733265E+03	2.245748E-18	6.755384E-19
3.743167E+03	2.211125E-18	6.651147E-19
3.753070E+03	2.178277E-18	6.552253E-19
3.762972E+03	2.147150E-18	6.458538E-19
3.772875E+03	2.117677E-18	6.369800E-19
3.782777E+03	2.089805E-18	6.285880E-19
3.792680E+03	2.063470E-18	6.206584E-19
3.802583E+03	2.038625E-18	6.131772E-19
3.812485E+03	2.015209E-18	6.061258E-19
3.822388E+03	1.993193E-18	5.994959E-19
3.832290E+03	1.972521E-18	5.932701E-19
3.842193E+03	1.953137E-18	5.874318E-19
3.852095E+03	1.935000E-18	5.819688E-19
3.861998E+03	1.918062E-18	5.768664E-19
3.871900E+03	1.902300E-18	5.721178E-19
3.881803E+03	1.887666E-18	5.677086E-19
3.891706E+03	1.874128E-18	5.636291E-19
3.901608E+03	1.861641E-18	5.598657E-19
3.911511E+03	1.850161E-18	5.564052E-19
3.921413E+03	1.839688E-18	5.532475E-19
3.931316E+03	1.830153E-18	5.503719E-19
3.941218E+03	1.821546E-18	5.477755E-19
3.951121E+03	1.813826E-18	5.454461E-19
3.961024E+03	1.806973E-18	5.433771E-19
3.970926E+03	1.800964E-18	5.415621E-19
3.980829E+03	1.795751E-18	5.399863E-19
3.990731E+03	1.791327E-18	5.386478E-19
4.000634E+03	1.787659E-18	5.375369E-19
4.010536E+03	1.784733E-18	5.366487E-19
4.020439E+03	1.782515E-18	5.359736E-19
4.030341E+03	1.780977E-18	5.355028E-19
4.040244E+03	1.780117E-18	5.352360E-19
4.050147E+03	1.779895E-18	5.351607E-19
4.060049E+03	1.780296E-18	5.352728E-19
4.069952E+03	1.781309E-18	5.355690E-19
4.079854E+03	1.782893E-18	5.360366E-19
4.089757E+03	1.785053E-18	5.366775E-19
4.099659E+03	1.787749E-18	5.374794E-19
4.109562E+03	1.790973E-18	5.384399E-19
4.119464E+03	1.794714E-18	5.395559E-19
4.129367E+03	1.798939E-18	5.408170E-19
4.139270E+03	1.803650E-18	5.422244E-19
4.149172E+03	1.808801E-18	5.437639E-19
4.159075E+03	1.814412E-18	5.454415E-19
4.168977E+03	1.820434E-18	5.472426E-19
4.178880E+03	1.826862E-18	5.491658E-19
4.188782E+03	1.833676E-18	5.512048E-19
4.198685E+03	1.840870E-18	5.533578E-19
4.208587E+03	1.848399E-18	5.556113E-19
4.218490E+03	1.856270E-18	5.579675E-19
4.228393E+03	1.864450E-18	5.604167E-19
4.238295E+03	1.872908E-18	5.629491E-19
4.248198E+03	1.881639E-18	5.655634E-19
4.258100E+03	1.890624E-18	5.682540E-19
4.268003E+03	1.899815E-18	5.710064E-19
4.277905E+03	1.909193E-18	5.738148E-19
4.287808E+03	1.918740E-18	5.766738E-19
4.297711E+03	1.928436E-18	5.795775E-19
4.307613E+03	1.938264E-18	5.825205E-19
4.317516E+03	1.948217E-18	5.855011E-19
4.327418E+03	1.958279E-18	5.885143E-19
4.337321E+03	1.968430E-18	5.915538E-19
4.347223E+03	1.978699E-18	5.946287E-19
4.357126E+03	1.989067E-18	5.977335E-19
4.367028E+03	1.999534E-18	6.008675E-19
4.376931E+03	2.010115E-18	6.040358E-19
4.386834E+03	2.020811E-18	6.072382E-19
4.396736E+03	2.031605E-18	6.104701E-19
4.406639E+03	2.042515E-18	6.137365E-19
4.416541E+03	2.053528E-18	6.170338E-19
4.426444E+03	2.064647E-18	6.203627E-19
4.436346E+03	2.075875E-18	6.237242E-19
4.446249E+03	2.087185E-18	6.271099E-19
4.456151E+03	2.098597E-18	6.305263E-19
4.466054E+03	2.110101E-18	6.339702E-19
4.475957E+03	2.121688E-18	6.374385E-19
4.485859E+03	2.133365E-18	6.409338E-19
4.495762E+03	2.145106E-18	6.444483E-19
4.505664E+03	2.156922E-18	6.479849E-19
4.515567E+03	2.168822E-18	6.515464E-19
4.525469E+03	2.180801E-18	6.551315E-19
4.535372E+03	2.192833E-18	6.587325E-19
4.545274E+03	2.204935E-18	6.623539E-19
4.555177E+03	2.217098E-18	6.659938E-19
4.565080E+03	2.229324E-18	6.696522E-19
4.574982E+03	2.241625E-18	6.733329E-19
4.584885E+03	2.253982E-18	6.770300E-19
4.594787E+03	2.266413E-18	6.807495E-19
4.604690E+03	2.278916E-18	6.844901E-19
4.614592E+03	2.291493E-18	6.882528E-19
4.624495E+03	2.304145E-18	6.920377E-19
4.634398E+03	2.316873E-18	6.958451E-19
4.644300E+03	2.329677E-18	6.996752E-19
4.654203E+03	2.342604E-18	7.035418E-19
4.664105E+03	2.355657E-18	7.074462E-19
4.674008E+03	2.368840E-18	7.113892E-19
4.683910E+03	2.382202E-18	7.153857E-19
4.693813E+03	2.395728E-18	7.194315E-19
4.703715E+03	2.409424E-18	7.235278E-19
4.713618E+03	2.423322E-18	7.276843E-19
4.723521E+03	2.437427E-18	7.319030E-19
4.733423E+03	2.451729E-18	7.361803E-19
4.743326E+03	2.466257E-18	7.405252E-19
4.753228E+03	2.481021E-18	7.449408E-19
4.763131E+03	2.496010E-18	7.494235E-19
4.773033E+03	2.511255E-18	7.539828E-19
4.782936E+03	2.526770E-18	7.586229E-19
4.792838E+03	2.542565E-18	7.633466E-19
4.802741E+03	2.558652E-18	7.681576E-19
4.812644E+03	2.575019E-18	7.730524E-19
4.822546E+03	2.591726E-18	7.780492E-19
4.832449E+03	2.608740E-18	7.831373E-19
4.842351E+03	2.626071E-18	7.883204E-19
4.852254E+03	2.643758E-18	7.936101E-19
4.862156E+03	2.661813E-18	7.990099E-19
4.872059E+03	2.680252E-18	8.045244E-19
4.881961E+03	2.699037E-18	8.101425E-19
4.891864E+03	2.718233E-18	8.158832E-19
4.901767E+03	2.737826E-18	8.217430E-19
4.911669E+03	2.757830E-18	8.277258E-19
4.921572E+03	2.778259E-18	8.338356E-19
4.931474E+03	2.799127E-18	8.400767E-19
4.941377E+03	2.820420E-18	8.464449E-19
4.951279E+03	2.842150E-18	8.529435E-19
4.961182E+03	2.864355E-18	8.595844E-19
4.971085E+03	2.887022E-18	8.663636E-19
4.980987E+03	2.910134E-18	8.732758E-19
4.990890E+03	2.933758E-18	8.803410E-19
5.000792E+03	2.957823E-18	8.875379E-19
5.010695E+03	2.982392E-18	8.948856E-19
5.020597E+03	3.007476E-18	9.023875E-19
5.030500E+03	3.033000E-18	9.100205E-19
5.040402E+03	3.059056E-18	9.178129E-19
5.050305E+03	3.085597E-18	9.257501E-19
5.060208E+03	3.112631E-18	9.338343E-19
5.070110E+03	3.140192E-18	9.420763E-19
5.080013E+03	3.168226E-18	9.504596E-19
5.089915E+03	3.196741E-18	9.589863E-19
5.099818E+03	3.225769E-18	9.676664E-19
5.109720E+03	3.255284E-18	9.764920E-19
5.119623E+03	3.285290E-18	9.854641E-19
5.129525E+03	3.315756E-18	9.945735E-19
5.139428E+03	3.346717E-18	1.003831E-18
5.149331E+03	3.378105E-18	1.013215E-18
5.159233E+03	3.409986E-18	1.022747E-18
5.169136E+03	3.442324E-18	1.032415E-18
5.179038E+03	3.475084E-18	1.042209E-18
5.188941E+03	3.508259E-18	1.052126E-18
5.198843E+03	3.541878E-18	1.062176E-18
5.208746E+03	3.575865E-18	1.072335E-18
5.218648E+03	3.610243E-18	1.082611E-18
5.228551E+03	3.645039E-18	1.093012E-18
5.238454E+03	3.680135E-18	1.103501E-18
5.248356E+03	3.715623E-18	1.114107E-18
5.258259E+03	3.751381E-18	1.124793E-18
5.268161E+03	3.787498E-18	1.135586E-18
5.278064E+03	3.823849E-18	1.146448E-18
5.287966E+03	3.860485E-18	1.157395E-18
5.297869E+03	3.897387E-18	1.168421E-18
5.307772E+03	3.934490E-18	1.179506E-18
5.317674E+03	3.971848E-18	1.190666E-18
5.327577E+03	4.009317E-18	1.201859E-18
5.337479E+03	4.046986E-18	1.213111E-18
5.347382E+03	4.084786E-18	1.224401E-18
5.357284E+03	4.122684E-18	1.235719E-18
5.367187E+03	4.160644E-18	1.247055E-18
5.377089E+03	4.198633E-18	1.258399E-18
5.386992E+03	4.236570E-18	1.269726E-18
5.396895E+03	4.274413E-18	1.281024E-18
5.406797E+03	4.312120E-18	1.292280E-18
5.416700E+03	4.349645E-18	1.303480E-18
5.426602E+03	4.386897E-18	1.314598E-18
5.436505E+03	4.423782E-18	1.325605E-18
5.446407E+03	4.460295E-18	1.336499E-18
5.456310E+03	4.496333E-18	1.347250E-18
5.466212E+03	4.531795E-18	1.357827E-18
5.476115E+03	4.566578E-18	1.368200E-18
5.486018E+03	4.600666E-18	1.378363E-18
5.495920E+03	4.633907E-18	1.388272E-18
5.505823E+03	4.666279E-18	1.397920E-18
5.515725E+03	4.697629E-18	1.407260E-18
5.525628E+03	4.727887E-18	1.416272E-18
5.535530E+03	4.757039E-18	1.424952E-18
5.545433E+03	4.784921E-18	1.433251E-18
5.555335E+03	4.811517E-18	1.441163E-18
5.565238E+03	4.836763E-18	1.448671E-18
5.575141E+03	4.860551E-18	1.455740E-18
5.585043E+03	4.882814E-18	1.462353E-18
5.594946E+03	4.903549E-18	1.468506E-18
5.604848E+03	4.922699E-18	1.474185E-18
5.614751E+03	4.940161E-18	1.479357E-18
5.624653E+03	4.955938E-18	1.484024E-18
5.634556E+03	4.970036E-18	1.488187E-18
5.644459E+03	4.982313E-18	1.491805E-18
5.654361E+03	4.992783E-18	1.494881E-18
5.664264E+03	5.001465E-18	1.497421E-18
5.674166E+03	5.008336E-18	1.499418E-18
5.684069E+03	5.013373E-18	1.500866E-18
5.693971E+03	5.016561E-18	1.501760E-18
5.703874E+03	5.017889E-18	1.502097E-18
5.713776E+03	5.017409E-18	1.501892E-18
5.723679E+03	5.015062E-18	1.501128E-18
5.733582E+03	5.010967E-18	1.499841E-18
5.743484E+03	5.005081E-18	1.498017E-18
5.753387E+03	4.997422E-18	1.495663E-18
5.763289E+03	4.988121E-18	1.492817E-18
5.773192E+03	4.977099E-18	1.489455E-18
5.783094E+03	4.964445E-18	1.485606E-18
5.792997E+03	4.950249E-18	1.481295E-18
5.802899E+03	4.934504E-18	1.476520E-18
5.812802E+03	4.917309E-18	1.471312E-18
5.822705E+03	4.898664E-18	1.465670E-18
5.832607E+03	4.878733E-18	1.459644E-18
5.842510E+03	4.857521E-18	1.453234E-18
5.852412E+03	4.835090E-18	1.446460E-18
5.862315E+03	4.811559E-18	1.439357E-18
5.872217E+03	4.786943E-18	1.431930E-18
5.882120E+03	4.761360E-18	1.424214E-18
5.892022E+03	4.734830E-18	1.416216E-18
5.901925E+03	4.707479E-18	1.407972E-18
5.911828E+03	4.679375E-18	1.399503E-18
5.921730E+03	4.650593E-18	1.390832E-18
5.931633E+03	4.621149E-18	1.381963E-18
5.941535E+03	4.591168E-18	1.372935E-18
5.951438E+03	4.560722E-18	1.363767E-18
5.961340E+03	4.529826E-18	1.354466E-18
5.971243E+03	4.498599E-18	1.345066E-18
5.981146E+03	4.467056E-18	1.335573E-18
5.991048E+03	4.435211E-18	1.325989E-18
6.000951E+03	4.403228E-18	1.316366E-18
6.010853E+03	4.371066E-18	1.306689E-18
6.020756E+03	4.338837E-18	1.296992E-18
6.030658E+03	4.306488E-18	1.287261E-18
6.040561E+03	4.274129E-18	1.277527E-18
6.050463E+03	4.241757E-18	1.267790E-18
6.060366E+03	4.209425E-18	1.258066E-18
6.070269E+03	4.177178E-18	1.248367E-18
6.080171E+03	4.145006E-18	1.238692E-18
6.090074E+03	4.112955E-18	1.229053E-18
6.099976E+03	4.081063E-18	1.219463E-18
6.109879E+03	4.049366E-18	1.209932E-18
6.119781E+03	4.017899E-18	1.200470E-18
6.129684E+03	3.986642E-18	1.191071E-18
6.139586E+03	3.955674E-18	1.181759E-18
6.149489E+03	3.925025E-18	1.172543E-18
6.159392E+03	3.894715E-18	1.163430E-18
6.169294E+03	3.864821E-18	1.154441E-18
6.179197E+03	3.835409E-18	1.145597E-18
6.189099E+03	3.806548E-18	1.136918E-18
6.199002E+03	3.778305E-18	1.128424E-18
6.208904E+03	3.750742E-18	1.120134E-18
6.218807E+03	3.723971E-18	1.112081E-18
6.228709E+03	3.697951E-18	1.104253E-18
6.238612E+03	3.672892E-18	1.096712E-18
6.248515E+03	3.648748E-18	1.089445E-18
6.258417E+03	3.625629E-18	1.082485E-18
6.268320E+03	3.603587E-18	1.075846E-18
6.278222E+03	3.582677E-18	1.069546E-18
6.288125E+03	3.562904E-18	1.063586E-18
6.298027E+03	3.544320E-18	1.057981E-18
6.307930E+03	3.526978E-18	1.052748E-18
6.317833E+03	3.510883E-18	1.047887E-18
6.327735E+03	3.496037E-18	1.043398E-18
6.337638E+03	3.482491E-18	1.039298E-18
6.347540E+03	3.470148E-18	1.035558E-18
6.357443E+03	3.459013E-18	1.032177E-18
6.367345E+03	3.449034E-18	1.029142E-18
6.377248E+03	3.440112E-18	1.026423E-18
6.387150E+03	3.432299E-18	1.024034E-18
6.397053E+03	3.425497E-18	1.021947E-18
6.406956E+03	3.419754E-18	1.020176E-18
6.416858E+03	3.415075E-18	1.018722E-18
6.426761E+03	3.411410E-18	1.017571E-18
6.436663E+03	3.408758E-18	1.016722E-18
6.446566E+03	3.407121E-18	1.016175E-18
6.456468E+03	3.406502E-18	1.015932E-18
6.466371E+03	3.406901E-18	1.015992E-18
6.476273E+03	3.408375E-18	1.016372E-18
6.486176E+03	3.410872E-18	1.017057E-18
6.496079E+03	3.414341E-18	1.018032E-18
6.505981E+03	3.418892E-18	1.019329E-18
6.515884E+03	3.424420E-18	1.020917E-18
6.525786E+03	3.430982E-18	1.022812E-18
6.535689E+03	3.438583E-18	1.025017E-18
6.545591E+03	3.447225E-18	1.027532E-18
6.555494E+03	3.456911E-18	1.030357E-18
6.565396E+03	3.467591E-18	1.033478E-18
6.575299E+03	3.479326E-18	1.036913E-18
6.585202E+03	3.492062E-18	1.040645E-18
6.595104E+03	3.505860E-18	1.044694E-18
6.605007E+03	3.520671E-18	1.049043E-18
6.614909E+03	3.536496E-18	1.053693E-18
6.624812E+03	3.553403E-18	1.058665E-18
6.634714E+03	3.571396E-18	1.063960E-18
6.644617E+03	3.590361E-18	1.069544E-18
6.654520E+03	3.610427E-18	1.075455E-18
6.664422E+03	3.631474E-18	1.081656E-18
6.674325E+03	3.653637E-18	1.088189E-18
6.684227E+03	3.676857E-18	1.095036E-18
6.694130E+03	3.701078E-18	1.102180E-18
6.704032E+03	3.726437E-18	1.109662E-18
6.713935E+03	3.752810E-18	1.117444E-18
6.723837E+03	3.780271E-18	1.125549E-18
6.733740E+03	3.808826E-18	1.133979E-18
6.743643E+03	3.838485E-18	1.142736E-18
6.753545E+03	3.869187E-18	1.151801E-18
6.763448E+03	3.901008E-18	1.161199E-18
6.773350E+03	3.933885E-18	1.170910E-18
6.783253E+03	3.967898E-18	1.180957E-18
6.793155E+03	4.002985E-18	1.191322E-18
6.803058E+03	4.039149E-18	1.202006E-18
6.812960E+03	4.076474E-18	1.213034E-18
6.822863E+03	4.114817E-18	1.224363E-18
6.832766E+03	4.154338E-18	1.236041E-18
6.842668E+03	4.194966E-18	1.248046E-18
6.852571E+03	4.236710E-18	1.260382E-18
6.862473E+03	4.279576E-18	1.273049E-18
6.872376E+03	4.323572E-18	1.286050E-18
6.882278E+03	4.368622E-18	1.299364E-18
6.892181E+03	4.414812E-18	1.313014E-18
6.902083E+03	4.462151E-18	1.327003E-18
6.911986E+03	4.510646E-18	1.341335E-18
6.921889E+03	4.560127E-18	1.355957E-18
6.931791E+03	4.610861E-18	1.370950E-18
6.941694E+03	4.662586E-18	1.386235E-18
6.951596E+03	4.715488E-18	1.401867E-18
6.961499E+03	4.769477E-18	1.417821E-18
6.971401E+03	4.824556E-18	1.434095E-18
6.981304E+03	4.880726E-18	1.450692E-18
6.991207E+03	4.937991E-18	1.467611E-18
7.001109E+03	4.996251E-18	1.484824E-18
7.011012E+03	5.055605E-18	1.502359E-18
7.020914E+03	5.116053E-18	1.520217E-18
7.030817E+03	5.177491E-18	1.538365E-18
7.040719E+03	5.240023E-18	1.556836E-18
7.050622E+03	5.303538E-18	1.575597E-18
7.060524E+03	5.368032E-18	1.594645E-18
7.070427E+03	5.433497E-18	1.613979E-18
7.080330E+03	5.500042E-18	1.633630E-18
7.090232E+03	5.567434E-18	1.653530E-18
7.100135E+03	5.635660E-18	1.673675E-18
7.110037E+03	5.704942E-18	1.694130E-18
7.119940E+03	5.775037E-18	1.714823E-18
7.129842E+03	5.845930E-18	1.735750E-18
7.139745E+03	5.917726E-18	1.756942E-18
7.149647E+03	5.990289E-18	1.778359E-18
7.159550E+03	6.063602E-18	1.799995E-18
7.169453E+03	6.137643E-18	1.821843E-18
7.179355E+03	6.212393E-18	1.843899E-18
7.189258E+03	6.287967E-18	1.866195E-18
7.199160E+03	6.364072E-18	1.888646E-18
7.209063E+03	6.440961E-18	1.911326E-18
7.218965E+03	6.518472E-18	1.934187E-18
7.228868E+03	6.596580E-18	1.957222E-18
7.238770E+03	6.675406E-18	1.980466E-18
7.248673E+03	6.754779E-18	2.003869E-18
7.258576E+03	6.834823E-18	2.027467E-18
7.268478E+03	6.915517E-18	2.051254E-18
7.278381E+03	6.996993E-18	2.075270E-18
7.288283E+03	7.079234E-18	2.099509E-18
7.298186E+03	7.162387E-18	2.124014E-18
7.308088E+03	7.246275E-18	2.148734E-18
7.317991E+03	7.331382E-18	2.173811E-18
7.327894E+03	7.417714E-18	2.199247E-18
7.337796E+03	7.505102E-18	2.224993E-18
7.347699E+03	7.594069E-18	2.251203E-18
7.357601E+03	7.684459E-18	2.277831E-18
7.367504E+03	7.776464E-18	2.304933E-18
7.377406E+03	7.869923E-18	2.332462E-18
7.387309E+03	7.965033E-18	2.360476E-18
7.397211E+03	8.061245E-18	2.388812E-18
7.407114E+03	8.158941E-18	2.417584E-18
7.417017E+03	8.257541E-18	2.446619E-18
7.426919E+03	8.357228E-18	2.475972E-18
7.436822E+03	8.457794E-18	2.505581E-18
7.446724E+03	8.559012E-18	2.535378E-18
7.456627E+03	8.661063E-18	2.565418E-18
7.466529E+03	8.763292E-18	2.595506E-18
7.476432E+03	8.866077E-18	2.625754E-18
7.486334E+03	8.969167E-18	2.656087E-18
7.496237E+03	9.072519E-18	2.686494E-18
7.506140E+03	9.175863E-18	2.716894E-18
7.516042E+03	9.279371E-18	2.747338E-18
7.525945E+03	9.382762E-18	2.777743E-18
7.535847E+03	9.485976E-18	2.808091E-18
7.545750E+03	9.589193E-18	2.838435E-18
7.555652E+03	9.692117E-18	2.868688E-18
7.565555E+03	9.794927E-18	2.898903E-18
7.575457E+03	9.897072E-18	2.928917E-18
7.585360E+03	9.998978E-18	2.958855E-18
7.595263E+03	1.010033E-17	2.988626E-18
7.605165E+03	1.020132E-17	3.018284E-18
7.615068E+03	1.030162E-17	3.047735E-18
7.624970E+03	1.040116E-17	3.076957E-18
7.634873E+03	1.049986E-17	3.105927E-18
7.644775E+03	1.059821E-17	3.134786E-18
7.654678E+03	1.069530E-17	3.163272E-18
7.664581E+03	1.079191E-17	3.191609E-18
7.674483E+03	1.088739E-17	3.219612E-18
7.684386E+03	1.098197E-17	3.247342E-18
