#wls	flux	fluxerr
1.584409E+03	1.316159E-16	2.016038E-17
1.624020E+03	1.365490E-16	2.091480E-17
1.663630E+03	1.409603E-16	2.158914E-17
1.703240E+03	1.447810E-16	2.217287E-17
1.742850E+03	1.478837E-16	2.264648E-17
1.782461E+03	1.501745E-16	2.299561E-17
1.822071E+03	1.514416E-16	2.318785E-17
1.861681E+03	1.515269E-16	2.319903E-17
1.901291E+03	1.502484E-16	2.300130E-17
1.940902E+03	1.474494E-16	2.257076E-17
1.980512E+03	1.431558E-16	2.191143E-17
2.020122E+03	1.376155E-16	2.106132E-17
2.059732E+03	1.314485E-16	2.011535E-17
2.099342E+03	1.256069E-16	1.921929E-17
2.138953E+03	1.210445E-16	1.851903E-17
2.178563E+03	1.182318E-16	1.808648E-17
2.218173E+03	1.169080E-16	1.788167E-17
2.257783E+03	1.163002E-16	1.778632E-17
2.297394E+03	1.155716E-16	1.767238E-17
2.337004E+03	1.141558E-16	1.745331E-17
2.376614E+03	1.117636E-16	1.708491E-17
2.416224E+03	1.083492E-16	1.656028E-17
2.455835E+03	1.039913E-16	1.589152E-17
2.495445E+03	9.885435E-17	1.510384E-17
2.535055E+03	9.311458E-17	1.422423E-17
2.574665E+03	8.695715E-17	1.328105E-17
2.614276E+03	8.054377E-17	1.229905E-17
2.653886E+03	7.402081E-17	1.130061E-17
2.693496E+03	6.751713E-17	1.030545E-17
2.733106E+03	6.113740E-17	9.329541E-18
2.772716E+03	5.497130E-17	8.386595E-18
2.812327E+03	4.909158E-17	7.487705E-18
2.851937E+03	4.355838E-17	6.642033E-18
2.891547E+03	3.841922E-17	5.856803E-18
2.931157E+03	3.370651E-17	5.136934E-18
2.970768E+03	2.943852E-17	4.485174E-18
2.980670E+03	2.844160E-17	4.332962E-18
2.990573E+03	2.747207E-17	4.184942E-18
3.000475E+03	2.653084E-17	4.041252E-18
3.010378E+03	2.561633E-17	3.901650E-18
3.020280E+03	2.472930E-17	3.766252E-18
3.030183E+03	2.386928E-17	3.634987E-18
3.040086E+03	2.303655E-17	3.507893E-18
3.049988E+03	2.223051E-17	3.384882E-18
3.059891E+03	2.145278E-17	3.266199E-18
3.069793E+03	2.070142E-17	3.151545E-18
3.079696E+03	1.997633E-17	3.040909E-18
3.089598E+03	1.927656E-17	2.934141E-18
3.099501E+03	1.860087E-17	2.831055E-18
3.109403E+03	1.794926E-17	2.731647E-18
3.119306E+03	1.732060E-17	2.635747E-18
3.129209E+03	1.671453E-17	2.543299E-18
3.139111E+03	1.613036E-17	2.454196E-18
3.149014E+03	1.556741E-17	2.368336E-18
3.158916E+03	1.502531E-17	2.285659E-18
3.168819E+03	1.450339E-17	2.206066E-18
3.178721E+03	1.400077E-17	2.129421E-18
3.188624E+03	1.351738E-17	2.055712E-18
3.198526E+03	1.305251E-17	1.984831E-18
3.208429E+03	1.260594E-17	1.916744E-18
3.218332E+03	1.217721E-17	1.851381E-18
3.228234E+03	1.176569E-17	1.788645E-18
3.238137E+03	1.137129E-17	1.728520E-18
3.248039E+03	1.099317E-17	1.670881E-18
3.257942E+03	1.063119E-17	1.615705E-18
3.267844E+03	1.028483E-17	1.562912E-18
3.277747E+03	9.953300E-18	1.512380E-18
3.287650E+03	9.636403E-18	1.464081E-18
3.297552E+03	9.333640E-18	1.417937E-18
3.307455E+03	9.044393E-18	1.373855E-18
3.317357E+03	8.768196E-18	1.331762E-18
3.327260E+03	8.504592E-18	1.291589E-18
3.337162E+03	8.253139E-18	1.253269E-18
3.347065E+03	8.013393E-18	1.216733E-18
3.356967E+03	7.784924E-18	1.181916E-18
3.366870E+03	7.567216E-18	1.148738E-18
3.376773E+03	7.359770E-18	1.117125E-18
3.386675E+03	7.162387E-18	1.087044E-18
3.396578E+03	6.974415E-18	1.058397E-18
3.406480E+03	6.795583E-18	1.031142E-18
3.416383E+03	6.625458E-18	1.005214E-18
3.426285E+03	6.463710E-18	9.805610E-19
3.436188E+03	6.309864E-18	9.571113E-19
3.446090E+03	6.163552E-18	9.348088E-19
3.455993E+03	6.024495E-18	9.136108E-19
3.465896E+03	5.892292E-18	8.934560E-19
3.475798E+03	5.766696E-18	8.743067E-19
3.485701E+03	5.647224E-18	8.560895E-19
3.495603E+03	5.533674E-18	8.387733E-19
3.505506E+03	5.425675E-18	8.223017E-19
3.515408E+03	5.322943E-18	8.066315E-19
3.525311E+03	5.225210E-18	7.917218E-19
3.535213E+03	5.132122E-18	7.775186E-19
3.545116E+03	5.043554E-18	7.640028E-19
3.555019E+03	4.959234E-18	7.511330E-19
3.564921E+03	4.878907E-18	7.388703E-19
3.574824E+03	4.802477E-18	7.272001E-19
3.584726E+03	4.729664E-18	7.160797E-19
3.594629E+03	4.660299E-18	7.054833E-19
3.604531E+03	4.594220E-18	6.953862E-19
3.614434E+03	4.531276E-18	6.857657E-19
3.624337E+03	4.471325E-18	6.765997E-19
3.634239E+03	4.414232E-18	6.678678E-19
3.644142E+03	4.359908E-18	6.595565E-19
3.654044E+03	4.308271E-18	6.516529E-19
3.663947E+03	4.259197E-18	6.441385E-19
3.673849E+03	4.212720E-18	6.370182E-19
3.683752E+03	4.168685E-18	6.302682E-19
3.693654E+03	4.127085E-18	6.238875E-19
3.703557E+03	4.087838E-18	6.178634E-19
3.713460E+03	4.050897E-18	6.121888E-19
3.723362E+03	4.016284E-18	6.068668E-19
3.733265E+03	3.983843E-18	6.018739E-19
3.743167E+03	3.953594E-18	5.972126E-19
3.753070E+03	3.925516E-18	5.928800E-19
3.762972E+03	3.899493E-18	5.888582E-19
3.772875E+03	3.875535E-18	5.851486E-19
3.782777E+03	3.853624E-18	5.817483E-19
3.792680E+03	3.833675E-18	5.786445E-19
3.802583E+03	3.815635E-18	5.758290E-19
3.812485E+03	3.799546E-18	5.733078E-19
3.822388E+03	3.785294E-18	5.710639E-19
3.832290E+03	3.772890E-18	5.690986E-19
3.842193E+03	3.762282E-18	5.674040E-19
3.852095E+03	3.753450E-18	5.659769E-19
3.861998E+03	3.746374E-18	5.648142E-19
3.871900E+03	3.740974E-18	5.639037E-19
3.881803E+03	3.737233E-18	5.632427E-19
3.891706E+03	3.735163E-18	5.628329E-19
3.901608E+03	3.734717E-18	5.626669E-19
3.911511E+03	3.735848E-18	5.627378E-19
3.921413E+03	3.738539E-18	5.630428E-19
3.931316E+03	3.742746E-18	5.635749E-19
3.941218E+03	3.748451E-18	5.643315E-19
3.951121E+03	3.755638E-18	5.653100E-19
3.961024E+03	3.764291E-18	5.665079E-19
3.970926E+03	3.774339E-18	5.679144E-19
3.980829E+03	3.785769E-18	5.695273E-19
3.990731E+03	3.798571E-18	5.713450E-19
4.000634E+03	3.812734E-18	5.733658E-19
4.010536E+03	3.828220E-18	5.755838E-19
4.020439E+03	3.844994E-18	5.779935E-19
4.030341E+03	3.863051E-18	5.805941E-19
4.040244E+03	3.882354E-18	5.833801E-19
4.050147E+03	3.902903E-18	5.863511E-19
4.060049E+03	3.924662E-18	5.895016E-19
4.069952E+03	3.947626E-18	5.928308E-19
4.079854E+03	3.971759E-18	5.963332E-19
4.089757E+03	3.997027E-18	6.000034E-19
4.099659E+03	4.023426E-18	6.038407E-19
4.109562E+03	4.050918E-18	6.078395E-19
4.119464E+03	4.079503E-18	6.119994E-19
4.129367E+03	4.109118E-18	6.163109E-19
4.139270E+03	4.139760E-18	6.207735E-19
4.149172E+03	4.171369E-18	6.253779E-19
4.159075E+03	4.203975E-18	6.301287E-19
4.168977E+03	4.237519E-18	6.350167E-19
4.178880E+03	4.272001E-18	6.400420E-19
4.188782E+03	4.307324E-18	6.451897E-19
4.198685E+03	4.343522E-18	6.504650E-19
4.208587E+03	4.380493E-18	6.558523E-19
4.218490E+03	4.418271E-18	6.613566E-19
4.228393E+03	4.456749E-18	6.669620E-19
4.238295E+03	4.495855E-18	6.726574E-19
4.248198E+03	4.535621E-18	6.784475E-19
4.258100E+03	4.575901E-18	6.843104E-19
4.268003E+03	4.616731E-18	6.902513E-19
4.277905E+03	4.657964E-18	6.962484E-19
4.287808E+03	4.699637E-18	7.023067E-19
4.297711E+03	4.741678E-18	7.084156E-19
4.307613E+03	4.784013E-18	7.145640E-19
4.317516E+03	4.826642E-18	7.207519E-19
4.327418E+03	4.869529E-18	7.269735E-19
4.337321E+03	4.912710E-18	7.332344E-19
4.347223E+03	4.956109E-18	7.395230E-19
4.357126E+03	4.999803E-18	7.458510E-19
4.367028E+03	5.043796E-18	7.522186E-19
4.376931E+03	5.088090E-18	7.586261E-19
4.386834E+03	5.132690E-18	7.650742E-19
4.396736E+03	5.177639E-18	7.715692E-19
4.406639E+03	5.222905E-18	7.781063E-19
4.416541E+03	5.268540E-18	7.846930E-19
4.426444E+03	5.314557E-18	7.913314E-19
4.436346E+03	5.360972E-18	7.980235E-19
4.446249E+03	5.407753E-18	8.047646E-19
4.456151E+03	5.454915E-18	8.115567E-19
4.466054E+03	5.502423E-18	8.183947E-19
4.475957E+03	5.550336E-18	8.252871E-19
4.485859E+03	5.598569E-18	8.322211E-19
4.495762E+03	5.647131E-18	8.391982E-19
4.505664E+03	5.696029E-18	8.462191E-19
4.515567E+03	5.745173E-18	8.532704E-19
4.525469E+03	5.794617E-18	8.603601E-19
4.535372E+03	5.844272E-18	8.674747E-19
4.545274E+03	5.894148E-18	8.746158E-19
4.555177E+03	5.944154E-18	8.817696E-19
4.565080E+03	5.994356E-18	8.889462E-19
4.574982E+03	6.044723E-18	8.961404E-19
4.584885E+03	6.095169E-18	9.033397E-19
4.594787E+03	6.145718E-18	9.105475E-19
4.604690E+03	6.196395E-18	9.177673E-19
4.614592E+03	6.247175E-18	9.249955E-19
4.624495E+03	6.297976E-18	9.322198E-19
4.634398E+03	6.348941E-18	9.394612E-19
4.644300E+03	6.400105E-18	9.467250E-19
4.654203E+03	6.451398E-18	9.540005E-19
4.664105E+03	6.502862E-18	9.612940E-19
4.674008E+03	6.554543E-18	9.686122E-19
4.683910E+03	6.606314E-18	9.759362E-19
4.693813E+03	6.658225E-18	9.832732E-19
4.703715E+03	6.710205E-18	9.906128E-19
4.713618E+03	6.762310E-18	9.979629E-19
4.723521E+03	6.814534E-18	1.005323E-18
4.733423E+03	6.866812E-18	1.012683E-18
4.743326E+03	6.919206E-18	1.020052E-18
4.753228E+03	6.971649E-18	1.027420E-18
4.763131E+03	7.024207E-18	1.034797E-18
4.773033E+03	7.076819E-18	1.042173E-18
4.782936E+03	7.129491E-18	1.049550E-18
4.792838E+03	7.182224E-18	1.056928E-18
4.802741E+03	7.235090E-18	1.064317E-18
4.812644E+03	7.288027E-18	1.071707E-18
4.822546E+03	7.341034E-18	1.079099E-18
4.832449E+03	7.394048E-18	1.086483E-18
4.842351E+03	7.447206E-18	1.093880E-18
4.852254E+03	7.500441E-18	1.101278E-18
4.862156E+03	7.553744E-18	1.108678E-18
4.872059E+03	7.607035E-18	1.116067E-18
4.881961E+03	7.660373E-18	1.123453E-18
4.891864E+03	7.713668E-18	1.130824E-18
4.901767E+03	7.766897E-18	1.138175E-18
4.911669E+03	7.820117E-18	1.145516E-18
4.921572E+03	7.873236E-18	1.152832E-18
4.931474E+03	7.926240E-18	1.160122E-18
4.941377E+03	7.979033E-18	1.167372E-18
4.951279E+03	8.031669E-18	1.174588E-18
4.961182E+03	8.084125E-18	1.181769E-18
4.971085E+03	8.136296E-18	1.188897E-18
4.980987E+03	8.188145E-18	1.195969E-18
4.990890E+03	8.239634E-18	1.202978E-18
5.000792E+03	8.290646E-18	1.209907E-18
5.010695E+03	8.341213E-18	1.216762E-18
5.020597E+03	8.391295E-18	1.223535E-18
5.030500E+03	8.440682E-18	1.230197E-18
5.040402E+03	8.489417E-18	1.236754E-18
5.050305E+03	8.537459E-18	1.243200E-18
5.060208E+03	8.584688E-18	1.249517E-18
5.070110E+03	8.631079E-18	1.255702E-18
5.080013E+03	8.676606E-18	1.261752E-18
5.089915E+03	8.721247E-18	1.267662E-18
5.099818E+03	8.764900E-18	1.273419E-18
5.109720E+03	8.807640E-18	1.279033E-18
5.119623E+03	8.849278E-18	1.284477E-18
5.129525E+03	8.889874E-18	1.289761E-18
5.139428E+03	8.929314E-18	1.294866E-18
5.149331E+03	8.967567E-18	1.299790E-18
5.159233E+03	9.004591E-18	1.304526E-18
5.169136E+03	9.040339E-18	1.309068E-18
5.179038E+03	9.074583E-18	1.313382E-18
5.188941E+03	9.107433E-18	1.317486E-18
5.198843E+03	9.138726E-18	1.321355E-18
5.208746E+03	9.168382E-18	1.324978E-18
5.218648E+03	9.196209E-18	1.328329E-18
5.228551E+03	9.222093E-18	1.331390E-18
5.238454E+03	9.245925E-18	1.334146E-18
5.248356E+03	9.267604E-18	1.336584E-18
5.258259E+03	9.287028E-18	1.338689E-18
5.268161E+03	9.304011E-18	1.340434E-18
5.278064E+03	9.318667E-18	1.341837E-18
5.287966E+03	9.330749E-18	1.342862E-18
5.297869E+03	9.340203E-18	1.343502E-18
5.307772E+03	9.347188E-18	1.343782E-18
5.317674E+03	9.351502E-18	1.343671E-18
5.327577E+03	9.353315E-18	1.343196E-18
5.337479E+03	9.352532E-18	1.342342E-18
5.347382E+03	9.349246E-18	1.341125E-18
5.357284E+03	9.343369E-18	1.339532E-18
5.367187E+03	9.335110E-18	1.337593E-18
5.377089E+03	9.324403E-18	1.335300E-18
5.386992E+03	9.311376E-18	1.332672E-18
5.396895E+03	9.295901E-18	1.329690E-18
5.406797E+03	9.278135E-18	1.326378E-18
5.416700E+03	9.258055E-18	1.322734E-18
5.426602E+03	9.235656E-18	1.318756E-18
5.436505E+03	9.211123E-18	1.314473E-18
5.446407E+03	9.184371E-18	1.309872E-18
5.456310E+03	9.155423E-18	1.304958E-18
5.466212E+03	9.124404E-18	1.299748E-18
5.476115E+03	9.091251E-18	1.294235E-18
5.486018E+03	9.056187E-18	1.288450E-18
5.495920E+03	9.019071E-18	1.282375E-18
5.505823E+03	8.980214E-18	1.276053E-18
5.515725E+03	8.939661E-18	1.269492E-18
5.525628E+03	8.897451E-18	1.262698E-18
5.535530E+03	8.853716E-18	1.255691E-18
5.545433E+03	8.808583E-18	1.248488E-18
5.555335E+03	8.762087E-18	1.241094E-18
5.565238E+03	8.714527E-18	1.233554E-18
5.575141E+03	8.665828E-18	1.225856E-18
5.585043E+03	8.616270E-18	1.218040E-18
5.594946E+03	8.565768E-18	1.210095E-18
5.604848E+03	8.514591E-18	1.202060E-18
5.614751E+03	8.462822E-18	1.193945E-18
5.624653E+03	8.410457E-18	1.185751E-18
5.634556E+03	8.357655E-18	1.177500E-18
5.644459E+03	8.304487E-18	1.169202E-18
5.654361E+03	8.251103E-18	1.160880E-18
5.664264E+03	8.197562E-18	1.152541E-18
5.674166E+03	8.143839E-18	1.144181E-18
5.684069E+03	8.090154E-18	1.135833E-18
5.693971E+03	8.036566E-18	1.127504E-18
5.703874E+03	7.983043E-18	1.119189E-18
5.713776E+03	7.929722E-18	1.110909E-18
5.723679E+03	7.876738E-18	1.102682E-18
5.733582E+03	7.824143E-18	1.094515E-18
5.743484E+03	7.771901E-18	1.086403E-18
5.753387E+03	7.720154E-18	1.078366E-18
5.763289E+03	7.669044E-18	1.070423E-18
5.773192E+03	7.618624E-18	1.062583E-18
5.783094E+03	7.568872E-18	1.054842E-18
5.792997E+03	7.519927E-18	1.047218E-18
5.802899E+03	7.471848E-18	1.039721E-18
5.812802E+03	7.424786E-18	1.032370E-18
5.822705E+03	7.378814E-18	1.025176E-18
5.832607E+03	7.333916E-18	1.018136E-18
5.842510E+03	7.290249E-18	1.011272E-18
5.852412E+03	7.247798E-18	1.004581E-18
5.862315E+03	7.206873E-18	9.981065E-19
5.872217E+03	7.167281E-18	9.918204E-19
5.882120E+03	7.129153E-18	9.857408E-19
5.892022E+03	7.092612E-18	9.798841E-19
5.901925E+03	7.057611E-18	9.742434E-19
5.911828E+03	7.024177E-18	9.688222E-19
5.921730E+03	6.992419E-18	9.636348E-19
5.931633E+03	6.962274E-18	9.586719E-19
5.941535E+03	6.933837E-18	9.539462E-19
5.951438E+03	6.906961E-18	9.494370E-19
5.961340E+03	6.881811E-18	9.451665E-19
5.971243E+03	6.858232E-18	9.411126E-19
5.981146E+03	6.836387E-18	9.372972E-19
5.991048E+03	6.816033E-18	9.336864E-19
6.000951E+03	6.797324E-18	9.303011E-19
6.010853E+03	6.780175E-18	9.271287E-19
6.020756E+03	6.764574E-18	9.241672E-19
6.030658E+03	6.750350E-18	9.213926E-19
6.040561E+03	6.737650E-18	9.188245E-19
6.050463E+03	6.726214E-18	9.164271E-19
6.060366E+03	6.716186E-18	9.142193E-19
6.070269E+03	6.707303E-18	9.121649E-19
6.080171E+03	6.699539E-18	9.102599E-19
6.090074E+03	6.692788E-18	9.084896E-19
6.099976E+03	6.687022E-18	9.068497E-19
6.109879E+03	6.681962E-18	9.053022E-19
6.119781E+03	6.677573E-18	9.038418E-19
6.129684E+03	6.673737E-18	9.024524E-19
6.139586E+03	6.670413E-18	9.011284E-19
6.149489E+03	6.667562E-18	8.998641E-19
6.159392E+03	6.665311E-18	8.986767E-19
6.169294E+03	6.663879E-18	8.975951E-19
6.179197E+03	6.663314E-18	8.966257E-19
6.189099E+03	6.663757E-18	8.957869E-19
6.199002E+03	6.665347E-18	8.950972E-19
6.208904E+03	6.668144E-18	8.945640E-19
6.218807E+03	6.672300E-18	8.942071E-19
6.228709E+03	6.677881E-18	8.940349E-19
6.238612E+03	6.684955E-18	8.940559E-19
6.248515E+03	6.693689E-18	8.942916E-19
6.258417E+03	6.704069E-18	8.947395E-19
6.268320E+03	6.716271E-18	8.954223E-19
6.278222E+03	6.730195E-18	8.963259E-19
6.288125E+03	6.745928E-18	8.974612E-19
6.298027E+03	6.763468E-18	8.988271E-19
6.307930E+03	6.782910E-18	9.004353E-19
6.317833E+03	6.804160E-18	9.022724E-19
6.327735E+03	6.827220E-18	9.043378E-19
6.337638E+03	6.851994E-18	9.066182E-19
6.347540E+03	6.878283E-18	9.090864E-19
6.357443E+03	6.905983E-18	9.117279E-19
6.367345E+03	6.935092E-18	9.145416E-19
6.377248E+03	6.965602E-18	9.175259E-19
6.387150E+03	6.997511E-18	9.206797E-19
6.397053E+03	7.030919E-18	9.240157E-19
6.406956E+03	7.065936E-18	9.275473E-19
6.416858E+03	7.102567E-18	9.312745E-19
6.426761E+03	7.140709E-18	9.351830E-19
6.436663E+03	7.180586E-18	9.393012E-19
6.446566E+03	7.222211E-18	9.436299E-19
6.456468E+03	7.265483E-18	9.481551E-19
6.466371E+03	7.310528E-18	9.528922E-19
6.476273E+03	7.357357E-18	9.578420E-19
6.486176E+03	7.405872E-18	9.629905E-19
6.496079E+03	7.456083E-18	9.683383E-19
6.505981E+03	7.508245E-18	9.739175E-19
6.515884E+03	7.562016E-18	9.796826E-19
6.525786E+03	7.617651E-18	9.856658E-19
6.535689E+03	7.675171E-18	9.918688E-19
6.545591E+03	7.734347E-18	9.982609E-19
6.555494E+03	7.795441E-18	1.004875E-18
6.565396E+03	7.858220E-18	1.011680E-18
6.575299E+03	7.922959E-18	1.018711E-18
6.585202E+03	7.989412E-18	1.025934E-18
6.595104E+03	8.057727E-18	1.033368E-18
6.605007E+03	8.127924E-18	1.041013E-18
6.614909E+03	8.199881E-18	1.048855E-18
6.624812E+03	8.273611E-18	1.056892E-18
6.634714E+03	8.349273E-18	1.065144E-18
6.644617E+03	8.426742E-18	1.073595E-18
6.654520E+03	8.506034E-18	1.082244E-18
6.664422E+03	8.587168E-18	1.091094E-18
6.674325E+03	8.670160E-18	1.100146E-18
6.684227E+03	8.755031E-18	1.109400E-18
6.694130E+03	8.841801E-18	1.118858E-18
6.704032E+03	8.930332E-18	1.128502E-18
6.713935E+03	9.020798E-18	1.138353E-18
6.723837E+03	9.113221E-18	1.148411E-18
6.733740E+03	9.207457E-18	1.158658E-18
6.743643E+03	9.303690E-18	1.169116E-18
6.753545E+03	9.401770E-18	1.179764E-18
6.763448E+03	9.501720E-18	1.190605E-18
6.773350E+03	9.603538E-18	1.201636E-18
6.783253E+03	9.707260E-18	1.212862E-18
6.793155E+03	9.813061E-18	1.224302E-18
6.803058E+03	9.920622E-18	1.235915E-18
6.812960E+03	1.003012E-17	1.247723E-18
6.822863E+03	1.014159E-17	1.259728E-18
6.832766E+03	1.025483E-17	1.271905E-18
6.842668E+03	1.037008E-17	1.284282E-18
6.852571E+03	1.048734E-17	1.296856E-18
6.862473E+03	1.060643E-17	1.309605E-18
6.872376E+03	1.072735E-17	1.322529E-18
6.882278E+03	1.085034E-17	1.335652E-18
6.892181E+03	1.097518E-17	1.348951E-18
6.902083E+03	1.110189E-17	1.362424E-18
6.911986E+03	1.123048E-17	1.376071E-18
6.921889E+03	1.136095E-17	1.389892E-18
6.931791E+03	1.149308E-17	1.403856E-18
6.941694E+03	1.162731E-17	1.418019E-18
6.951596E+03	1.176319E-17	1.432324E-18
6.961499E+03	1.190097E-17	1.446798E-18
6.971401E+03	1.204040E-17	1.461412E-18
6.981304E+03	1.218147E-17	1.476162E-18
6.991207E+03	1.232442E-17	1.491076E-18
7.001109E+03	1.246901E-17	1.506124E-18
7.011012E+03	1.261497E-17	1.521273E-18
7.020914E+03	1.276280E-17	1.536580E-18
7.030817E+03	1.291222E-17	1.552013E-18
7.040719E+03	1.306296E-17	1.567536E-18
7.050622E+03	1.321527E-17	1.583179E-18
7.060524E+03	1.336887E-17	1.598906E-18
7.070427E+03	1.352398E-17	1.614746E-18
7.080330E+03	1.368033E-17	1.630661E-18
7.090232E+03	1.383816E-17	1.646682E-18
7.100135E+03	1.399688E-17	1.662736E-18
7.110037E+03	1.415674E-17	1.678853E-18
7.119940E+03	1.431801E-17	1.695063E-18
7.129842E+03	1.448004E-17	1.711290E-18
7.139745E+03	1.464281E-17	1.727529E-18
7.149647E+03	1.480659E-17	1.743811E-18
7.159550E+03	1.497133E-17	1.760131E-18
7.169453E+03	1.513668E-17	1.776447E-18
7.179355E+03	1.530291E-17	1.792789E-18
7.189258E+03	1.546965E-17	1.809114E-18
7.199160E+03	1.563685E-17	1.825416E-18
7.209063E+03	1.580478E-17	1.841724E-18
7.218965E+03	1.597304E-17	1.857994E-18
7.228868E+03	1.614192E-17	1.874256E-18
7.238770E+03	1.631097E-17	1.890460E-18
7.248673E+03	1.648011E-17	1.906595E-18
7.258576E+03	1.664998E-17	1.922736E-18
7.268478E+03	1.681977E-17	1.938788E-18
7.278381E+03	1.699016E-17	1.954830E-18
7.288283E+03	1.716067E-17	1.970806E-18
7.298186E+03	1.733165E-17	1.986756E-18
7.308088E+03	1.750344E-17	2.002719E-18
7.317991E+03	1.767560E-17	2.018644E-18
7.327894E+03	1.784892E-17	2.034621E-18
7.337796E+03	1.802340E-17	2.050649E-18
7.347699E+03	1.819947E-17	2.066775E-18
7.357601E+03	1.837715E-17	2.083003E-18
7.367504E+03	1.855649E-17	2.099336E-18
7.377406E+03	1.873794E-17	2.115824E-18
7.387309E+03	1.892072E-17	2.132377E-18
7.397211E+03	1.910485E-17	2.148997E-18
7.407114E+03	1.928990E-17	2.165636E-18
7.417017E+03	1.947638E-17	2.182349E-18
7.426919E+03	1.966387E-17	2.199089E-18
7.436822E+03	1.985191E-17	2.215804E-18
7.446724E+03	2.004055E-17	2.232501E-18
7.456627E+03	2.022980E-17	2.249178E-18
7.466529E+03	2.041919E-17	2.265784E-18
7.476432E+03	2.060926E-17	2.282380E-18
7.486334E+03	2.079907E-17	2.298859E-18
7.496237E+03	2.098965E-17	2.315339E-18
7.506140E+03	2.118058E-17	2.331770E-18
7.516042E+03	2.137191E-17	2.348160E-18
7.525945E+03	2.156320E-17	2.364459E-18
7.535847E+03	2.175498E-17	2.380727E-18
7.545750E+03	2.194726E-17	2.396962E-18
7.555652E+03	2.214002E-17	2.413166E-18
7.565555E+03	2.233266E-17	2.429271E-18
7.575457E+03	2.252564E-17	2.445328E-18
7.585360E+03	2.271829E-17	2.461264E-18
7.595263E+03	2.291160E-17	2.477186E-18
7.605165E+03	2.310367E-17	2.492890E-18
7.615068E+03	2.329607E-17	2.508545E-18
7.624970E+03	2.348800E-17	2.524066E-18
7.634873E+03	2.367870E-17	2.539371E-18
7.644775E+03	2.386850E-17	2.554497E-18
7.654678E+03	2.405720E-17	2.569423E-18
7.664581E+03	2.424455E-17	2.584124E-18
7.674483E+03	2.443030E-17	2.598574E-18
7.684386E+03	2.461483E-17	2.612814E-18
