#wls	flux	fluxerr
1.584409E+03	9.422664E-17	1.824036E-17
1.624020E+03	9.788317E-17	1.894801E-17
1.663630E+03	1.011837E-16	1.958672E-17
1.703240E+03	1.040791E-16	2.014696E-17
1.742850E+03	1.064772E-16	2.061090E-17
1.782461E+03	1.083097E-16	2.096533E-17
1.822071E+03	1.094220E-16	2.118032E-17
1.861681E+03	1.096970E-16	2.123322E-17
1.901291E+03	1.089991E-16	2.109775E-17
1.940902E+03	1.072087E-16	2.075082E-17
1.980512E+03	1.043378E-16	2.019472E-17
2.020122E+03	1.005592E-16	1.946295E-17
2.059732E+03	9.631919E-17	1.864187E-17
2.099342E+03	9.231254E-17	1.786597E-17
2.138953E+03	8.924316E-17	1.727147E-17
2.178563E+03	8.746728E-17	1.692731E-17
2.218173E+03	8.680439E-17	1.679852E-17
2.257783E+03	8.669120E-17	1.677608E-17
2.297394E+03	8.650853E-17	1.674017E-17
2.337004E+03	8.583055E-17	1.660838E-17
2.376614E+03	8.443220E-17	1.633719E-17
2.416224E+03	8.226783E-17	1.591776E-17
2.455835E+03	7.938438E-17	1.535921E-17
2.495445E+03	7.589378E-17	1.468320E-17
2.535055E+03	7.191874E-17	1.391351E-17
2.574665E+03	6.759030E-17	1.307548E-17
2.614276E+03	6.302376E-17	1.219145E-17
2.653886E+03	5.832475E-17	1.128186E-17
2.693496E+03	5.358773E-17	1.036498E-17
2.733106E+03	4.889056E-17	9.455889E-18
2.772716E+03	4.430174E-17	8.567835E-18
2.812327E+03	3.987864E-17	7.711917E-18
2.851937E+03	3.567091E-17	6.897737E-18
2.891547E+03	3.172030E-17	6.133365E-18
2.931157E+03	2.805838E-17	5.424899E-18
2.970768E+03	2.470688E-17	4.776539E-18
2.980670E+03	2.391893E-17	4.624113E-18
2.990573E+03	2.315068E-17	4.475500E-18
3.000475E+03	2.240300E-17	4.330871E-18
3.010378E+03	2.167471E-17	4.189993E-18
3.020280E+03	2.096659E-17	4.053020E-18
3.030183E+03	2.027837E-17	3.919898E-18
3.040086E+03	1.961043E-17	3.790702E-18
3.049988E+03	1.896241E-17	3.665359E-18
3.059891E+03	1.833584E-17	3.544169E-18
3.069793E+03	1.772921E-17	3.426836E-18
3.079696E+03	1.714257E-17	3.313372E-18
3.089598E+03	1.657527E-17	3.203651E-18
3.099501E+03	1.602638E-17	3.097491E-18
3.109403E+03	1.549598E-17	2.994910E-18
3.119306E+03	1.498324E-17	2.895744E-18
3.129209E+03	1.448793E-17	2.799952E-18
3.139111E+03	1.400957E-17	2.707440E-18
3.149014E+03	1.354772E-17	2.618122E-18
3.158916E+03	1.310217E-17	2.531958E-18
3.168819E+03	1.267249E-17	2.448864E-18
3.178721E+03	1.225805E-17	2.368718E-18
3.188624E+03	1.185891E-17	2.291530E-18
3.198526E+03	1.147444E-17	2.217182E-18
3.208429E+03	1.110447E-17	2.145640E-18
3.218332E+03	1.074864E-17	2.076831E-18
3.228234E+03	1.040639E-17	2.010650E-18
3.238137E+03	1.007770E-17	1.947092E-18
3.248039E+03	9.761894E-18	1.886025E-18
3.257942E+03	9.458923E-18	1.827441E-18
3.267844E+03	9.168414E-18	1.771268E-18
3.277747E+03	8.889743E-18	1.717384E-18
3.287650E+03	8.622821E-18	1.665772E-18
3.297552E+03	8.367302E-18	1.616365E-18
3.307455E+03	8.122699E-18	1.569069E-18
3.317357E+03	7.888680E-18	1.523820E-18
3.327260E+03	7.664913E-18	1.480553E-18
3.337162E+03	7.451065E-18	1.439204E-18
3.347065E+03	7.246809E-18	1.399710E-18
3.356967E+03	7.051825E-18	1.362009E-18
3.366870E+03	6.865711E-18	1.326023E-18
3.376773E+03	6.688080E-18	1.291677E-18
3.386675E+03	6.518817E-18	1.258948E-18
3.396578E+03	6.357386E-18	1.227734E-18
3.406480E+03	6.203602E-18	1.197998E-18
3.416383E+03	6.057127E-18	1.169675E-18
3.426285E+03	5.917712E-18	1.142717E-18
3.436188E+03	5.784974E-18	1.117049E-18
3.446090E+03	5.658627E-18	1.092617E-18
3.455993E+03	5.538461E-18	1.069379E-18
3.465896E+03	5.424148E-18	1.047273E-18
3.475798E+03	5.315505E-18	1.026262E-18
3.485701E+03	5.212119E-18	1.006267E-18
3.495603E+03	5.113837E-18	9.872593E-19
3.505506E+03	5.020348E-18	9.691773E-19
3.515408E+03	4.931415E-18	9.519759E-19
3.525311E+03	4.846818E-18	9.356124E-19
3.535213E+03	4.766252E-18	9.200277E-19
3.545116E+03	4.689625E-18	9.052041E-19
3.555019E+03	4.616706E-18	8.910971E-19
3.564921E+03	4.547283E-18	8.776654E-19
3.574824E+03	4.481285E-18	8.648955E-19
3.584726E+03	4.418472E-18	8.527410E-19
3.594629E+03	4.358705E-18	8.411748E-19
3.604531E+03	4.301850E-18	8.301713E-19
3.614434E+03	4.247780E-18	8.197057E-19
3.624337E+03	4.196376E-18	8.097549E-19
3.634239E+03	4.147521E-18	8.002965E-19
3.644142E+03	4.101142E-18	7.913164E-19
3.654044E+03	4.057166E-18	7.828003E-19
3.663947E+03	4.015487E-18	7.747278E-19
3.673849E+03	3.976143E-18	7.671060E-19
3.683752E+03	3.938992E-18	7.599077E-19
3.693654E+03	3.904033E-18	7.531326E-19
3.703557E+03	3.871198E-18	7.467674E-19
3.713460E+03	3.840448E-18	7.408048E-19
3.723362E+03	3.811813E-18	7.352502E-19
3.733265E+03	3.785155E-18	7.300771E-19
3.743167E+03	3.760498E-18	7.252902E-19
3.753070E+03	3.737834E-18	7.208879E-19
3.762972E+03	3.717061E-18	7.168502E-19
3.772875E+03	3.698198E-18	7.131809E-19
3.782777E+03	3.681233E-18	7.098777E-19
3.792680E+03	3.666095E-18	7.069269E-19
3.802583E+03	3.652742E-18	7.043200E-19
3.812485E+03	3.641221E-18	7.020665E-19
3.822388E+03	3.631431E-18	7.001466E-19
3.832290E+03	3.623388E-18	6.985634E-19
3.842193E+03	3.617052E-18	6.973091E-19
3.852095E+03	3.612410E-18	6.963812E-19
3.861998E+03	3.609449E-18	6.957771E-19
3.871900E+03	3.608100E-18	6.954836E-19
3.881803E+03	3.608353E-18	6.954986E-19
3.891706E+03	3.610225E-18	6.958252E-19
3.901608E+03	3.613676E-18	6.964558E-19
3.911511E+03	3.618667E-18	6.973829E-19
3.921413E+03	3.625191E-18	6.986049E-19
3.931316E+03	3.633207E-18	7.001140E-19
3.941218E+03	3.642709E-18	7.019092E-19
3.951121E+03	3.653688E-18	7.039883E-19
3.961024E+03	3.666137E-18	7.063501E-19
3.970926E+03	3.679993E-18	7.089824E-19
3.980829E+03	3.695250E-18	7.118840E-19
3.990731E+03	3.711903E-18	7.150538E-19
4.000634E+03	3.729948E-18	7.184910E-19
4.010536E+03	3.749351E-18	7.221893E-19
4.020439E+03	3.770083E-18	7.261427E-19
4.030341E+03	3.792140E-18	7.303505E-19
4.040244E+03	3.815491E-18	7.348068E-19
4.050147E+03	3.840137E-18	7.395115E-19
4.060049E+03	3.866047E-18	7.444587E-19
4.069952E+03	3.893221E-18	7.496483E-19
4.079854E+03	3.921629E-18	7.550747E-19
4.089757E+03	3.951243E-18	7.607322E-19
4.099659E+03	3.982065E-18	7.666211E-19
4.109562E+03	4.014064E-18	7.727357E-19
4.119464E+03	4.047244E-18	7.790764E-19
4.129367E+03	4.081546E-18	7.856319E-19
4.139270E+03	4.116971E-18	7.924024E-19
4.149172E+03	4.153460E-18	7.993765E-19
4.159075E+03	4.191048E-18	8.065607E-19
4.168977E+03	4.229674E-18	8.139433E-19
4.178880E+03	4.269341E-18	8.215250E-19
4.188782E+03	4.309954E-18	8.292873E-19
4.198685E+03	4.351550E-18	8.372371E-19
4.208587E+03	4.394029E-18	8.453554E-19
4.218490E+03	4.437429E-18	8.536494E-19
4.228393E+03	4.481648E-18	8.620994E-19
4.238295E+03	4.526617E-18	8.706922E-19
4.248198E+03	4.572373E-18	8.794345E-19
4.258100E+03	4.618774E-18	8.882993E-19
4.268003E+03	4.665852E-18	8.972927E-19
4.277905E+03	4.713463E-18	9.063867E-19
4.287808E+03	4.761640E-18	9.155877E-19
4.297711E+03	4.810306E-18	9.248810E-19
4.307613E+03	4.859379E-18	9.342508E-19
4.317516E+03	4.908858E-18	9.436968E-19
4.327418E+03	4.958697E-18	9.532100E-19
4.337321E+03	5.008934E-18	9.627978E-19
4.347223E+03	5.059484E-18	9.724438E-19
4.357126E+03	5.110425E-18	9.821630E-19
4.367028E+03	5.161759E-18	9.919556E-19
4.376931E+03	5.213486E-18	1.001822E-18
4.386834E+03	5.265610E-18	1.011762E-18
4.396736E+03	5.318175E-18	1.021785E-18
4.406639E+03	5.371146E-18	1.031884E-18
4.416541E+03	5.424572E-18	1.042068E-18
4.426444E+03	5.478462E-18	1.052339E-18
4.436346E+03	5.532825E-18	1.062698E-18
4.446249E+03	5.587626E-18	1.073140E-18
4.456151E+03	5.642874E-18	1.083665E-18
4.466054E+03	5.698533E-18	1.094266E-18
4.475957E+03	5.754660E-18	1.104955E-18
4.485859E+03	5.811174E-18	1.115716E-18
4.495762E+03	5.868082E-18	1.126549E-18
4.505664E+03	5.925398E-18	1.137459E-18
4.515567E+03	5.983035E-18	1.148428E-18
4.525469E+03	6.041055E-18	1.159467E-18
4.535372E+03	6.099371E-18	1.170561E-18
4.545274E+03	6.157997E-18	1.181712E-18
4.555177E+03	6.216844E-18	1.192902E-18
4.565080E+03	6.275982E-18	1.204145E-18
4.574982E+03	6.335378E-18	1.215435E-18
4.584885E+03	6.394943E-18	1.226755E-18
4.594787E+03	6.454700E-18	1.238109E-18
4.604690E+03	6.514675E-18	1.249501E-18
4.614592E+03	6.574840E-18	1.260927E-18
4.624495E+03	6.635108E-18	1.272370E-18
4.634398E+03	6.695631E-18	1.283859E-18
4.644300E+03	6.756447E-18	1.295401E-18
4.654203E+03	6.817480E-18	1.306981E-18
4.664105E+03	6.878772E-18	1.318608E-18
4.674008E+03	6.940373E-18	1.330291E-18
4.683910E+03	7.002145E-18	1.342003E-18
4.693813E+03	7.064138E-18	1.353755E-18
4.703715E+03	7.126277E-18	1.365531E-18
4.713618E+03	7.188619E-18	1.377343E-18
4.723521E+03	7.251152E-18	1.389188E-18
4.733423E+03	7.313805E-18	1.401052E-18
4.743326E+03	7.376639E-18	1.412948E-18
4.753228E+03	7.439578E-18	1.424861E-18
4.763131E+03	7.502686E-18	1.436802E-18
4.773033E+03	7.565890E-18	1.448758E-18
4.782936E+03	7.629185E-18	1.460728E-18
4.792838E+03	7.692565E-18	1.472710E-18
4.802741E+03	7.756096E-18	1.484718E-18
4.812644E+03	7.819701E-18	1.496736E-18
4.822546E+03	7.883373E-18	1.508763E-18
4.832449E+03	7.947030E-18	1.520784E-18
4.842351E+03	8.010810E-18	1.532824E-18
4.852254E+03	8.074627E-18	1.544867E-18
4.862156E+03	8.138469E-18	1.556912E-18
4.872059E+03	8.202244E-18	1.568939E-18
4.881961E+03	8.266010E-18	1.580961E-18
4.891864E+03	8.329668E-18	1.592958E-18
4.901767E+03	8.393195E-18	1.604926E-18
4.911669E+03	8.456646E-18	1.616875E-18
4.921572E+03	8.519912E-18	1.628785E-18
4.931474E+03	8.582968E-18	1.640650E-18
4.941377E+03	8.645688E-18	1.652447E-18
4.951279E+03	8.708126E-18	1.664186E-18
4.961182E+03	8.770238E-18	1.675858E-18
4.971085E+03	8.831910E-18	1.687442E-18
4.980987E+03	8.893089E-18	1.698927E-18
4.990890E+03	8.953740E-18	1.710308E-18
5.000792E+03	9.013714E-18	1.721554E-18
5.010695E+03	9.073053E-18	1.732675E-18
5.020597E+03	9.131720E-18	1.743663E-18
5.030500E+03	9.189464E-18	1.754471E-18
5.040402E+03	9.246335E-18	1.765108E-18
5.050305E+03	9.302278E-18	1.775563E-18
5.060208E+03	9.357155E-18	1.785810E-18
5.070110E+03	9.410902E-18	1.795838E-18
5.080013E+03	9.463466E-18	1.805635E-18
5.089915E+03	9.514792E-18	1.815192E-18
5.099818E+03	9.564741E-18	1.824482E-18
5.109720E+03	9.613344E-18	1.833511E-18
5.119623E+03	9.660359E-18	1.842233E-18
5.129525E+03	9.705816E-18	1.850653E-18
5.139428E+03	9.749558E-18	1.858743E-18
5.149331E+03	9.791523E-18	1.866490E-18
5.159233E+03	9.831638E-18	1.873880E-18
5.169136E+03	9.869832E-18	1.880900E-18
5.179038E+03	9.905834E-18	1.887499E-18
5.188941E+03	9.939764E-18	1.893699E-18
5.198843E+03	9.971444E-18	1.899466E-18
5.208746E+03	1.000079E-17	1.904785E-18
5.218648E+03	1.002763E-17	1.909624E-18
5.228551E+03	1.005187E-17	1.913965E-18
5.238454E+03	1.007344E-17	1.917794E-18
5.248356E+03	1.009226E-17	1.921096E-18
5.258259E+03	1.010828E-17	1.923861E-18
5.268161E+03	1.012132E-17	1.926058E-18
5.278064E+03	1.013154E-17	1.927714E-18
5.287966E+03	1.013869E-17	1.928784E-18
5.297869E+03	1.014274E-17	1.929263E-18
5.307772E+03	1.014389E-17	1.929187E-18
5.317674E+03	1.014191E-17	1.928513E-18
5.327577E+03	1.013702E-17	1.927285E-18
5.337479E+03	1.012913E-17	1.925485E-18
5.347382E+03	1.011838E-17	1.923139E-18
5.357284E+03	1.010470E-17	1.920236E-18
5.367187E+03	1.008837E-17	1.916827E-18
5.377089E+03	1.006934E-17	1.912904E-18
5.386992E+03	1.004780E-17	1.908503E-18
5.396895E+03	1.002362E-17	1.903601E-18
5.406797E+03	9.997036E-18	1.898241E-18
5.416700E+03	9.968035E-18	1.892422E-18
5.426602E+03	9.936655E-18	1.886151E-18
5.436505E+03	9.903120E-18	1.879471E-18
5.446407E+03	9.867379E-18	1.872373E-18
5.456310E+03	9.829483E-18	1.864865E-18
5.466212E+03	9.789579E-18	1.856977E-18
5.476115E+03	9.747633E-18	1.848703E-18
5.486018E+03	9.703915E-18	1.840092E-18
5.495920E+03	9.658284E-18	1.831120E-18
5.505823E+03	9.611125E-18	1.821859E-18
5.515725E+03	9.562490E-18	1.812320E-18
5.525628E+03	9.512467E-18	1.802518E-18
5.535530E+03	9.461205E-18	1.792483E-18
5.545433E+03	9.408868E-18	1.782246E-18
5.555335E+03	9.355529E-18	1.771820E-18
5.565238E+03	9.301519E-18	1.761269E-18
5.575141E+03	9.246805E-18	1.750586E-18
5.585043E+03	9.191701E-18	1.739831E-18
5.594946E+03	9.136164E-18	1.728996E-18
5.604848E+03	9.080501E-18	1.718139E-18
5.614751E+03	9.024828E-18	1.707282E-18
5.624653E+03	8.969170E-18	1.696430E-18
5.634556E+03	8.913714E-18	1.685618E-18
5.644459E+03	8.858564E-18	1.674865E-18
5.654361E+03	8.803906E-18	1.664208E-18
5.664264E+03	8.749820E-18	1.653660E-18
5.674166E+03	8.696298E-18	1.643221E-18
5.684069E+03	8.643589E-18	1.632938E-18
5.693971E+03	8.591764E-18	1.622823E-18
5.703874E+03	8.540799E-18	1.612873E-18
5.713776E+03	8.490845E-18	1.603115E-18
5.723679E+03	8.442049E-18	1.593578E-18
5.733582E+03	8.394466E-18	1.584271E-18
5.743484E+03	8.348059E-18	1.575188E-18
5.753387E+03	8.302967E-18	1.566354E-18
5.763289E+03	8.259328E-18	1.557797E-18
5.773192E+03	8.217188E-18	1.549523E-18
5.783094E+03	8.176504E-18	1.541525E-18
5.792997E+03	8.137407E-18	1.533827E-18
5.802899E+03	8.099942E-18	1.526438E-18
5.812802E+03	8.064236E-18	1.519381E-18
5.822705E+03	8.030329E-18	1.512664E-18
5.832607E+03	7.998170E-18	1.506278E-18
5.842510E+03	7.967880E-18	1.500243E-18
5.852412E+03	7.939406E-18	1.494551E-18
5.862315E+03	7.913040E-18	1.489256E-18
5.872217E+03	7.888542E-18	1.484313E-18
5.882120E+03	7.866022E-18	1.479742E-18
5.892022E+03	7.845585E-18	1.475563E-18
5.901925E+03	7.827159E-18	1.471761E-18
5.911828E+03	7.810750E-18	1.468338E-18
5.921730E+03	7.796455E-18	1.465312E-18
5.931633E+03	7.784185E-18	1.462666E-18
5.941535E+03	7.774028E-18	1.460415E-18
5.951438E+03	7.765797E-18	1.458526E-18
5.961340E+03	7.759663E-18	1.457028E-18
5.971243E+03	7.755432E-18	1.455887E-18
5.981146E+03	7.753270E-18	1.455132E-18
5.991048E+03	7.752883E-18	1.454708E-18
6.000951E+03	7.754433E-18	1.454645E-18
6.010853E+03	7.757802E-18	1.454922E-18
6.020756E+03	7.762964E-18	1.455532E-18
6.030658E+03	7.769701E-18	1.456435E-18
6.040561E+03	7.778168E-18	1.457660E-18
6.050463E+03	7.788050E-18	1.459146E-18
6.060366E+03	7.799494E-18	1.460923E-18
6.070269E+03	7.812178E-18	1.462928E-18
6.080171E+03	7.826057E-18	1.465154E-18
6.090074E+03	7.840988E-18	1.467573E-18
6.099976E+03	7.856922E-18	1.470176E-18
6.109879E+03	7.873515E-18	1.472899E-18
6.119781E+03	7.890707E-18	1.475731E-18
6.129684E+03	7.908338E-18	1.478640E-18
6.139586E+03	7.926345E-18	1.481616E-18
6.149489E+03	7.944664E-18	1.484646E-18
6.159392E+03	7.963431E-18	1.487756E-18
6.169294E+03	7.982892E-18	1.490991E-18
6.179197E+03	8.003099E-18	1.494362E-18
6.189099E+03	8.024206E-18	1.497896E-18
6.199002E+03	8.046382E-18	1.501626E-18
6.208904E+03	8.069693E-18	1.505562E-18
6.218807E+03	8.094318E-18	1.509740E-18
6.228709E+03	8.120337E-18	1.514172E-18
6.238612E+03	8.147837E-18	1.518876E-18
6.248515E+03	8.177021E-18	1.523888E-18
6.258417E+03	8.207879E-18	1.529206E-18
6.268320E+03	8.240627E-18	1.534872E-18
6.278222E+03	8.275154E-18	1.540862E-18
6.288125E+03	8.311572E-18	1.547199E-18
6.298027E+03	8.349887E-18	1.553883E-18
6.307930E+03	8.390224E-18	1.560936E-18
6.317833E+03	8.432477E-18	1.568339E-18
6.327735E+03	8.476655E-18	1.576093E-18
6.337638E+03	8.522648E-18	1.584177E-18
6.347540E+03	8.570220E-18	1.592547E-18
6.357443E+03	8.619249E-18	1.601180E-18
6.367345E+03	8.669732E-18	1.610075E-18
6.377248E+03	8.721672E-18	1.619232E-18
6.387150E+03	8.775074E-18	1.628653E-18
6.397053E+03	8.830068E-18	1.638361E-18
6.406956E+03	8.886794E-18	1.648381E-18
6.416858E+03	8.945279E-18	1.658718E-18
6.426761E+03	9.005390E-18	1.669348E-18
6.436663E+03	9.067418E-18	1.680323E-18
6.446566E+03	9.131388E-18	1.691648E-18
6.456468E+03	9.197187E-18	1.703302E-18
6.466371E+03	9.264971E-18	1.715314E-18
6.476273E+03	9.334776E-18	1.727689E-18
6.486176E+03	9.406461E-18	1.740401E-18
6.496079E+03	9.480071E-18	1.753458E-18
6.505981E+03	9.555929E-18	1.766919E-18
6.515884E+03	9.633588E-18	1.780701E-18
6.525786E+03	9.713408E-18	1.794871E-18
6.535689E+03	9.795396E-18	1.809428E-18
6.545591E+03	9.879273E-18	1.824322E-18
6.555494E+03	9.965388E-18	1.839617E-18
6.565396E+03	1.005344E-17	1.855254E-18
6.575299E+03	1.014377E-17	1.871299E-18
6.585202E+03	1.023609E-17	1.887697E-18
6.595104E+03	1.033059E-17	1.904483E-18
6.605007E+03	1.042729E-17	1.921660E-18
6.614909E+03	1.052604E-17	1.939199E-18
6.624812E+03	1.062687E-17	1.957107E-18
6.634714E+03	1.072998E-17	1.975418E-18
6.644617E+03	1.083523E-17	1.994105E-18
6.654520E+03	1.094261E-17	2.013170E-18
6.664422E+03	1.105217E-17	2.032618E-18
6.674325E+03	1.116391E-17	2.052451E-18
6.684227E+03	1.127787E-17	2.072674E-18
6.694130E+03	1.139407E-17	2.093291E-18
6.704032E+03	1.151234E-17	2.114269E-18
6.713935E+03	1.163288E-17	2.135646E-18
6.723837E+03	1.175572E-17	2.157428E-18
6.733740E+03	1.188069E-17	2.179579E-18
6.743643E+03	1.200801E-17	2.202142E-18
6.753545E+03	1.213748E-17	2.225079E-18
6.763448E+03	1.226912E-17	2.248393E-18
6.773350E+03	1.240295E-17	2.272087E-18
6.783253E+03	1.253898E-17	2.296165E-18
6.793155E+03	1.267745E-17	2.320666E-18
6.803058E+03	1.281793E-17	2.345514E-18
6.812960E+03	1.296067E-17	2.370751E-18
6.822863E+03	1.310565E-17	2.396377E-18
6.832766E+03	1.325267E-17	2.422351E-18
6.842668E+03	1.340196E-17	2.448717E-18
6.852571E+03	1.355355E-17	2.475481E-18
6.862473E+03	1.370719E-17	2.502593E-18
6.872376E+03	1.386288E-17	2.530055E-18
6.882278E+03	1.402090E-17	2.557916E-18
6.892181E+03	1.418096E-17	2.586125E-18
6.902083E+03	1.434310E-17	2.614686E-18
6.911986E+03	1.450729E-17	2.643594E-18
6.921889E+03	1.467353E-17	2.672850E-18
6.931791E+03	1.484153E-17	2.702400E-18
6.941694E+03	1.501186E-17	2.732345E-18
6.951596E+03	1.518394E-17	2.762582E-18
6.961499E+03	1.535805E-17	2.793159E-18
6.971401E+03	1.553387E-17	2.824019E-18
6.981304E+03	1.571138E-17	2.855158E-18
6.991207E+03	1.589089E-17	2.886629E-18
7.001109E+03	1.607206E-17	2.918373E-18
7.011012E+03	1.625454E-17	2.950326E-18
7.020914E+03	1.643896E-17	2.982600E-18
7.030817E+03	1.662497E-17	3.015131E-18
7.040719E+03	1.681220E-17	3.047852E-18
7.050622E+03	1.700096E-17	3.080821E-18
7.060524E+03	1.719088E-17	3.113968E-18
7.070427E+03	1.738226E-17	3.147347E-18
7.080330E+03	1.757471E-17	3.180888E-18
7.090232E+03	1.776857E-17	3.214652E-18
7.100135E+03	1.796304E-17	3.248495E-18
7.110037E+03	1.815845E-17	3.282475E-18
7.119940E+03	1.835514E-17	3.316654E-18
7.129842E+03	1.855230E-17	3.350882E-18
7.139745E+03	1.874986E-17	3.385151E-18
7.149647E+03	1.894813E-17	3.419515E-18
7.159550E+03	1.914709E-17	3.453970E-18
7.169453E+03	1.934626E-17	3.488429E-18
7.179355E+03	1.954597E-17	3.522951E-18
7.189258E+03	1.974576E-17	3.557455E-18
7.199160E+03	1.994554E-17	3.591922E-18
7.209063E+03	2.014565E-17	3.626416E-18
7.218965E+03	2.034561E-17	3.660848E-18
7.228868E+03	2.054577E-17	3.695282E-18
7.238770E+03	2.074559E-17	3.729622E-18
7.248673E+03	2.094499E-17	3.763852E-18
7.258576E+03	2.114483E-17	3.798126E-18
7.268478E+03	2.134408E-17	3.832261E-18
7.278381E+03	2.154364E-17	3.866418E-18
7.288283E+03	2.174295E-17	3.900496E-18
7.298186E+03	2.194247E-17	3.934576E-18
7.308088E+03	2.214261E-17	3.968735E-18
7.317991E+03	2.234288E-17	4.002884E-18
7.327894E+03	2.254426E-17	4.037197E-18
7.337796E+03	2.274676E-17	4.071677E-18
7.347699E+03	2.295093E-17	4.106419E-18
7.357601E+03	2.315680E-17	4.141434E-18
7.367504E+03	2.336444E-17	4.176728E-18
7.377406E+03	2.357444E-17	4.212409E-18
7.387309E+03	2.378577E-17	4.248293E-18
7.397211E+03	2.399849E-17	4.284389E-18
7.407114E+03	2.421208E-17	4.320605E-18
7.417017E+03	2.442715E-17	4.357051E-18
7.426919E+03	2.464319E-17	4.393633E-18
7.436822E+03	2.485966E-17	4.430254E-18
7.446724E+03	2.507657E-17	4.466919E-18
7.456627E+03	2.529397E-17	4.503635E-18
7.466529E+03	2.551126E-17	4.540296E-18
7.476432E+03	2.572907E-17	4.577014E-18
7.486334E+03	2.594618E-17	4.613571E-18
7.496237E+03	2.616384E-17	4.650191E-18
7.506140E+03	2.638143E-17	4.686762E-18
7.516042E+03	2.659892E-17	4.723282E-18
7.525945E+03	2.681568E-17	4.759635E-18
7.535847E+03	2.703228E-17	4.795926E-18
7.545750E+03	2.724869E-17	4.832149E-18
7.555652E+03	2.746485E-17	4.868293E-18
7.565555E+03	2.767999E-17	4.904221E-18
7.575457E+03	2.789467E-17	4.940035E-18
7.585360E+03	2.810808E-17	4.975590E-18
7.595263E+03	2.832147E-17	5.011107E-18
7.605165E+03	2.853255E-17	5.046182E-18
7.615068E+03	2.874326E-17	5.081159E-18
7.624970E+03	2.895268E-17	5.115876E-18
7.634873E+03	2.915986E-17	5.150166E-18
7.644775E+03	2.936529E-17	5.184115E-18
7.654678E+03	2.956871E-17	5.217678E-18
7.664581E+03	2.976986E-17	5.250810E-18
7.674483E+03	2.996846E-17	5.283464E-18
7.684386E+03	3.016500E-17	5.315724E-18
