#wls	flux	fluxerr
1.584409E+03	1.724794E-16	5.857682E-17
1.624020E+03	1.791975E-16	6.085741E-17
1.663630E+03	1.852436E-16	6.290968E-17
1.703240E+03	1.905048E-16	6.469528E-17
1.742850E+03	1.948452E-16	6.616807E-17
1.782461E+03	1.980804E-16	6.726550E-17
1.822071E+03	1.999609E-16	6.790282E-17
1.861681E+03	2.002534E-16	6.800084E-17
1.901291E+03	1.987106E-16	6.747559E-17
1.940902E+03	1.951336E-16	6.625960E-17
1.980512E+03	1.895342E-16	6.435694E-17
2.020122E+03	1.822360E-16	6.187747E-17
2.059732E+03	1.740576E-16	5.909923E-17
2.099342E+03	1.662823E-16	5.645793E-17
2.138953E+03	1.601538E-16	5.437586E-17
2.178563E+03	1.563146E-16	5.307111E-17
2.218173E+03	1.544284E-16	5.242942E-17
2.257783E+03	1.533886E-16	5.207510E-17
2.297394E+03	1.521487E-16	5.165281E-17
2.337004E+03	1.499423E-16	5.090242E-17
2.376614E+03	1.463752E-16	4.969010E-17
2.416224E+03	1.413682E-16	4.798903E-17
2.455835E+03	1.350494E-16	4.584275E-17
2.495445E+03	1.276432E-16	4.332742E-17
2.535055E+03	1.194013E-16	4.052855E-17
2.574665E+03	1.105859E-16	3.753517E-17
2.614276E+03	1.014400E-16	3.442975E-17
2.653886E+03	9.218170E-17	3.128637E-17
2.693496E+03	8.300236E-17	2.816997E-17
2.733106E+03	7.407104E-17	2.513792E-17
2.772716E+03	6.551846E-17	2.223460E-17
2.812327E+03	5.745330E-17	1.949687E-17
2.851937E+03	4.996410E-17	1.695477E-17
2.891547E+03	4.311451E-17	1.462988E-17
2.931157E+03	3.694601E-17	1.253626E-17
2.970768E+03	3.147222E-17	1.067850E-17
2.980670E+03	3.021103E-17	1.025047E-17
2.990573E+03	2.899200E-17	9.836762E-18
3.000475E+03	2.781508E-17	9.437345E-18
3.010378E+03	2.667945E-17	9.051944E-18
3.020280E+03	2.558428E-17	8.680279E-18
3.030183E+03	2.452926E-17	8.322240E-18
3.040086E+03	2.351319E-17	7.977426E-18
3.049988E+03	2.253705E-17	7.646166E-18
3.059891E+03	2.160008E-17	7.328200E-18
3.069793E+03	2.070121E-17	7.023165E-18
3.079696E+03	1.983898E-17	6.730569E-18
3.089598E+03	1.901241E-17	6.450076E-18
3.099501E+03	1.822016E-17	6.181234E-18
3.109403E+03	1.746098E-17	5.923614E-18
3.119306E+03	1.673400E-17	5.676926E-18
3.129209E+03	1.603775E-17	5.440665E-18
3.139111E+03	1.537172E-17	5.214660E-18
3.149014E+03	1.473453E-17	4.998444E-18
3.158916E+03	1.412539E-17	4.791749E-18
3.168819E+03	1.354327E-17	4.594224E-18
3.178721E+03	1.298718E-17	4.405533E-18
3.188624E+03	1.245636E-17	4.225417E-18
3.198526E+03	1.194983E-17	4.053547E-18
3.208429E+03	1.146647E-17	3.889537E-18
3.218332E+03	1.100592E-17	3.733272E-18
3.228234E+03	1.056674E-17	3.584256E-18
3.238137E+03	1.014857E-17	3.442370E-18
3.248039E+03	9.750210E-18	3.307208E-18
3.257942E+03	9.371000E-18	3.178544E-18
3.267844E+03	9.010259E-18	3.056147E-18
3.277747E+03	8.666921E-18	2.939655E-18
3.287650E+03	8.340487E-18	2.828900E-18
3.297552E+03	8.030204E-18	2.723625E-18
3.307455E+03	7.735231E-18	2.623545E-18
3.317357E+03	7.454887E-18	2.528429E-18
3.327260E+03	7.188509E-18	2.438053E-18
3.337162E+03	6.935561E-18	2.352233E-18
3.347065E+03	6.695237E-18	2.270696E-18
3.356967E+03	6.467137E-18	2.193308E-18
3.366870E+03	6.250525E-18	2.119817E-18
3.376773E+03	6.044873E-18	2.050044E-18
3.386675E+03	5.849747E-18	1.983844E-18
3.396578E+03	5.664446E-18	1.920976E-18
3.406480E+03	5.488656E-18	1.861336E-18
3.416383E+03	5.321874E-18	1.804752E-18
3.426285E+03	5.163498E-18	1.751020E-18
3.436188E+03	5.013274E-18	1.700053E-18
3.446090E+03	4.870662E-18	1.651670E-18
3.455993E+03	4.735331E-18	1.605756E-18
3.465896E+03	4.606906E-18	1.562185E-18
3.475798E+03	4.484895E-18	1.520790E-18
3.485701E+03	4.369033E-18	1.481482E-18
3.495603E+03	4.258932E-18	1.444127E-18
3.505506E+03	4.154233E-18	1.408606E-18
3.515408E+03	4.054647E-18	1.374819E-18
3.525311E+03	3.959825E-18	1.342648E-18
3.535213E+03	3.869484E-18	1.311997E-18
3.545116E+03	3.783322E-18	1.282764E-18
3.555019E+03	3.701137E-18	1.254880E-18
3.564921E+03	3.622699E-18	1.228267E-18
3.574824E+03	3.547761E-18	1.202842E-18
3.584726E+03	3.476160E-18	1.178548E-18
3.594629E+03	3.407738E-18	1.155333E-18
3.604531E+03	3.342287E-18	1.133126E-18
3.614434E+03	3.279759E-18	1.111910E-18
3.624337E+03	3.219955E-18	1.091619E-18
3.634239E+03	3.162806E-18	1.072228E-18
3.644142E+03	3.108211E-18	1.053703E-18
3.654044E+03	3.056070E-18	1.036011E-18
3.663947E+03	3.006314E-18	1.019128E-18
3.673849E+03	2.958897E-18	1.003038E-18
3.683752E+03	2.913673E-18	9.876912E-19
3.693654E+03	2.870645E-18	9.730900E-19
3.703557E+03	2.829694E-18	9.591927E-19
3.713460E+03	2.790774E-18	9.459844E-19
3.723362E+03	2.753836E-18	9.334485E-19
3.733265E+03	2.718766E-18	9.215460E-19
3.743167E+03	2.685565E-18	9.102773E-19
3.753070E+03	2.654143E-18	8.996117E-19
3.762972E+03	2.624453E-18	8.895336E-19
3.772875E+03	2.596435E-18	8.800224E-19
3.782777E+03	2.570047E-18	8.710638E-19
3.792680E+03	2.545229E-18	8.626374E-19
3.802583E+03	2.521941E-18	8.547299E-19
3.812485E+03	2.500129E-18	8.473227E-19
3.822388E+03	2.479777E-18	8.404107E-19
3.832290E+03	2.460832E-18	8.339757E-19
3.842193E+03	2.443244E-18	8.280004E-19
3.852095E+03	2.426981E-18	8.224745E-19
3.861998E+03	2.411996E-18	8.173818E-19
3.871900E+03	2.398279E-18	8.127187E-19
3.881803E+03	2.385783E-18	8.084696E-19
3.891706E+03	2.374483E-18	8.046259E-19
3.901608E+03	2.364332E-18	8.011714E-19
3.911511E+03	2.355290E-18	7.980928E-19
3.921413E+03	2.347366E-18	7.953933E-19
3.931316E+03	2.340486E-18	7.930471E-19
3.941218E+03	2.334643E-18	7.910527E-19
3.951121E+03	2.329798E-18	7.893960E-19
3.961024E+03	2.325931E-18	7.880709E-19
3.970926E+03	2.323020E-18	7.870698E-19
3.980829E+03	2.321013E-18	7.863749E-19
3.990731E+03	2.319907E-18	7.859850E-19
4.000634E+03	2.319670E-18	7.858894E-19
4.010536E+03	2.320283E-18	7.860816E-19
4.020439E+03	2.321713E-18	7.865507E-19
4.030341E+03	2.323926E-18	7.872850E-19
4.040244E+03	2.326928E-18	7.882864E-19
4.050147E+03	2.330669E-18	7.895379E-19
4.060049E+03	2.335137E-18	7.910357E-19
4.069952E+03	2.340323E-18	7.927765E-19
4.079854E+03	2.346180E-18	7.947445E-19
4.089757E+03	2.352718E-18	7.969428E-19
4.099659E+03	2.359893E-18	7.993568E-19
4.109562E+03	2.367697E-18	8.019837E-19
4.119464E+03	2.376122E-18	8.048206E-19
4.129367E+03	2.385127E-18	8.078539E-19
4.139270E+03	2.394722E-18	8.110865E-19
4.149172E+03	2.404847E-18	8.144986E-19
4.159075E+03	2.415533E-18	8.181007E-19
4.168977E+03	2.426720E-18	8.218718E-19
4.178880E+03	2.438403E-18	8.258109E-19
4.188782E+03	2.450562E-18	8.299105E-19
4.198685E+03	2.463189E-18	8.341685E-19
4.208587E+03	2.476229E-18	8.385663E-19
4.218490E+03	2.489697E-18	8.431086E-19
4.228393E+03	2.503554E-18	8.477823E-19
4.238295E+03	2.517760E-18	8.525741E-19
4.248198E+03	2.532317E-18	8.574841E-19
4.258100E+03	2.547200E-18	8.625042E-19
4.268003E+03	2.562355E-18	8.676159E-19
4.277905E+03	2.577755E-18	8.728105E-19
4.287808E+03	2.593382E-18	8.780817E-19
4.297711E+03	2.609214E-18	8.834216E-19
4.307613E+03	2.625226E-18	8.888224E-19
4.317516E+03	2.641418E-18	8.942836E-19
4.327418E+03	2.657765E-18	8.997968E-19
4.337321E+03	2.674241E-18	9.053535E-19
4.347223E+03	2.690886E-18	9.109666E-19
4.357126E+03	2.707673E-18	9.166277E-19
4.367028E+03	2.724598E-18	9.223351E-19
4.376931E+03	2.741679E-18	9.280949E-19
4.386834E+03	2.758911E-18	9.339055E-19
4.396736E+03	2.776270E-18	9.397584E-19
4.406639E+03	2.793773E-18	9.456601E-19
4.416541E+03	2.811397E-18	9.516019E-19
4.426444E+03	2.829139E-18	9.575833E-19
4.436346E+03	2.846999E-18	9.636042E-19
4.446249E+03	2.864931E-18	9.696490E-19
4.456151E+03	2.882961E-18	9.757267E-19
4.466054E+03	2.901067E-18	9.818296E-19
4.475957E+03	2.919234E-18	9.879525E-19
4.485859E+03	2.937465E-18	9.940968E-19
4.495762E+03	2.955722E-18	1.000249E-18
4.505664E+03	2.974013E-18	1.006413E-18
4.515567E+03	2.992349E-18	1.012591E-18
4.525469E+03	3.010720E-18	1.018781E-18
4.535372E+03	3.029087E-18	1.024969E-18
4.545274E+03	3.047466E-18	1.031160E-18
4.555177E+03	3.065849E-18	1.037352E-18
4.565080E+03	3.084226E-18	1.043542E-18
4.574982E+03	3.102619E-18	1.049737E-18
4.584885E+03	3.120993E-18	1.055924E-18
4.594787E+03	3.139373E-18	1.062113E-18
4.604690E+03	3.157754E-18	1.068302E-18
4.614592E+03	3.176134E-18	1.074491E-18
4.624495E+03	3.194510E-18	1.080677E-18
4.634398E+03	3.212883E-18	1.086862E-18
4.644300E+03	3.231252E-18	1.093045E-18
4.654203E+03	3.249671E-18	1.099244E-18
4.664105E+03	3.268146E-18	1.105462E-18
4.674008E+03	3.286675E-18	1.111697E-18
4.683910E+03	3.305323E-18	1.117972E-18
4.693813E+03	3.324062E-18	1.124277E-18
4.703715E+03	3.342899E-18	1.130615E-18
4.713618E+03	3.361869E-18	1.136997E-18
4.723521E+03	3.380977E-18	1.143425E-18
4.733423E+03	3.400203E-18	1.149893E-18
4.743326E+03	3.419583E-18	1.156412E-18
4.753228E+03	3.439127E-18	1.162986E-18
4.763131E+03	3.458814E-18	1.169608E-18
4.773033E+03	3.478683E-18	1.176291E-18
4.782936E+03	3.498748E-18	1.183039E-18
4.792838E+03	3.519019E-18	1.189856E-18
4.802741E+03	3.539509E-18	1.196747E-18
4.812644E+03	3.560197E-18	1.203704E-18
4.822546E+03	3.581166E-18	1.210755E-18
4.832449E+03	3.602360E-18	1.217882E-18
4.842351E+03	3.623796E-18	1.225090E-18
4.852254E+03	3.645522E-18	1.232395E-18
4.862156E+03	3.667556E-18	1.239804E-18
4.872059E+03	3.689914E-18	1.247321E-18
4.881961E+03	3.712544E-18	1.254929E-18
4.891864E+03	3.735532E-18	1.262658E-18
4.901767E+03	3.758860E-18	1.270501E-18
4.911669E+03	3.782544E-18	1.278464E-18
4.921572E+03	3.806603E-18	1.286552E-18
4.931474E+03	3.831051E-18	1.294771E-18
4.941377E+03	3.855867E-18	1.303114E-18
4.951279E+03	3.881064E-18	1.311585E-18
4.961182E+03	3.906691E-18	1.320200E-18
4.971085E+03	3.932724E-18	1.328952E-18
4.980987E+03	3.959133E-18	1.337829E-18
4.990890E+03	3.986000E-18	1.346861E-18
5.000792E+03	4.013216E-18	1.356009E-18
5.010695E+03	4.040865E-18	1.365303E-18
5.020597E+03	4.068949E-18	1.374743E-18
5.030500E+03	4.097356E-18	1.384291E-18
5.040402E+03	4.126206E-18	1.393988E-18
5.050305E+03	4.155421E-18	1.403806E-18
5.060208E+03	4.185004E-18	1.413749E-18
5.070110E+03	4.214992E-18	1.423827E-18
5.080013E+03	4.245306E-18	1.434014E-18
5.089915E+03	4.275945E-18	1.444310E-18
5.099818E+03	4.306946E-18	1.454727E-18
5.109720E+03	4.338268E-18	1.465251E-18
5.119623E+03	4.369905E-18	1.475881E-18
5.129525E+03	4.401814E-18	1.486601E-18
5.139428E+03	4.434030E-18	1.497424E-18
5.149331E+03	4.466465E-18	1.508320E-18
5.159233E+03	4.499198E-18	1.519315E-18
5.169136E+03	4.532178E-18	1.530392E-18
5.179038E+03	4.565353E-18	1.541534E-18
5.188941E+03	4.598714E-18	1.552738E-18
5.198843E+03	4.632292E-18	1.564013E-18
5.208746E+03	4.665984E-18	1.575326E-18
5.218648E+03	4.699820E-18	1.586686E-18
5.228551E+03	4.733829E-18	1.598103E-18
5.238454E+03	4.767852E-18	1.609524E-18
5.248356E+03	4.802007E-18	1.620988E-18
5.258259E+03	4.836126E-18	1.632438E-18
5.268161E+03	4.870327E-18	1.643915E-18
5.278064E+03	4.904434E-18	1.655358E-18
5.287966E+03	4.938515E-18	1.666792E-18
5.297869E+03	4.972538E-18	1.678205E-18
5.307772E+03	5.006423E-18	1.689569E-18
5.317674E+03	5.040235E-18	1.700908E-18
5.327577E+03	5.073795E-18	1.712160E-18
5.337479E+03	5.107221E-18	1.723366E-18
5.347382E+03	5.140438E-18	1.734500E-18
5.357284E+03	5.173414E-18	1.745550E-18
5.367187E+03	5.206124E-18	1.756510E-18
5.377089E+03	5.238544E-18	1.767371E-18
5.386992E+03	5.270594E-18	1.778105E-18
5.396895E+03	5.302251E-18	1.788706E-18
5.406797E+03	5.333487E-18	1.799163E-18
5.416700E+03	5.364278E-18	1.809468E-18
5.426602E+03	5.394542E-18	1.819595E-18
5.436505E+03	5.424195E-18	1.829513E-18
5.446407E+03	5.453257E-18	1.839232E-18
5.456310E+03	5.481642E-18	1.848720E-18
5.466212E+03	5.509258E-18	1.857948E-18
5.476115E+03	5.536010E-18	1.866883E-18
5.486018E+03	5.561918E-18	1.875532E-18
5.495920E+03	5.586828E-18	1.883843E-18
5.505823E+03	5.610754E-18	1.891821E-18
5.515725E+03	5.633546E-18	1.899416E-18
5.525628E+03	5.655157E-18	1.906611E-18
5.535530E+03	5.675607E-18	1.913414E-18
5.545433E+03	5.694734E-18	1.919770E-18
5.555335E+03	5.712553E-18	1.925683E-18
5.565238E+03	5.729026E-18	1.931142E-18
5.575141E+03	5.744047E-18	1.936110E-18
5.585043E+03	5.757579E-18	1.940575E-18
5.594946E+03	5.769642E-18	1.944544E-18
5.604848E+03	5.780200E-18	1.948005E-18
5.614751E+03	5.789159E-18	1.950927E-18
5.624653E+03	5.796553E-18	1.953320E-18
5.634556E+03	5.802419E-18	1.955197E-18
5.644459E+03	5.806614E-18	1.956511E-18
5.654361E+03	5.809185E-18	1.957276E-18
5.664264E+03	5.810180E-18	1.957511E-18
5.674166E+03	5.809596E-18	1.957212E-18
5.684069E+03	5.807429E-18	1.956380E-18
5.693971E+03	5.803680E-18	1.955014E-18
5.703874E+03	5.798353E-18	1.953117E-18
5.713776E+03	5.791519E-18	1.950712E-18
5.723679E+03	5.783125E-18	1.947781E-18
5.733582E+03	5.773310E-18	1.944371E-18
5.743484E+03	5.762024E-18	1.940465E-18
5.753387E+03	5.749290E-18	1.936072E-18
5.763289E+03	5.735255E-18	1.931240E-18
5.773192E+03	5.719820E-18	1.925938E-18
5.783094E+03	5.703078E-18	1.920195E-18
5.792997E+03	5.685128E-18	1.914045E-18
5.802899E+03	5.665950E-18	1.907482E-18
5.812802E+03	5.645652E-18	1.900543E-18
5.822705E+03	5.624227E-18	1.893224E-18
5.832607E+03	5.601858E-18	1.885588E-18
5.842510E+03	5.578550E-18	1.877635E-18
5.852412E+03	5.554371E-18	1.869391E-18
5.862315E+03	5.529459E-18	1.860899E-18
5.872217E+03	5.503824E-18	1.852165E-18
5.882120E+03	5.477605E-18	1.843235E-18
5.892022E+03	5.450815E-18	1.834114E-18
5.901925E+03	5.423587E-18	1.824845E-18
5.911828E+03	5.395994E-18	1.815454E-18
5.921730E+03	5.368108E-18	1.805965E-18
5.931633E+03	5.339933E-18	1.796380E-18
5.941535E+03	5.311596E-18	1.786740E-18
5.951438E+03	5.283161E-18	1.777068E-18
5.961340E+03	5.254626E-18	1.767364E-18
5.971243E+03	5.226114E-18	1.757667E-18
5.981146E+03	5.197617E-18	1.747976E-18
5.991048E+03	5.169128E-18	1.738289E-18
6.000951E+03	5.140820E-18	1.728663E-18
6.010853E+03	5.112620E-18	1.719074E-18
6.020756E+03	5.084635E-18	1.709558E-18
6.030658E+03	5.056785E-18	1.700088E-18
6.040561E+03	5.029173E-18	1.690699E-18
6.050463E+03	5.001775E-18	1.681383E-18
6.060366E+03	4.974628E-18	1.672151E-18
6.070269E+03	4.947765E-18	1.663015E-18
6.080171E+03	4.921156E-18	1.653966E-18
6.090074E+03	4.894829E-18	1.645012E-18
6.099976E+03	4.868809E-18	1.636162E-18
6.109879E+03	4.843124E-18	1.627425E-18
6.119781E+03	4.817793E-18	1.618807E-18
6.129684E+03	4.792773E-18	1.610295E-18
6.139586E+03	4.768147E-18	1.601915E-18
6.149489E+03	4.743926E-18	1.593673E-18
6.159392E+03	4.720128E-18	1.585573E-18
6.169294E+03	4.696823E-18	1.577639E-18
6.179197E+03	4.674084E-18	1.569895E-18
6.189099E+03	4.651983E-18	1.562367E-18
6.199002E+03	4.630586E-18	1.555076E-18
6.208904E+03	4.609964E-18	1.548045E-18
6.218807E+03	4.590245E-18	1.541318E-18
6.228709E+03	4.571372E-18	1.534875E-18
6.238612E+03	4.553599E-18	1.528803E-18
6.248515E+03	4.536867E-18	1.523080E-18
6.258417E+03	4.521306E-18	1.517750E-18
6.268320E+03	4.506980E-18	1.512835E-18
6.278222E+03	4.493959E-18	1.508359E-18
6.288125E+03	4.482246E-18	1.504321E-18
6.298027E+03	4.471911E-18	1.500746E-18
6.307930E+03	4.463020E-18	1.497656E-18
6.317833E+03	4.455578E-18	1.495052E-18
6.327735E+03	4.449596E-18	1.492938E-18
6.337638E+03	4.445142E-18	1.491336E-18
6.347540E+03	4.442095E-18	1.490206E-18
6.357443E+03	4.440460E-18	1.489549E-18
6.367345E+03	4.440182E-18	1.489347E-18
6.377248E+03	4.441129E-18	1.489556E-18
6.387150E+03	4.443378E-18	1.490200E-18
6.397053E+03	4.446798E-18	1.491237E-18
6.406956E+03	4.451461E-18	1.492690E-18
6.416858E+03	4.457371E-18	1.494560E-18
6.426761E+03	4.464467E-18	1.496828E-18
6.436663E+03	4.472754E-18	1.499494E-18
6.446566E+03	4.482234E-18	1.502558E-18
6.456468E+03	4.492916E-18	1.506025E-18
6.466371E+03	4.504802E-18	1.509895E-18
6.476273E+03	4.517972E-18	1.514193E-18
6.486176E+03	4.532360E-18	1.518899E-18
6.496079E+03	4.547899E-18	1.523989E-18
6.505981E+03	4.564741E-18	1.529515E-18
6.515884E+03	4.582748E-18	1.535429E-18
6.525786E+03	4.601997E-18	1.541758E-18
6.535689E+03	4.622499E-18	1.548505E-18
6.545591E+03	4.644256E-18	1.555672E-18
6.555494E+03	4.667280E-18	1.563261E-18
6.565396E+03	4.691499E-18	1.571249E-18
6.575299E+03	4.716999E-18	1.579664E-18
6.585202E+03	4.743709E-18	1.588482E-18
6.595104E+03	4.771716E-18	1.597732E-18
6.605007E+03	4.800946E-18	1.607391E-18
6.614909E+03	4.831408E-18	1.617459E-18
6.624812E+03	4.863192E-18	1.627968E-18
6.634714E+03	4.896308E-18	1.638920E-18
6.644617E+03	4.930598E-18	1.650264E-18
6.654520E+03	4.966239E-18	1.662057E-18
6.664422E+03	5.003070E-18	1.674246E-18
6.674325E+03	5.041271E-18	1.686891E-18
6.684227E+03	5.080769E-18	1.699967E-18
6.694130E+03	5.121483E-18	1.713447E-18
6.704032E+03	5.163603E-18	1.727395E-18
6.713935E+03	5.206957E-18	1.741753E-18
6.723837E+03	5.251648E-18	1.756555E-18
6.733740E+03	5.297687E-18	1.771805E-18
6.743643E+03	5.345087E-18	1.787507E-18
6.753545E+03	5.393763E-18	1.803633E-18
6.763448E+03	5.443820E-18	1.820217E-18
6.773350E+03	5.495172E-18	1.837231E-18
6.783253E+03	5.547930E-18	1.854711E-18
6.793155E+03	5.602000E-18	1.872626E-18
6.803058E+03	5.657394E-18	1.890981E-18
6.812960E+03	5.714223E-18	1.909811E-18
6.822863E+03	5.772287E-18	1.929050E-18
6.832766E+03	5.831806E-18	1.948772E-18
6.842668E+03	5.892683E-18	1.968943E-18
6.852571E+03	5.954924E-18	1.989566E-18
6.862473E+03	6.018536E-18	2.010643E-18
6.872376E+03	6.083529E-18	2.032177E-18
6.882278E+03	6.149790E-18	2.054130E-18
6.892181E+03	6.217442E-18	2.076543E-18
6.902083E+03	6.286490E-18	2.099418E-18
6.911986E+03	6.356941E-18	2.122757E-18
6.921889E+03	6.428552E-18	2.146479E-18
6.931791E+03	6.501698E-18	2.170708E-18
6.941694E+03	6.576003E-18	2.195319E-18
6.951596E+03	6.651722E-18	2.220397E-18
6.961499E+03	6.728731E-18	2.245901E-18
6.971401E+03	6.807023E-18	2.271828E-18
6.981304E+03	6.886602E-18	2.298179E-18
6.991207E+03	6.967461E-18	2.324952E-18
7.001109E+03	7.049459E-18	2.352100E-18
7.011012E+03	7.132730E-18	2.379666E-18
7.020914E+03	7.217267E-18	2.407650E-18
7.030817E+03	7.302920E-18	2.436000E-18
7.040719E+03	7.389828E-18	2.464763E-18
7.050622E+03	7.477833E-18	2.493886E-18
7.060524E+03	7.566922E-18	2.523364E-18
7.070427E+03	7.657080E-18	2.553193E-18
7.080330E+03	7.748449E-18	2.583420E-18
7.090232E+03	7.840702E-18	2.613935E-18
7.100135E+03	7.933809E-18	2.644728E-18
7.110037E+03	8.028080E-18	2.675904E-18
7.119940E+03	8.123168E-18	2.707345E-18
7.129842E+03	8.219040E-18	2.739041E-18
7.139745E+03	8.315847E-18	2.771042E-18
7.149647E+03	8.413384E-18	2.803280E-18
7.159550E+03	8.511622E-18	2.835745E-18
7.169453E+03	8.610529E-18	2.868425E-18
7.179355E+03	8.710070E-18	2.901311E-18
7.189258E+03	8.810399E-18	2.934452E-18
7.199160E+03	8.911105E-18	2.967712E-18
7.209063E+03	9.012527E-18	3.001204E-18
7.218965E+03	9.114442E-18	3.034852E-18
7.228868E+03	9.216802E-18	3.068643E-18
7.238770E+03	9.319775E-18	3.102630E-18
7.248673E+03	9.423113E-18	3.136731E-18
7.258576E+03	9.526985E-18	3.171004E-18
7.268478E+03	9.631353E-18	3.205435E-18
7.278381E+03	9.736396E-18	3.240083E-18
7.288283E+03	9.842087E-18	3.274939E-18
7.298186E+03	9.948619E-18	3.310069E-18
7.308088E+03	1.005574E-17	3.345387E-18
7.317991E+03	1.016412E-17	3.381116E-18
7.327894E+03	1.027375E-17	3.417255E-18
7.337796E+03	1.038440E-17	3.453724E-18
7.347699E+03	1.049677E-17	3.490760E-18
7.357601E+03	1.061065E-17	3.528287E-18
7.367504E+03	1.072629E-17	3.566393E-18
7.377406E+03	1.084345E-17	3.604999E-18
7.387309E+03	1.096240E-17	3.644192E-18
7.397211E+03	1.108238E-17	3.683718E-18
7.407114E+03	1.120390E-17	3.723748E-18
7.417017E+03	1.132616E-17	3.764015E-18
7.426919E+03	1.144941E-17	3.804601E-18
7.436822E+03	1.157333E-17	3.845407E-18
7.446724E+03	1.169764E-17	3.886329E-18
7.456627E+03	1.182256E-17	3.927449E-18
7.466529E+03	1.194720E-17	3.968466E-18
7.476432E+03	1.207207E-17	4.009553E-18
7.486334E+03	1.219683E-17	4.050594E-18
7.496237E+03	1.232142E-17	4.091570E-18
7.506140E+03	1.244546E-17	4.132358E-18
7.516042E+03	1.256921E-17	4.173037E-18
7.525945E+03	1.269227E-17	4.213482E-18
7.535847E+03	1.281456E-17	4.253665E-18
7.545750E+03	1.293634E-17	4.293669E-18
7.555652E+03	1.305721E-17	4.333362E-18
7.565555E+03	1.317741E-17	4.372829E-18
7.575457E+03	1.329622E-17	4.411823E-18
7.585360E+03	1.341421E-17	4.450539E-18
7.595263E+03	1.353097E-17	4.488840E-18
7.605165E+03	1.364676E-17	4.526813E-18
7.615068E+03	1.376117E-17	4.564318E-18
7.624970E+03	1.387410E-17	4.601328E-18
7.634873E+03	1.398547E-17	4.637813E-18
7.644775E+03	1.409593E-17	4.673989E-18
7.654678E+03	1.420431E-17	4.709467E-18
7.664581E+03	1.431162E-17	4.744588E-18
7.674483E+03	1.441706E-17	4.779080E-18
7.684386E+03	1.452093E-17	4.813045E-18
