#wls	flux	fluxerr
1.584409E+03	4.848817E-17	1.776028E-17
1.624020E+03	5.066245E-17	1.854199E-17
1.663630E+03	5.271012E-17	1.927579E-17
1.703240E+03	5.459054E-17	1.994688E-17
1.742850E+03	5.628104E-17	2.054710E-17
1.782461E+03	5.771696E-17	2.105298E-17
1.822071E+03	5.882725E-17	2.143886E-17
1.861681E+03	5.954058E-17	2.167902E-17
1.901291E+03	5.976188E-17	2.173927E-17
1.940902E+03	5.942435E-17	2.159581E-17
1.980512E+03	5.850027E-17	2.123917E-17
2.020122E+03	5.707427E-17	2.070068E-17
2.059732E+03	5.537279E-17	2.006296E-17
2.099342E+03	5.378383E-17	1.946678E-17
2.138953E+03	5.272648E-17	1.906358E-17
2.178563E+03	5.243291E-17	1.893660E-17
2.218173E+03	5.283085E-17	1.905886E-17
2.257783E+03	5.361004E-17	1.931770E-17
2.297394E+03	5.439278E-17	1.957668E-17
2.337004E+03	5.489952E-17	1.973527E-17
2.376614E+03	5.496534E-17	1.973460E-17
2.416224E+03	5.452965E-17	1.955351E-17
2.455835E+03	5.360766E-17	1.919814E-17
2.495445E+03	5.223804E-17	1.868301E-17
2.535055E+03	5.048232E-17	1.803076E-17
2.574665E+03	4.840361E-17	1.726452E-17
2.614276E+03	4.606722E-17	1.640806E-17
2.653886E+03	4.353081E-17	1.548236E-17
2.693496E+03	4.084974E-17	1.450745E-17
2.733106E+03	3.807510E-17	1.350176E-17
2.772716E+03	3.525390E-17	1.248216E-17
2.812327E+03	3.243008E-17	1.146436E-17
2.851937E+03	2.964533E-17	1.046315E-17
2.891547E+03	2.693741E-17	9.491866E-18
2.931157E+03	2.434005E-17	8.562327E-18
2.970768E+03	2.188090E-17	7.684133E-18
2.980670E+03	2.129087E-17	7.473700E-18
2.990573E+03	2.071058E-17	7.266846E-18
3.000475E+03	2.014110E-17	7.063947E-18
3.010378E+03	1.958207E-17	6.864871E-18
3.020280E+03	1.903401E-17	6.669798E-18
3.030183E+03	1.849739E-17	6.478886E-18
3.040086E+03	1.797165E-17	6.291938E-18
3.049988E+03	1.745867E-17	6.109606E-18
3.059891E+03	1.695831E-17	5.931840E-18
3.069793E+03	1.647093E-17	5.758753E-18
3.079696E+03	1.599584E-17	5.590106E-18
3.089598E+03	1.553280E-17	5.425809E-18
3.099501E+03	1.508218E-17	5.265984E-18
3.109403E+03	1.464318E-17	5.110347E-18
3.119306E+03	1.421646E-17	4.959123E-18
3.129209E+03	1.380102E-17	4.811964E-18
3.139111E+03	1.339751E-17	4.669087E-18
3.149014E+03	1.300529E-17	4.530264E-18
3.158916E+03	1.262470E-17	4.395611E-18
3.168819E+03	1.225539E-17	4.264996E-18
3.178721E+03	1.189744E-17	4.138450E-18
3.188624E+03	1.155072E-17	4.015917E-18
3.198526E+03	1.121510E-17	3.897349E-18
3.208429E+03	1.089026E-17	3.782628E-18
3.218332E+03	1.057642E-17	3.671830E-18
3.228234E+03	1.027326E-17	3.564837E-18
3.238137E+03	9.980787E-18	3.461644E-18
3.248039E+03	9.698665E-18	3.362133E-18
3.257942E+03	9.426726E-18	3.266240E-18
3.267844E+03	9.164941E-18	3.173950E-18
3.277747E+03	8.912969E-18	3.085140E-18
3.287650E+03	8.670749E-18	2.999785E-18
3.297552E+03	8.438058E-18	2.917804E-18
3.307455E+03	8.214450E-18	2.839037E-18
3.317357E+03	7.999956E-18	2.763491E-18
3.327260E+03	7.794234E-18	2.691044E-18
3.337162E+03	7.597061E-18	2.621614E-18
3.347065E+03	7.408222E-18	2.555123E-18
3.356967E+03	7.227308E-18	2.491427E-18
3.366870E+03	7.054292E-18	2.430511E-18
3.376773E+03	6.888873E-18	2.372268E-18
3.386675E+03	6.730746E-18	2.316590E-18
3.396578E+03	6.579715E-18	2.263406E-18
3.406480E+03	6.435571E-18	2.212640E-18
3.416383E+03	6.297976E-18	2.164172E-18
3.426285E+03	6.166822E-18	2.117963E-18
3.436188E+03	6.041777E-18	2.073895E-18
3.446090E+03	5.922680E-18	2.031909E-18
3.455993E+03	5.809300E-18	1.991923E-18
3.465896E+03	5.701420E-18	1.953861E-18
3.475798E+03	5.598833E-18	1.917647E-18
3.485701E+03	5.501343E-18	1.883213E-18
3.495603E+03	5.408707E-18	1.850472E-18
3.505506E+03	5.320694E-18	1.819344E-18
3.515408E+03	5.237148E-18	1.789772E-18
3.525311E+03	5.157863E-18	1.761683E-18
3.535213E+03	5.082702E-18	1.735029E-18
3.545116E+03	5.011428E-18	1.709726E-18
3.555019E+03	4.943924E-18	1.685732E-18
3.564921E+03	4.880025E-18	1.662990E-18
3.574824E+03	4.819675E-18	1.641477E-18
3.584726E+03	4.762673E-18	1.621125E-18
3.594629E+03	4.708926E-18	1.601899E-18
3.604531E+03	4.658208E-18	1.583720E-18
3.614434E+03	4.610439E-18	1.566560E-18
3.624337E+03	4.565499E-18	1.550376E-18
3.634239E+03	4.523273E-18	1.535128E-18
3.644142E+03	4.483693E-18	1.520790E-18
3.654044E+03	4.446690E-18	1.507340E-18
3.663947E+03	4.412159E-18	1.494738E-18
3.673849E+03	4.380077E-18	1.482976E-18
3.683752E+03	4.350340E-18	1.472017E-18
3.693654E+03	4.322963E-18	1.461866E-18
3.703557E+03	4.297883E-18	1.452499E-18
3.713460E+03	4.275037E-18	1.443893E-18
3.723362E+03	4.254401E-18	1.436040E-18
3.733265E+03	4.235983E-18	1.428940E-18
3.743167E+03	4.219722E-18	1.422572E-18
3.753070E+03	4.205628E-18	1.416938E-18
3.762972E+03	4.193636E-18	1.412015E-18
3.772875E+03	4.183721E-18	1.407792E-18
3.782777E+03	4.175890E-18	1.404272E-18
3.792680E+03	4.170154E-18	1.401455E-18
3.802583E+03	4.166448E-18	1.399320E-18
3.812485E+03	4.164818E-18	1.397880E-18
3.822388E+03	4.165165E-18	1.397101E-18
3.832290E+03	4.167568E-18	1.397008E-18
3.842193E+03	4.171929E-18	1.397567E-18
3.852095E+03	4.178326E-18	1.398802E-18
3.861998E+03	4.186698E-18	1.400693E-18
3.871900E+03	4.197050E-18	1.403239E-18
3.881803E+03	4.209355E-18	1.406430E-18
3.891706E+03	4.223621E-18	1.410267E-18
3.901608E+03	4.239819E-18	1.414739E-18
3.911511E+03	4.257989E-18	1.419860E-18
3.921413E+03	4.278069E-18	1.425605E-18
3.931316E+03	4.300066E-18	1.431977E-18
3.941218E+03	4.323951E-18	1.438965E-18
3.951121E+03	4.349766E-18	1.446580E-18
3.961024E+03	4.377480E-18	1.454812E-18
3.970926E+03	4.407067E-18	1.463651E-18
3.980829E+03	4.438500E-18	1.473086E-18
3.990731E+03	4.471819E-18	1.483129E-18
4.000634E+03	4.506962E-18	1.493759E-18
4.010536E+03	4.543975E-18	1.504989E-18
4.020439E+03	4.582793E-18	1.516796E-18
4.030341E+03	4.623428E-18	1.529184E-18
4.040244E+03	4.665889E-18	1.542153E-18
4.050147E+03	4.710151E-18	1.555694E-18
4.060049E+03	4.756191E-18	1.569799E-18
4.069952E+03	4.803982E-18	1.584456E-18
4.079854E+03	4.853578E-18	1.599684E-18
4.089757E+03	4.904915E-18	1.615458E-18
4.099659E+03	4.958011E-18	1.631784E-18
4.109562E+03	5.012802E-18	1.648640E-18
4.119464E+03	5.069304E-18	1.666029E-18
4.129367E+03	5.127534E-18	1.683955E-18
4.139270E+03	5.187430E-18	1.702398E-18
4.149172E+03	5.249011E-18	1.721362E-18
4.159075E+03	5.312211E-18	1.740823E-18
4.168977E+03	5.377050E-18	1.760788E-18
4.178880E+03	5.443461E-18	1.781234E-18
4.188782E+03	5.511464E-18	1.802165E-18
4.198685E+03	5.580989E-18	1.823557E-18
4.208587E+03	5.652012E-18	1.845401E-18
4.218490E+03	5.724459E-18	1.867673E-18
4.228393E+03	5.798346E-18	1.890376E-18
4.238295E+03	5.873596E-18	1.913483E-18
4.248198E+03	5.950175E-18	1.936984E-18
4.258100E+03	6.028001E-18	1.960849E-18
4.268003E+03	6.106983E-18	1.985049E-18
4.277905E+03	6.187077E-18	2.009568E-18
4.287808E+03	6.268236E-18	2.034390E-18
4.297711E+03	6.350357E-18	2.059481E-18
4.307613E+03	6.433385E-18	2.084822E-18
4.317516E+03	6.517205E-18	2.110375E-18
4.327418E+03	6.601806E-18	2.136136E-18
4.337321E+03	6.687120E-18	2.162082E-18
4.347223E+03	6.773239E-18	2.188242E-18
4.357126E+03	6.860095E-18	2.214595E-18
4.367028E+03	6.947728E-18	2.241151E-18
4.376931E+03	7.036124E-18	2.267906E-18
4.386834E+03	7.125386E-18	2.294892E-18
4.396736E+03	7.215447E-18	2.322088E-18
4.406639E+03	7.306299E-18	2.349489E-18
4.416541E+03	7.397998E-18	2.377113E-18
4.426444E+03	7.490532E-18	2.404956E-18
4.436346E+03	7.583907E-18	2.433018E-18
4.446249E+03	7.678058E-18	2.461279E-18
4.456151E+03	7.773048E-18	2.489758E-18
4.466054E+03	7.868822E-18	2.518436E-18
4.475957E+03	7.965366E-18	2.547309E-18
4.485859E+03	8.062706E-18	2.576383E-18
4.495762E+03	8.160702E-18	2.605615E-18
4.505664E+03	8.259430E-18	2.635026E-18
4.515567E+03	8.358832E-18	2.664598E-18
4.525469E+03	8.458924E-18	2.694337E-18
4.535372E+03	8.559572E-18	2.724197E-18
4.545274E+03	8.660867E-18	2.754208E-18
4.555177E+03	8.762689E-18	2.784332E-18
4.565080E+03	8.865130E-18	2.814596E-18
4.574982E+03	8.968068E-18	2.844962E-18
4.584885E+03	9.071549E-18	2.875443E-18
4.594787E+03	9.175520E-18	2.906023E-18
4.604690E+03	9.280103E-18	2.936739E-18
4.614592E+03	9.385198E-18	2.967560E-18
4.624495E+03	9.490943E-18	2.998528E-18
4.634398E+03	9.597309E-18	3.029634E-18
4.644300E+03	9.704287E-18	3.060875E-18
4.654203E+03	9.812032E-18	3.092299E-18
4.664105E+03	9.920461E-18	3.123878E-18
4.674008E+03	1.002965E-17	3.155637E-18
4.683910E+03	1.013952E-17	3.187548E-18
4.693813E+03	1.025016E-17	3.219641E-18
4.703715E+03	1.036139E-17	3.251859E-18
4.713618E+03	1.047331E-17	3.284234E-18
4.723521E+03	1.058584E-17	3.316734E-18
4.733423E+03	1.069907E-17	3.349393E-18
4.743326E+03	1.081292E-17	3.382184E-18
4.753228E+03	1.092741E-17	3.415110E-18
4.763131E+03	1.104252E-17	3.448171E-18
4.773033E+03	1.115828E-17	3.481367E-18
4.782936E+03	1.127470E-17	3.514704E-18
4.792838E+03	1.139167E-17	3.548152E-18
4.802741E+03	1.150930E-17	3.581739E-18
4.812644E+03	1.162760E-17	3.615470E-18
4.822546E+03	1.174647E-17	3.649312E-18
4.832449E+03	1.186591E-17	3.683265E-18
4.842351E+03	1.198602E-17	3.717360E-18
4.852254E+03	1.210658E-17	3.751529E-18
4.862156E+03	1.222779E-17	3.785834E-18
4.872059E+03	1.234955E-17	3.820240E-18
4.881961E+03	1.247171E-17	3.854704E-18
4.891864E+03	1.259435E-17	3.889252E-18
4.901767E+03	1.271746E-17	3.923873E-18
4.911669E+03	1.284086E-17	3.958520E-18
4.921572E+03	1.296463E-17	3.993211E-18
4.931474E+03	1.308846E-17	4.027855E-18
4.941377E+03	1.321253E-17	4.062504E-18
4.951279E+03	1.333664E-17	4.097096E-18
4.961182E+03	1.346055E-17	4.131563E-18
4.971085E+03	1.358430E-17	4.165913E-18
4.980987E+03	1.370766E-17	4.200074E-18
4.990890E+03	1.383047E-17	4.234002E-18
5.000792E+03	1.395261E-17	4.267658E-18
5.010695E+03	1.407393E-17	4.300999E-18
5.020597E+03	1.419413E-17	4.333932E-18
5.030500E+03	1.431318E-17	4.366449E-18
5.040402E+03	1.443075E-17	4.398451E-18
5.050305E+03	1.454666E-17	4.429886E-18
5.060208E+03	1.466056E-17	4.460650E-18
5.070110E+03	1.477240E-17	4.490725E-18
5.080013E+03	1.488168E-17	4.519964E-18
5.089915E+03	1.498847E-17	4.548390E-18
5.099818E+03	1.509225E-17	4.575851E-18
5.109720E+03	1.519298E-17	4.602330E-18
5.119623E+03	1.529025E-17	4.627714E-18
5.129525E+03	1.538371E-17	4.651891E-18
5.139428E+03	1.547326E-17	4.674843E-18
5.149331E+03	1.555853E-17	4.696458E-18
5.159233E+03	1.563929E-17	4.716667E-18
5.169136E+03	1.571530E-17	4.735408E-18
5.179038E+03	1.578616E-17	4.752562E-18
5.188941E+03	1.585165E-17	4.768063E-18
5.198843E+03	1.591137E-17	4.781801E-18
5.208746E+03	1.596523E-17	4.793754E-18
5.218648E+03	1.601287E-17	4.803814E-18
5.228551E+03	1.605405E-17	4.811919E-18
5.238454E+03	1.608856E-17	4.818012E-18
5.248356E+03	1.611605E-17	4.821988E-18
5.258259E+03	1.613631E-17	4.823796E-18
5.268161E+03	1.614919E-17	4.823395E-18
5.278064E+03	1.615454E-17	4.820745E-18
5.287966E+03	1.615207E-17	4.815768E-18
5.297869E+03	1.614187E-17	4.808498E-18
5.307772E+03	1.612387E-17	4.798919E-18
5.317674E+03	1.609808E-17	4.787039E-18
5.327577E+03	1.606438E-17	4.772830E-18
5.337479E+03	1.602315E-17	4.756414E-18
5.347382E+03	1.597439E-17	4.737792E-18
5.357284E+03	1.591860E-17	4.717124E-18
5.367187E+03	1.585588E-17	4.694439E-18
5.377089E+03	1.578670E-17	4.669886E-18
5.386992E+03	1.571140E-17	4.643571E-18
5.396895E+03	1.563074E-17	4.615721E-18
5.406797E+03	1.554502E-17	4.586430E-18
5.416700E+03	1.545462E-17	4.555814E-18
5.426602E+03	1.535980E-17	4.523955E-18
5.436505E+03	1.526120E-17	4.491041E-18
5.446407E+03	1.515916E-17	4.457177E-18
5.456310E+03	1.505423E-17	4.422528E-18
5.466212E+03	1.494698E-17	4.387265E-18
5.476115E+03	1.483803E-17	4.351566E-18
5.486018E+03	1.472795E-17	4.315608E-18
5.495920E+03	1.461754E-17	4.279617E-18
5.505823E+03	1.450739E-17	4.243772E-18
5.515725E+03	1.439841E-17	4.208335E-18
5.525628E+03	1.429102E-17	4.173432E-18
5.535530E+03	1.418621E-17	4.139350E-18
5.545433E+03	1.408437E-17	4.106197E-18
5.555335E+03	1.398626E-17	4.074196E-18
5.565238E+03	1.389261E-17	4.043556E-18
5.575141E+03	1.380367E-17	4.014345E-18
5.585043E+03	1.372035E-17	3.986825E-18
5.594946E+03	1.364294E-17	3.961077E-18
5.604848E+03	1.357167E-17	3.937164E-18
5.614751E+03	1.350729E-17	3.915299E-18
5.624653E+03	1.344980E-17	3.895476E-18
5.634556E+03	1.339959E-17	3.877803E-18
5.644459E+03	1.335696E-17	3.862365E-18
5.654361E+03	1.332209E-17	3.849204E-18
5.664264E+03	1.329509E-17	3.838350E-18
5.674166E+03	1.327606E-17	3.829829E-18
5.684069E+03	1.326522E-17	3.823692E-18
5.693971E+03	1.326277E-17	3.819998E-18
5.703874E+03	1.326848E-17	3.818673E-18
5.713776E+03	1.328282E-17	3.819849E-18
5.723679E+03	1.330558E-17	3.823456E-18
5.733582E+03	1.333707E-17	3.829583E-18
5.743484E+03	1.337724E-17	3.838206E-18
5.753387E+03	1.342627E-17	3.849376E-18
5.763289E+03	1.348425E-17	3.863111E-18
5.773192E+03	1.355140E-17	3.879470E-18
5.783094E+03	1.362767E-17	3.898434E-18
5.792997E+03	1.371313E-17	3.920017E-18
5.802899E+03	1.380804E-17	3.944290E-18
5.812802E+03	1.391264E-17	3.971314E-18
5.822705E+03	1.402671E-17	4.001023E-18
5.832607E+03	1.415064E-17	4.033523E-18
5.842510E+03	1.428436E-17	4.068792E-18
5.852412E+03	1.442811E-17	4.106890E-18
5.862315E+03	1.458194E-17	4.147829E-18
5.872217E+03	1.474574E-17	4.191573E-18
5.882120E+03	1.491970E-17	4.238172E-18
5.892022E+03	1.510384E-17	4.287626E-18
5.901925E+03	1.529798E-17	4.339880E-18
5.911828E+03	1.550241E-17	4.395013E-18
5.921730E+03	1.571671E-17	4.452906E-18
5.931633E+03	1.594098E-17	4.513578E-18
5.941535E+03	1.617506E-17	4.576986E-18
5.951438E+03	1.641860E-17	4.643024E-18
5.961340E+03	1.667157E-17	4.711681E-18
5.971243E+03	1.693330E-17	4.782767E-18
5.981146E+03	1.720388E-17	4.856307E-18
5.991048E+03	1.748253E-17	4.932076E-18
6.000951E+03	1.776903E-17	5.010014E-18
6.010853E+03	1.806268E-17	5.089922E-18
6.020756E+03	1.836295E-17	5.171647E-18
6.030658E+03	1.866899E-17	5.254956E-18
6.040561E+03	1.897992E-17	5.339597E-18
6.050463E+03	1.929522E-17	5.425425E-18
6.060366E+03	1.961340E-17	5.512025E-18
6.070269E+03	1.993381E-17	5.599217E-18
6.080171E+03	2.025507E-17	5.686618E-18
6.090074E+03	2.057622E-17	5.773954E-18
6.099976E+03	2.089524E-17	5.860673E-18
6.109879E+03	2.121137E-17	5.946558E-18
6.119781E+03	2.152277E-17	6.031101E-18
6.129684E+03	2.182815E-17	6.113949E-18
6.139586E+03	2.212604E-17	6.194695E-18
6.149489E+03	2.241631E-17	6.273307E-18
6.159392E+03	2.269923E-17	6.349870E-18
6.169294E+03	2.297520E-17	6.424502E-18
6.179197E+03	2.324476E-17	6.497356E-18
6.189099E+03	2.350766E-17	6.568372E-18
6.199002E+03	2.376520E-17	6.637921E-18
6.208904E+03	2.401701E-17	6.705900E-18
6.218807E+03	2.426396E-17	6.772558E-18
6.228709E+03	2.450668E-17	6.838081E-18
6.238612E+03	2.474491E-17	6.902395E-18
6.248515E+03	2.497936E-17	6.965703E-18
6.258417E+03	2.521049E-17	7.028135E-18
6.268320E+03	2.543876E-17	7.089824E-18
6.278222E+03	2.566397E-17	7.150715E-18
6.288125E+03	2.588663E-17	7.210952E-18
6.298027E+03	2.610692E-17	7.270586E-18
6.307930E+03	2.632500E-17	7.329666E-18
6.317833E+03	2.654069E-17	7.388138E-18
6.327735E+03	2.675377E-17	7.445949E-18
6.337638E+03	2.696402E-17	7.503034E-18
6.347540E+03	2.717160E-17	7.559441E-18
6.357443E+03	2.737623E-17	7.615097E-18
6.367345E+03	2.757688E-17	7.669710E-18
6.377248E+03	2.777482E-17	7.723641E-18
6.387150E+03	2.797022E-17	7.776933E-18
6.397053E+03	2.816363E-17	7.829743E-18
6.406956E+03	2.835601E-17	7.882340E-18
6.416858E+03	2.854714E-17	7.934662E-18
6.426761E+03	2.873806E-17	7.986996E-18
6.436663E+03	2.892892E-17	8.039389E-18
6.446566E+03	2.912039E-17	8.092023E-18
6.456468E+03	2.931173E-17	8.144699E-18
6.466371E+03	2.950448E-17	8.197841E-18
6.476273E+03	2.969790E-17	8.251246E-18
6.486176E+03	2.989264E-17	8.305093E-18
6.496079E+03	3.008885E-17	8.359428E-18
6.505981E+03	3.028623E-17	8.414164E-18
6.515884E+03	3.048541E-17	8.469477E-18
6.525786E+03	3.068653E-17	8.525409E-18
6.535689E+03	3.088924E-17	8.581864E-18
6.545591E+03	3.109368E-17	8.638875E-18
6.555494E+03	3.129994E-17	8.696476E-18
6.565396E+03	3.150867E-17	8.754844E-18
6.575299E+03	3.171894E-17	8.813720E-18
6.585202E+03	3.193135E-17	8.873272E-18
6.595104E+03	3.214598E-17	8.933526E-18
6.605007E+03	3.236237E-17	8.994352E-18
6.614909E+03	3.258113E-17	9.055920E-18
6.624812E+03	3.280176E-17	9.118092E-18
6.634714E+03	3.302485E-17	9.181036E-18
6.644617E+03	3.324933E-17	9.244449E-18
6.654520E+03	3.347577E-17	9.308496E-18
6.664422E+03	3.370480E-17	9.373349E-18
6.674325E+03	3.393527E-17	9.438690E-18
6.684227E+03	3.416778E-17	9.504686E-18
6.694130E+03	3.440173E-17	9.571174E-18
6.704032E+03	3.463776E-17	9.638329E-18
6.713935E+03	3.487525E-17	9.705985E-18
6.723837E+03	3.511421E-17	9.774137E-18
6.733740E+03	3.535526E-17	9.842965E-18
6.743643E+03	3.559714E-17	9.912114E-18
6.753545E+03	3.584109E-17	9.981936E-18
6.763448E+03	3.608582E-17	1.005207E-17
6.773350E+03	3.633260E-17	1.012286E-17
6.783253E+03	3.658007E-17	1.019395E-17
6.793155E+03	3.682817E-17	1.026531E-17
6.803058E+03	3.707748E-17	1.033710E-17
6.812960E+03	3.732795E-17	1.040931E-17
6.822863E+03	3.757807E-17	1.048152E-17
6.832766E+03	3.782914E-17	1.055409E-17
6.842668E+03	3.808029E-17	1.062679E-17
6.852571E+03	3.833215E-17	1.069979E-17
6.862473E+03	3.858308E-17	1.077262E-17
6.872376E+03	3.883366E-17	1.084546E-17
6.882278E+03	3.908371E-17	1.091825E-17
6.892181E+03	3.933231E-17	1.099073E-17
6.902083E+03	3.958001E-17	1.106307E-17
6.911986E+03	3.982665E-17	1.113521E-17
6.921889E+03	4.007128E-17	1.120689E-17
6.931791E+03	4.031371E-17	1.127806E-17
6.941694E+03	4.055376E-17	1.134867E-17
6.951596E+03	4.079208E-17	1.141889E-17
6.961499E+03	4.102691E-17	1.148824E-17
6.971401E+03	4.125973E-17	1.155712E-17
6.981304E+03	4.148878E-17	1.162506E-17
6.991207E+03	4.171477E-17	1.169223E-17
7.001109E+03	4.193677E-17	1.175839E-17
7.011012E+03	4.215553E-17	1.182375E-17
7.020914E+03	4.237102E-17	1.188829E-17
7.030817E+03	4.258234E-17	1.195175E-17
7.040719E+03	4.278859E-17	1.201390E-17
7.050622E+03	4.299148E-17	1.207520E-17
7.060524E+03	4.319015E-17	1.213541E-17
7.070427E+03	4.338464E-17	1.219455E-17
7.080330E+03	4.357496E-17	1.225262E-17
7.090232E+03	4.376028E-17	1.230937E-17
7.100135E+03	4.394154E-17	1.236508E-17
7.110037E+03	4.411790E-17	1.241951E-17
7.119940E+03	4.428943E-17	1.247267E-17
7.129842E+03	4.445712E-17	1.252485E-17
7.139745E+03	4.462013E-17	1.257580E-17
7.149647E+03	4.477947E-17	1.262581E-17
7.159550E+03	4.493333E-17	1.267436E-17
7.169453E+03	4.508271E-17	1.272175E-17
7.179355E+03	4.522764E-17	1.276796E-17
7.189258E+03	4.536818E-17	1.281303E-17
7.199160E+03	4.550434E-17	1.285695E-17
7.209063E+03	4.563612E-17	1.289972E-17
7.218965E+03	4.576253E-17	1.294106E-17
7.228868E+03	4.588451E-17	1.298124E-17
7.238770E+03	4.600204E-17	1.302024E-17
7.248673E+03	4.611505E-17	1.305804E-17
7.258576E+03	4.622251E-17	1.309436E-17
7.268478E+03	4.632533E-17	1.312944E-17
7.278381E+03	4.642451E-17	1.316357E-17
7.288283E+03	4.651797E-17	1.319616E-17
7.298186E+03	4.660666E-17	1.322748E-17
7.308088E+03	4.669059E-17	1.325753E-17
7.317991E+03	4.677078E-17	1.328659E-17
7.327894E+03	4.684622E-17	1.331437E-17
7.337796E+03	4.691798E-17	1.334118E-17
7.347699E+03	4.698720E-17	1.336735E-17
7.357601E+03	4.705292E-17	1.339259E-17
7.367504E+03	4.711739E-17	1.341756E-17
7.377406E+03	4.717865E-17	1.344168E-17
7.387309E+03	4.723789E-17	1.346529E-17
7.397211E+03	4.729424E-17	1.348816E-17
7.407114E+03	4.734895E-17	1.351063E-17
7.417017E+03	4.740004E-17	1.353214E-17
7.426919E+03	4.744876E-17	1.355304E-17
7.436822E+03	4.749531E-17	1.357339E-17
7.446724E+03	4.753875E-17	1.359291E-17
7.456627E+03	4.758146E-17	1.361230E-17
7.466529E+03	4.762139E-17	1.363097E-17
7.476432E+03	4.765980E-17	1.364926E-17
7.486334E+03	4.769572E-17	1.366690E-17
7.496237E+03	4.773038E-17	1.368425E-17
7.506140E+03	4.776278E-17	1.370100E-17
7.516042E+03	4.779413E-17	1.371752E-17
7.525945E+03	4.782340E-17	1.373349E-17
7.535847E+03	4.785062E-17	1.374894E-17
7.545750E+03	4.787702E-17	1.376420E-17
7.555652E+03	4.790145E-17	1.377895E-17
7.565555E+03	4.792392E-17	1.379319E-17
7.575457E+03	4.794557E-17	1.380725E-17
7.585360E+03	4.796522E-17	1.382077E-17
7.595263E+03	4.798395E-17	1.383408E-17
7.605165E+03	4.799936E-17	1.384648E-17
7.615068E+03	4.801367E-17	1.385861E-17
7.624970E+03	4.802681E-17	1.387044E-17
7.634873E+03	4.803744E-17	1.388159E-17
7.644775E+03	4.804663E-17	1.389236E-17
7.654678E+03	4.805302E-17	1.390236E-17
7.664581E+03	4.805642E-17	1.391154E-17
7.674483E+03	4.805788E-17	1.392018E-17
7.684386E+03	4.805719E-17	1.392824E-17
