#wls	flux	fluxerr
1.584409E+03	-1.630783E-17	-4.164619E-17
1.624020E+03	-1.831427E-17	-4.681593E-17
1.663630E+03	-2.045178E-17	-5.233207E-17
1.703240E+03	-2.270927E-17	-5.816759E-17
1.742850E+03	-2.507271E-17	-6.428780E-17
1.782461E+03	-2.698409E-17	-6.918441E-17
1.822071E+03	-2.887204E-17	-7.402026E-17
1.861681E+03	-3.068203E-17	-7.865555E-17
1.901291E+03	-3.234512E-17	-8.291357E-17
1.940902E+03	-3.309001E-17	-8.470679E-17
1.980512E+03	-3.354089E-17	-8.574090E-17
2.020122E+03	-3.371872E-17	-8.607245E-17
2.059732E+03	-3.373253E-17	-8.598220E-17
2.099342E+03	-3.301914E-17	-8.391100E-17
2.138953E+03	-3.264358E-17	-8.270213E-17
2.178563E+03	-3.276162E-17	-8.274110E-17
2.218173E+03	-3.335480E-17	-8.396954E-17
2.257783E+03	-3.327347E-17	-8.334378E-17
2.297394E+03	-3.318838E-17	-8.270366E-17
2.337004E+03	-3.291500E-17	-8.159181E-17
2.376614E+03	-3.235644E-17	-7.977675E-17
2.416224E+03	-3.031322E-17	-7.417771E-17
2.455835E+03	-2.798903E-17	-6.796439E-17
2.495445E+03	-2.545389E-17	-6.132303E-17
2.535055E+03	-2.278041E-17	-5.444122E-17
2.574665E+03	-1.883515E-17	-4.453847E-17
2.614276E+03	-1.499047E-17	-3.506510E-17
2.653886E+03	-1.131301E-17	-2.617109E-17
2.693496E+03	-7.857617E-18	-1.797231E-17
2.733106E+03	-3.652161E-18	-8.234862E-18
2.772716E+03	7.484645E-20	1.663125E-19
2.812327E+03	3.305636E-18	7.236086E-18
2.851937E+03	6.036743E-18	1.301332E-17
2.891547E+03	8.816909E-18	1.865923E-17
2.931157E+03	1.096315E-17	2.276728E-17
2.970768E+03	1.252707E-17	2.551650E-17
2.980670E+03	1.283409E-17	2.601376E-17
2.990573E+03	1.314656E-17	2.650432E-17
3.000475E+03	1.342327E-17	2.691626E-17
3.010378E+03	1.366575E-17	2.725383E-17
3.020280E+03	1.387528E-17	2.752066E-17
3.030183E+03	1.406278E-17	2.773350E-17
3.040086E+03	1.421795E-17	2.787867E-17
3.049988E+03	1.434279E-17	2.796111E-17
3.059891E+03	1.443928E-17	2.798573E-17
3.069793E+03	1.451292E-17	2.795801E-17
3.079696E+03	1.455912E-17	2.787600E-17
3.089598E+03	1.457887E-17	2.774256E-17
3.099501E+03	1.457405E-17	2.756215E-17
3.109403E+03	1.454447E-17	2.732926E-17
3.119306E+03	1.449108E-17	2.705268E-17
3.129209E+03	1.441552E-17	2.673631E-17
3.139111E+03	1.431882E-17	2.638287E-17
3.149014E+03	1.419752E-17	2.598090E-17
3.158916E+03	1.405648E-17	2.554618E-17
3.168819E+03	1.389729E-17	2.508236E-17
3.178721E+03	1.372126E-17	2.459245E-17
3.188624E+03	1.352085E-17	2.405806E-17
3.198526E+03	1.330515E-17	2.350202E-17
3.208429E+03	1.307541E-17	2.292708E-17
3.218332E+03	1.283285E-17	2.233592E-17
3.228234E+03	1.256719E-17	2.170612E-17
3.238137E+03	1.229026E-17	2.106429E-17
3.248039E+03	1.200319E-17	2.041277E-17
3.257942E+03	1.170685E-17	1.975343E-17
3.267844E+03	1.138884E-17	1.906125E-17
3.277747E+03	1.106297E-17	1.836496E-17
3.287650E+03	1.073034E-17	1.766665E-17
3.297552E+03	1.039166E-17	1.696775E-17
3.307455E+03	1.003226E-17	1.624073E-17
3.317357E+03	9.668128E-18	1.551640E-17
3.327260E+03	9.299654E-18	1.479559E-17
3.337162E+03	8.927759E-18	1.407988E-17
3.347065E+03	8.535775E-18	1.333998E-17
3.356967E+03	8.141116E-18	1.260739E-17
3.366870E+03	7.744258E-18	1.188290E-17
3.376773E+03	7.345396E-18	1.116688E-17
3.386675E+03	6.927140E-18	1.043051E-17
3.396578E+03	6.507517E-18	9.704492E-18
3.406480E+03	6.086815E-18	8.989266E-18
3.416383E+03	5.665259E-18	8.285157E-18
3.426285E+03	5.224371E-18	7.563428E-18
3.436188E+03	4.783039E-18	6.854272E-18
3.446090E+03	4.341257E-18	6.157636E-18
3.455993E+03	3.899109E-18	5.473596E-18
3.465896E+03	3.437705E-18	4.774610E-18
3.475798E+03	2.976216E-18	4.089424E-18
3.485701E+03	2.514563E-18	3.417862E-18
3.495603E+03	2.052702E-18	2.759798E-18
3.505506E+03	1.571763E-18	2.089522E-18
3.515408E+03	1.090841E-18	1.433816E-18
3.525311E+03	6.098962E-19	7.925437E-19
3.535213E+03	1.288606E-19	1.655331E-19
3.545116E+03	-3.703405E-19	-4.701198E-19
3.555019E+03	-8.692609E-19	-1.090337E-18
3.564921E+03	-1.367932E-18	-1.695268E-18
3.574824E+03	-1.866381E-18	-2.285052E-18
3.584726E+03	-2.379159E-18	-2.876619E-18
3.594629E+03	-2.890993E-18	-3.451646E-18
3.604531E+03	-3.401877E-18	-4.010278E-18
3.614434E+03	-3.911718E-18	-4.552554E-18
3.624337E+03	-4.430300E-18	-5.088498E-18
3.634239E+03	-4.946622E-18	-5.606442E-18
3.644142E+03	-5.460517E-18	-6.106421E-18
3.654044E+03	-5.971743E-18	-6.588392E-18
3.663947E+03	-6.484696E-18	-7.055475E-18
3.673849E+03	-6.993181E-18	-7.502716E-18
3.683752E+03	-7.496752E-18	-7.929970E-18
3.693654E+03	-7.994864E-18	-8.337012E-18
3.703557E+03	-8.486238E-18	-8.720556E-18
3.713460E+03	-8.969645E-18	-9.081919E-18
3.723362E+03	-9.444435E-18	-9.420935E-18
3.733265E+03	-9.910006E-18	-9.737522E-18
3.743167E+03	-1.035804E-17	-1.002151E-17
3.753070E+03	-1.079346E-17	-1.028099E-17
3.762972E+03	-1.121510E-17	-1.051555E-17
3.772875E+03	-1.162199E-17	-1.072505E-17
3.782777E+03	-1.199880E-17	-1.089346E-17
3.792680E+03	-1.235641E-17	-1.103470E-17
3.802583E+03	-1.269344E-17	-1.114852E-17
3.812485E+03	-1.300855E-17	-1.123477E-17
3.822388E+03	-1.327818E-17	-1.127161E-17
3.832290E+03	-1.352032E-17	-1.127898E-17
3.842193E+03	-1.373301E-17	-1.125655E-17
3.852095E+03	-1.391440E-17	-1.120416E-17
3.861998E+03	-1.403227E-17	-1.109502E-17
3.871900E+03	-1.411192E-17	-1.095434E-17
3.881803E+03	-1.415105E-17	-1.078202E-17
3.891706E+03	-1.414705E-17	-1.057785E-17
3.901608E+03	-1.405835E-17	-1.031077E-17
3.911511E+03	-1.391832E-17	-1.001087E-17
3.921413E+03	-1.372368E-17	-9.677981E-18
3.931316E+03	-1.347165E-17	-9.312382E-18
3.941218E+03	-1.311040E-17	-8.879350E-18
3.951121E+03	-1.268158E-17	-8.413073E-18
3.961024E+03	-1.218160E-17	-7.913861E-18
3.970926E+03	-1.160646E-17	-7.381929E-18
3.980829E+03	-1.089422E-17	-6.780243E-18
3.990731E+03	-1.009526E-17	-6.146408E-18
4.000634E+03	-9.205052E-18	-5.480949E-18
4.010536E+03	-8.218844E-18	-4.784446E-18
4.020439E+03	-7.063977E-18	-4.018357E-18
4.030341E+03	-5.799639E-18	-3.222818E-18
4.040244E+03	-4.420420E-18	-2.398752E-18
4.050147E+03	-2.920705E-18	-1.547182E-18
4.060049E+03	-1.217113E-18	-6.290665E-19
4.069952E+03	6.225279E-19	3.138130E-19
4.079854E+03	2.604654E-18	1.280077E-18
4.089757E+03	4.735955E-18	2.268232E-18
4.099659E+03	7.109895E-18	3.316719E-18
4.109562E+03	9.650693E-18	4.383053E-18
4.119464E+03	1.236598E-17	5.465343E-18
4.129367E+03	1.526371E-17	6.561564E-18
4.139270E+03	1.844653E-17	7.708740E-18
4.149172E+03	2.183160E-17	8.864375E-18
4.159075E+03	2.542809E-17	1.002607E-17
4.168977E+03	2.924573E-17	1.119135E-17
4.178880E+03	3.339393E-17	1.239488E-17
4.188782E+03	3.778554E-17	1.359515E-17
4.198685E+03	4.243105E-17	1.478900E-17
4.208587E+03	4.734206E-17	1.597333E-17
4.218490E+03	5.263296E-17	1.718067E-17
4.228393E+03	5.821376E-17	1.837018E-17
4.238295E+03	6.409822E-17	1.953846E-17
4.248198E+03	7.029809E-17	2.068110E-17
4.258100E+03	7.693001E-17	2.182927E-17
4.268003E+03	8.390541E-17	2.294259E-17
4.277905E+03	9.123899E-17	2.401657E-17
4.287808E+03	9.894505E-17	2.504616E-17
4.297711E+03	1.071348E-16	2.606198E-17
4.307613E+03	1.157263E-16	2.702293E-17
4.317516E+03	1.247344E-16	2.792326E-17
4.327418E+03	1.341784E-16	2.875777E-17
4.337321E+03	1.441543E-16	2.955926E-17
4.347223E+03	1.545943E-16	3.028341E-17
4.357126E+03	1.655129E-16	3.092320E-17
4.367028E+03	1.769257E-16	3.147159E-17
4.376931E+03	1.888992E-16	3.196938E-17
4.386834E+03	2.013808E-16	3.236271E-17
4.396736E+03	2.143785E-16	3.264326E-17
4.406639E+03	2.278979E-16	3.280232E-17
4.416541E+03	2.418427E-16	3.288504E-17
4.426444E+03	2.562994E-16	3.283636E-17
4.436346E+03	2.712699E-16	3.264816E-17
4.446249E+03	2.867563E-16	3.231252E-17
4.456151E+03	3.019951E-16	3.185936E-17
4.466054E+03	3.176896E-16	3.126053E-17
4.475957E+03	3.338380E-16	3.050982E-17
4.485859E+03	3.504335E-16	2.960083E-17
4.495762E+03	3.657934E-16	2.862039E-17
4.505664E+03	3.814762E-16	2.750220E-17
4.515567E+03	3.974661E-16	2.624240E-17
4.525469E+03	4.137410E-16	2.483719E-17
4.535372E+03	4.275498E-16	2.361907E-17
4.545274E+03	4.414662E-16	2.230160E-17
4.555177E+03	4.554449E-16	2.088323E-17
4.565080E+03	4.694529E-16	1.936372E-17
4.574982E+03	4.796600E-16	1.868851E-17
4.584885E+03	4.896860E-16	1.797442E-17
4.594787E+03	4.994872E-16	1.722180E-17
4.604690E+03	5.090083E-16	1.643092E-17
4.614592E+03	5.131312E-16	1.696776E-17
4.624495E+03	5.167843E-16	1.749100E-17
4.634398E+03	5.199314E-16	1.799827E-17
4.644300E+03	5.225271E-16	1.848677E-17
4.654203E+03	5.185890E-16	1.970097E-17
4.664105E+03	5.140577E-16	2.086286E-17
4.674008E+03	5.089196E-16	2.196749E-17
4.683910E+03	5.031622E-16	2.300991E-17
4.693813E+03	4.917999E-16	2.400011E-17
4.703715E+03	4.800064E-16	2.489543E-17
4.713618E+03	4.678198E-16	2.569423E-17
4.723521E+03	4.552751E-16	2.639514E-17
4.733423E+03	4.387037E-16	2.676171E-17
4.743326E+03	4.220713E-16	2.702546E-17
4.753228E+03	4.054238E-16	2.718875E-17
4.763131E+03	3.888105E-16	2.725476E-17
4.773033E+03	3.697964E-16	2.696873E-17
4.782936E+03	3.511181E-16	2.660360E-17
4.792838E+03	3.328173E-16	2.616499E-17
4.802741E+03	3.149432E-16	2.565970E-17
4.812644E+03	2.960527E-16	2.488875E-17
4.822546E+03	2.778062E-16	2.407868E-17
4.832449E+03	2.602268E-16	2.323599E-17
4.842351E+03	2.433371E-16	2.236742E-17
4.852254E+03	2.264375E-16	2.134792E-17
4.862156E+03	2.103355E-16	2.032808E-17
4.872059E+03	1.950338E-16	1.931333E-17
4.881961E+03	1.805283E-16	1.830846E-17
4.891864E+03	1.666196E-16	1.725516E-17
4.901767E+03	1.535153E-16	1.622854E-17
4.911669E+03	1.412013E-16	1.523196E-17
4.921572E+03	1.296566E-16	1.426793E-17
4.931474E+03	1.189753E-16	1.332731E-17
4.941377E+03	1.089979E-16	1.242530E-17
4.951279E+03	9.970145E-17	1.156325E-17
4.961182E+03	9.105824E-17	1.074184E-17
4.971085E+03	8.331369E-17	9.983434E-18
4.980987E+03	7.612206E-17	9.263453E-18
4.990890E+03	6.945632E-17	8.581648E-18
5.000792E+03	6.329129E-17	7.937803E-18
5.010695E+03	5.793656E-17	7.371707E-18
5.020597E+03	5.297552E-17	6.836588E-18
5.030500E+03	4.838644E-17	6.331837E-18
5.040402E+03	4.414965E-17	5.856952E-18
5.050305E+03	4.059071E-17	5.459464E-18
5.060208E+03	3.728811E-17	5.083303E-18
5.070110E+03	3.422903E-17	4.728250E-18
5.080013E+03	3.139862E-17	4.393684E-18
5.089915E+03	2.910376E-17	4.126794E-18
5.099818E+03	2.696424E-17	3.873045E-18
5.109720E+03	2.497161E-17	3.632222E-18
5.119623E+03	2.311800E-17	3.404116E-18
5.129525E+03	2.164730E-17	3.226579E-18
5.139428E+03	2.026673E-17	3.056733E-18
5.149331E+03	1.897196E-17	2.894533E-18
5.159233E+03	1.775825E-17	2.739822E-18
5.169136E+03	1.681315E-17	2.621769E-18
5.179038E+03	1.591885E-17	2.508077E-18
5.188941E+03	1.507307E-17	2.398729E-18
5.198843E+03	1.427366E-17	2.293708E-18
5.208746E+03	1.366904E-17	2.216114E-18
5.218648E+03	1.309167E-17	2.140820E-18
5.228551E+03	1.254077E-17	2.067880E-18
5.238454E+03	1.201511E-17	1.997264E-18
5.248356E+03	1.163678E-17	1.947994E-18
5.258259E+03	1.127182E-17	1.899765E-18
5.268161E+03	1.092003E-17	1.852628E-18
5.278064E+03	1.058085E-17	1.806577E-18
5.287966E+03	1.034542E-17	1.775866E-18
5.297869E+03	1.011609E-17	1.745532E-18
5.307379E+03	7.452539E-17	1.292165E-17
5.307577E+03	7.420591E-17	1.286754E-17
5.310547E+03	7.319526E-17	1.270922E-17
5.312529E+03	7.243561E-17	1.258843E-17
5.314707E+03	7.161851E-17	1.245844E-17
5.315698E+03	7.110446E-17	1.237441E-17
5.318669E+03	7.011772E-17	1.221794E-17
5.319660E+03	6.961941E-17	1.213613E-17
5.319858E+03	6.932074E-17	1.208507E-17
5.320452E+03	6.892273E-17	1.201865E-17
5.321244E+03	6.847609E-17	1.194461E-17
5.321442E+03	6.817926E-17	1.189378E-17
5.322036E+03	6.778860E-17	1.182848E-17
5.323026E+03	6.730070E-17	1.174804E-17
5.324809E+03	6.663035E-17	1.163920E-17
5.325601E+03	6.619683E-17	1.156707E-17
5.325799E+03	6.589968E-17	1.151604E-17
5.325997E+03	6.560518E-17	1.146546E-17
5.327583E+03	6.498843E-17	1.136457E-17
5.328177E+03	6.460408E-17	1.129992E-17
5.328375E+03	6.431516E-17	1.125024E-17
5.328771E+03	6.397291E-17	1.119206E-17
5.329167E+03	6.363036E-17	1.113378E-17
5.329761E+03	6.324810E-17	1.106934E-17
5.330751E+03	6.277633E-17	1.099082E-17
5.330949E+03	6.248898E-17	1.094132E-17
5.331148E+03	6.219359E-17	1.089039E-17
5.332138E+03	6.172529E-17	1.081229E-17
5.332535E+03	6.138988E-17	1.075509E-17
5.332733E+03	6.109770E-17	1.070468E-17
5.333326E+03	6.072423E-17	1.064150E-17
5.333920E+03	6.034343E-17	1.057701E-17
5.334910E+03	5.987488E-17	1.049859E-17
5.335109E+03	5.958246E-17	1.044805E-17
5.335307E+03	5.929164E-17	1.039777E-17
5.335703E+03	5.896573E-17	1.034205E-17
5.336099E+03	5.863957E-17	1.028627E-17
5.336297E+03	5.836354E-17	1.023856E-17
5.336891E+03	5.798766E-17	1.017470E-17
5.337089E+03	5.770104E-17	1.012510E-17
5.337882E+03	5.729095E-17	1.005588E-17
5.338476E+03	5.692021E-17	9.992837E-18
5.339071E+03	5.655489E-17	9.930691E-18
5.339467E+03	5.623066E-17	9.875073E-18
5.339665E+03	5.595270E-17	9.826913E-18
5.339863E+03	5.566239E-17	9.776577E-18
5.340061E+03	5.537987E-17	9.727595E-18
5.340259E+03	5.509216E-17	9.677693E-18
5.340457E+03	5.481184E-17	9.629084E-18
5.341249E+03	5.440463E-17	9.560054E-18
5.341447E+03	5.411940E-17	9.510548E-18
5.342041E+03	5.375787E-17	9.448849E-18
5.342239E+03	5.348297E-17	9.401138E-18
5.342437E+03	5.320913E-17	9.353605E-18
5.343032E+03	5.285666E-17	9.293422E-18
5.343231E+03	5.257373E-17	9.244268E-18
5.343825E+03	5.221798E-17	9.183466E-18
5.344023E+03	5.193691E-17	9.134614E-18
5.344617E+03	5.158196E-17	9.073890E-18
5.344815E+03	5.130765E-17	9.026199E-18
5.345013E+03	5.102900E-17	8.977738E-18
5.345408E+03	5.071986E-17	8.924462E-18
5.345607E+03	5.044069E-17	8.875891E-18
5.345805E+03	5.016495E-17	8.827913E-18
5.346200E+03	4.985020E-17	8.773604E-18
5.346398E+03	4.956983E-17	8.724796E-18
5.346596E+03	4.929925E-17	8.677699E-18
5.346795E+03	4.903052E-17	8.630924E-18
5.346993E+03	4.875904E-17	8.583657E-18
5.347389E+03	4.845324E-17	8.530862E-18
5.347587E+03	4.819273E-17	8.485506E-18
5.347785E+03	4.792180E-17	8.438310E-18
5.347983E+03	4.764966E-17	8.390895E-18
5.348578E+03	4.730604E-17	8.331888E-18
5.348776E+03	4.704351E-17	8.286139E-18
5.349172E+03	4.674718E-17	8.234918E-18
5.349964E+03	4.637952E-17	8.172082E-18
5.350162E+03	4.611767E-17	8.126423E-18
5.350559E+03	4.581767E-17	8.074497E-18
5.350757E+03	4.555089E-17	8.027947E-18
5.351153E+03	4.525346E-17	7.976451E-18
5.351747E+03	4.492257E-17	7.919503E-18
5.351945E+03	4.465818E-17	7.873341E-18
5.352341E+03	4.436071E-17	7.821789E-18
5.352539E+03	4.409708E-17	7.775748E-18
5.352737E+03	4.384127E-17	7.731080E-18
5.352935E+03	4.357851E-17	7.685177E-18
5.353133E+03	4.331682E-17	7.639455E-18
5.353331E+03	4.306219E-17	7.594975E-18
5.354124E+03	4.271045E-17	7.534630E-18
5.354521E+03	4.242574E-17	7.485232E-18
5.354719E+03	4.217132E-17	7.440755E-18
5.354917E+03	4.191645E-17	7.396195E-18
5.355115E+03	4.166485E-17	7.352206E-18
5.355511E+03	4.138684E-17	7.303946E-18
5.355709E+03	4.113769E-17	7.260371E-18
5.355907E+03	4.088585E-17	7.216319E-18
5.356105E+03	4.063358E-17	7.172183E-18
5.356699E+03	4.031232E-17	7.116627E-18
5.356897E+03	4.006190E-17	7.072798E-18
5.357095E+03	3.981622E-17	7.029803E-18
5.357292E+03	3.956565E-17	6.985936E-18
5.357490E+03	3.931928E-17	6.942804E-18
5.357688E+03	3.907469E-17	6.899981E-18
5.357887E+03	3.882821E-17	6.856822E-18
5.358283E+03	3.855759E-17	6.809753E-18
5.358679E+03	3.829160E-17	6.763483E-18
5.358877E+03	3.804867E-17	6.720924E-18
5.359274E+03	3.777469E-17	6.673227E-18
5.359472E+03	3.752738E-17	6.629883E-18
5.359868E+03	3.725640E-17	6.582687E-18
5.360066E+03	3.701152E-17	6.539756E-18
5.360462E+03	3.674007E-17	6.492459E-18
5.360660E+03	3.650395E-17	6.451065E-18
5.361056E+03	3.623606E-17	6.404371E-18
5.361254E+03	3.600156E-17	6.363248E-18
5.361452E+03	3.576736E-17	6.322172E-18
5.361650E+03	3.553345E-17	6.281144E-18
5.361848E+03	3.529854E-17	6.239933E-18
5.362046E+03	3.506682E-17	6.199280E-18
5.362245E+03	3.483465E-17	6.158545E-18
5.362443E+03	3.459845E-17	6.117090E-18
5.362641E+03	3.436846E-17	6.076729E-18
5.363235E+03	3.408238E-17	6.027037E-18
5.363433E+03	3.385038E-17	5.986306E-18
5.363631E+03	3.362082E-17	5.946001E-18
5.364027E+03	3.336952E-17	5.902130E-18
5.364423E+03	3.311803E-17	5.858215E-18
5.364622E+03	3.289400E-17	5.818870E-18
5.365018E+03	3.264343E-17	5.775104E-18
5.365216E+03	3.241967E-17	5.735790E-18
5.365414E+03	3.220623E-17	5.698298E-18
5.365612E+03	3.198805E-17	5.659966E-18
5.365810E+03	3.177014E-17	5.621676E-18
5.366008E+03	3.154975E-17	5.582942E-18
5.366207E+03	3.133038E-17	5.544383E-18
5.366405E+03	3.112055E-17	5.507510E-18
5.366603E+03	3.090458E-17	5.469546E-18
5.367197E+03	3.063692E-17	5.422929E-18
5.367593E+03	3.039881E-17	5.381280E-18
5.367989E+03	3.016050E-17	5.339587E-18
5.368187E+03	2.994206E-17	5.301160E-18
5.368385E+03	2.972974E-17	5.263808E-18
5.368583E+03	2.952547E-17	5.227879E-18
5.368781E+03	2.931934E-17	5.191617E-18
5.368979E+03	2.910995E-17	5.154774E-18
5.369177E+03	2.889885E-17	5.117622E-18
5.369374E+03	2.869574E-17	5.081881E-18
5.369572E+03	2.849571E-17	5.046684E-18
5.369770E+03	2.829525E-17	5.011405E-18
5.369970E+03	2.808601E-17	4.974569E-18
5.370169E+03	2.787695E-17	4.937760E-18
5.370366E+03	2.767178E-17	4.901635E-18
5.370564E+03	2.747247E-17	4.866547E-18
5.370762E+03	2.727704E-17	4.832139E-18
5.370960E+03	2.707624E-17	4.796778E-18
5.371158E+03	2.688062E-17	4.762331E-18
5.371356E+03	2.668735E-17	4.728297E-18
5.371752E+03	2.647071E-17	4.690320E-18
5.371950E+03	2.627887E-17	4.656529E-18
5.372148E+03	2.608102E-17	4.621670E-18
5.372346E+03	2.589177E-17	4.588332E-18
5.372742E+03	2.568389E-17	4.551881E-18
5.372940E+03	2.550166E-17	4.519776E-18
5.373138E+03	2.531963E-17	4.487705E-18
5.373336E+03	2.513508E-17	4.455184E-18
5.373534E+03	2.495294E-17	4.423087E-18
5.373732E+03	2.476899E-17	4.390663E-18
5.373931E+03	2.458457E-17	4.358156E-18
5.374129E+03	2.440387E-17	4.326304E-18
5.374327E+03	2.421590E-17	4.293158E-18
5.374525E+03	2.403645E-17	4.261520E-18
5.374723E+03	2.385861E-17	4.230165E-18
5.374921E+03	2.368033E-17	4.198730E-18
5.375119E+03	2.350100E-17	4.167104E-18
5.375317E+03	2.332123E-17	4.135397E-18
5.375516E+03	2.314984E-17	4.105173E-18
5.375714E+03	2.297809E-17	4.074882E-18
5.375912E+03	2.280325E-17	4.044040E-18
5.376110E+03	2.262657E-17	4.012868E-18
5.376704E+03	2.242020E-17	3.976748E-18
5.376902E+03	2.225517E-17	3.947634E-18
5.377100E+03	2.208772E-17	3.918087E-18
5.377298E+03	2.192254E-17	3.888939E-18
5.377496E+03	2.175825E-17	3.859947E-18
5.377694E+03	2.159420E-17	3.830997E-18
5.377893E+03	2.142977E-17	3.801973E-18
5.378091E+03	2.127372E-17	3.774435E-18
5.378289E+03	2.111378E-17	3.746205E-18
5.378487E+03	2.095204E-17	3.717651E-18
5.378685E+03	2.079195E-17	3.689388E-18
5.378883E+03	2.062869E-17	3.660559E-18
5.379081E+03	2.047107E-17	3.632729E-18
5.379279E+03	2.031704E-17	3.605535E-18
5.379675E+03	2.014427E-17	3.575146E-18
5.379873E+03	1.999423E-17	3.548651E-18
5.380071E+03	1.984371E-17	3.522068E-18
5.380269E+03	1.969676E-17	3.496120E-18
5.380467E+03	1.954471E-17	3.469260E-18
5.380665E+03	1.939622E-17	3.443031E-18
5.380864E+03	1.924920E-17	3.417061E-18
5.381062E+03	1.910246E-17	3.391139E-18
5.381260E+03	1.894792E-17	3.363828E-18
5.381458E+03	1.880033E-17	3.337749E-18
5.381656E+03	1.865493E-17	3.312056E-18
5.381854E+03	1.850639E-17	3.285805E-18
5.382052E+03	1.836815E-17	3.261380E-18
5.382251E+03	1.823010E-17	3.236986E-18
5.382449E+03	1.809425E-17	3.212979E-18
5.382646E+03	1.795325E-17	3.188056E-18
5.382844E+03	1.781450E-17	3.163531E-18
5.383042E+03	1.767661E-17	3.139158E-18
5.383240E+03	1.754823E-17	3.116470E-18
5.383438E+03	1.741669E-17	3.093219E-18
5.383636E+03	1.728407E-17	3.069775E-18
5.383834E+03	1.715231E-17	3.046480E-18
5.384032E+03	1.701806E-17	3.022742E-18
5.384230E+03	1.689395E-17	3.000803E-18
5.384428E+03	1.676675E-17	2.978313E-18
5.384626E+03	1.663642E-17	2.955264E-18
5.384824E+03	1.651420E-17	2.933655E-18
5.385022E+03	1.639547E-17	2.912664E-18
5.385220E+03	1.627563E-17	2.891473E-18
5.385418E+03	1.615991E-17	2.871013E-18
5.385617E+03	1.604105E-17	2.849994E-18
5.385815E+03	1.591709E-17	2.828065E-18
5.386013E+03	1.580059E-17	2.807462E-18
5.386212E+03	1.567696E-17	2.785589E-18
5.386410E+03	1.556276E-17	2.765390E-18
5.386608E+03	1.544412E-17	2.744402E-18
5.386806E+03	1.532636E-17	2.723566E-18
5.387004E+03	1.521073E-17	2.703107E-18
5.387202E+03	1.509591E-17	2.682791E-18
5.387400E+03	1.498256E-17	2.662736E-18
5.387598E+03	1.487335E-17	2.643413E-18
5.387796E+03	1.476559E-17	2.624346E-18
5.387994E+03	1.465863E-17	2.605421E-18
