#wls	flux	fluxerr
1.584409E+03	2.926744E-18	4.142667E-18
1.624020E+03	2.902779E-18	4.012951E-18
1.663630E+03	2.818802E-18	3.808528E-18
1.703240E+03	2.667902E-18	3.525161E-18
1.742850E+03	2.443699E-18	3.159609E-18
1.782461E+03	1.951679E-18	2.464825E-18
1.822071E+03	1.345408E-18	1.660562E-18
1.861681E+03	6.224307E-19	7.511687E-19
1.901291E+03	-2.145818E-19	-2.533358E-19
1.940902E+03	-1.402709E-18	-1.617261E-18
1.980512E+03	-2.694592E-18	-3.035258E-18
2.020122E+03	-4.068183E-18	-4.478858E-18
2.059732E+03	-5.517127E-18	-5.938966E-18
2.099342E+03	-7.278717E-18	-7.648110E-18
2.138953E+03	-9.249057E-18	-9.489245E-18
2.178563E+03	-1.156652E-17	-1.159044E-17
2.218173E+03	-1.436093E-17	-1.405937E-17
2.257783E+03	-1.781419E-17	-1.701011E-17
2.297394E+03	-2.181386E-17	-2.031968E-17
2.337004E+03	-2.632071E-17	-2.392248E-17
2.376614E+03	-3.128295E-17	-2.774709E-17
2.416224E+03	-3.658047E-17	-3.160948E-17
2.455835E+03	-4.220025E-17	-3.552832E-17
2.495445E+03	-4.811832E-17	-3.947215E-17
2.535055E+03	-5.432086E-17	-4.342029E-17
2.574665E+03	-6.037426E-17	-4.694061E-17
2.614276E+03	-6.658842E-17	-5.035458E-17
2.653886E+03	-7.294858E-17	-5.364981E-17
2.693496E+03	-7.944389E-17	-5.681798E-17
2.733106E+03	-8.515905E-17	-5.911554E-17
2.772716E+03	-9.083837E-17	-6.119038E-17
2.812327E+03	-9.645956E-17	-6.303651E-17
2.851937E+03	-1.020124E-16	-6.465701E-17
2.891547E+03	-1.061674E-16	-6.513667E-17
2.931157E+03	-1.100948E-16	-6.535480E-17
2.970768E+03	-1.137977E-16	-6.532992E-17
2.980670E+03	-1.146893E-16	-6.528823E-17
2.990573E+03	-1.153205E-16	-6.507782E-17
3.000475E+03	-1.159320E-16	-6.485263E-17
3.010378E+03	-1.165262E-16	-6.461427E-17
3.020280E+03	-1.171029E-16	-6.436291E-17
3.030183E+03	-1.175327E-16	-6.402142E-17
3.040086E+03	-1.179440E-16	-6.366803E-17
3.049988E+03	-1.183413E-16	-6.330553E-17
3.059891E+03	-1.187293E-16	-6.293660E-17
3.069793E+03	-1.189702E-16	-6.248217E-17
3.079696E+03	-1.191990E-16	-6.202131E-17
3.089598E+03	-1.194116E-16	-6.155221E-17
3.099501E+03	-1.196117E-16	-6.107686E-17
3.109403E+03	-1.196451E-16	-6.051092E-17
3.119306E+03	-1.196592E-16	-5.993716E-17
3.129209E+03	-1.196554E-16	-5.935647E-17
3.139111E+03	-1.196302E-16	-5.876749E-17
3.149014E+03	-1.194275E-16	-5.808822E-17
3.158916E+03	-1.192001E-16	-5.740098E-17
3.168819E+03	-1.189492E-16	-5.670679E-17
3.178721E+03	-1.186741E-16	-5.600557E-17
3.188624E+03	-1.182051E-16	-5.521242E-17
3.198526E+03	-1.177089E-16	-5.441309E-17
3.208429E+03	-1.171846E-16	-5.360758E-17
3.218332E+03	-1.166317E-16	-5.279594E-17
3.228234E+03	-1.158736E-16	-5.189394E-17
3.238137E+03	-1.150840E-16	-5.098699E-17
3.248039E+03	-1.142621E-16	-5.007517E-17
3.257942E+03	-1.134053E-16	-4.915779E-17
3.267844E+03	-1.123322E-16	-4.815234E-17
3.277747E+03	-1.112215E-16	-4.714279E-17
3.287650E+03	-1.100740E-16	-4.613003E-17
3.297552E+03	-1.088873E-16	-4.511345E-17
3.307455E+03	-1.074695E-16	-4.401036E-17
3.317357E+03	-1.060112E-16	-4.290579E-17
3.327260E+03	-1.045078E-16	-4.179850E-17
3.337162E+03	-1.029612E-16	-4.068982E-17
3.347065E+03	-1.011672E-16	-3.949633E-17
3.356967E+03	-9.932488E-17	-3.830259E-17
3.366870E+03	-9.743256E-17	-3.710855E-17
3.376773E+03	-9.548561E-17	-3.591312E-17
3.386675E+03	-9.327820E-17	-3.463693E-17
3.396578E+03	-9.101196E-17	-3.336127E-17
3.406480E+03	-8.868459E-17	-3.208607E-17
3.416383E+03	-8.629364E-17	-3.081125E-17
3.426285E+03	-8.362310E-17	-2.945849E-17
3.436188E+03	-8.088393E-17	-2.810818E-17
3.446090E+03	-7.807103E-17	-2.675945E-17
3.455993E+03	-7.518138E-17	-2.541226E-17
3.465896E+03	-7.199401E-17	-2.399156E-17
3.475798E+03	-6.872425E-17	-2.257480E-17
3.485701E+03	-6.536679E-17	-2.116134E-17
3.495603E+03	-6.191721E-17	-1.975094E-17
3.505506E+03	-5.815267E-17	-1.827302E-17
3.515408E+03	-5.428881E-17	-1.680064E-17
3.525311E+03	-5.032169E-17	-1.533395E-17
3.535213E+03	-4.624727E-17	-1.387311E-17
3.545116E+03	-4.183962E-17	-1.235170E-17
3.555019E+03	-3.731816E-17	-1.083946E-17
3.564921E+03	-3.267789E-17	-9.336479E-18
3.574824E+03	-2.791443E-17	-7.843136E-18
3.584726E+03	-2.280466E-17	-6.298916E-18
3.594629E+03	-1.756715E-17	-4.768752E-18
3.604531E+03	-1.219841E-17	-3.253444E-18
3.614434E+03	-6.694423E-18	-1.753725E-18
3.624337E+03	-8.408584E-19	-2.162782E-19
3.634239E+03	5.148648E-18	1.299821E-18
3.644142E+03	1.127681E-17	2.793386E-18
3.654044E+03	1.754606E-17	4.263116E-18
3.663947E+03	2.412338E-17	5.746485E-18
3.673849E+03	3.083646E-17	7.199099E-18
3.683752E+03	3.768613E-17	8.619284E-18
3.693654E+03	4.467224E-17	1.000513E-17
3.703557E+03	5.188779E-17	1.137459E-17
3.713460E+03	5.922687E-17	1.270209E-17
3.723362E+03	6.668815E-17	1.398563E-17
3.733265E+03	7.427040E-17	1.522328E-17
3.743167E+03	8.197878E-17	1.641401E-17
3.753070E+03	8.978687E-17	1.755112E-17
3.762972E+03	9.768895E-17	1.863211E-17
3.772875E+03	1.056811E-16	1.965495E-17
3.782777E+03	1.136772E-16	2.060306E-17
3.792680E+03	1.217333E-16	2.148591E-17
3.802583E+03	1.298424E-16	2.230144E-17
3.812485E+03	1.379980E-16	2.304779E-17
3.822388E+03	1.460125E-16	2.369563E-17
3.832290E+03	1.540368E-16	2.426898E-17
3.842193E+03	1.620599E-16	2.476598E-17
3.852095E+03	1.700729E-16	2.518528E-17
3.861998E+03	1.777854E-16	2.548987E-17
3.871900E+03	1.854454E-16	2.571402E-17
3.881803E+03	1.930428E-16	2.585706E-17
3.891706E+03	2.005638E-16	2.591802E-17
3.901608E+03	2.076152E-16	2.585828E-17
3.911511E+03	2.145490E-16	2.571764E-17
3.921413E+03	2.213487E-16	2.549576E-17
3.931316E+03	2.280068E-16	2.519365E-17
3.941218E+03	2.340269E-16	2.477863E-17
3.951121E+03	2.398611E-16	2.428797E-17
3.961024E+03	2.454990E-16	2.372315E-17
3.970926E+03	2.509263E-16	2.308550E-17
3.980829E+03	2.555610E-16	2.236172E-17
3.990731E+03	2.599537E-16	2.157449E-17
4.000634E+03	2.640942E-16	2.072621E-17
4.010536E+03	2.679701E-16	1.981927E-17
4.020439E+03	2.709206E-16	1.888234E-17
4.030341E+03	2.735867E-16	1.789965E-17
4.040244E+03	2.759611E-16	1.687434E-17
4.050147E+03	2.780372E-16	1.580972E-17
4.060049E+03	2.790875E-16	1.483200E-17
4.069952E+03	2.798324E-16	1.382929E-17
4.079854E+03	2.802665E-16	1.280472E-17
4.089757E+03	2.803898E-16	1.176177E-17
4.099659E+03	2.794330E-16	1.106290E-17
4.109562E+03	2.781743E-16	1.035576E-17
4.119464E+03	2.766158E-16	9.642602E-18
4.129367E+03	2.747600E-16	8.925643E-18
4.139270E+03	2.718236E-16	8.895676E-18
4.149172E+03	2.686169E-16	8.855555E-18
4.159075E+03	2.651492E-16	8.805390E-18
4.168977E+03	2.614307E-16	8.745322E-18
4.178880E+03	2.567319E-16	9.227517E-18
4.188782E+03	2.518273E-16	9.680201E-18
4.198685E+03	2.467264E-16	1.010213E-17
4.208587E+03	2.414437E-16	1.049234E-17
4.218490E+03	2.353995E-16	1.103897E-17
4.228393E+03	2.292263E-16	1.153988E-17
4.238295E+03	2.229419E-16	1.199451E-17
4.248198E+03	2.165546E-16	1.240198E-17
4.258100E+03	2.096383E-16	1.278733E-17
4.268003E+03	2.026785E-16	1.312049E-17
4.277905E+03	1.956891E-16	1.340170E-17
4.287808E+03	1.886824E-16	1.363130E-17
4.297711E+03	1.813937E-16	1.378633E-17
4.307613E+03	1.741401E-16	1.389122E-17
4.317516E+03	1.669329E-16	1.394708E-17
4.327418E+03	1.597890E-16	1.395570E-17
4.337321E+03	1.526169E-16	1.389002E-17
4.347223E+03	1.455481E-16	1.378285E-17
4.357126E+03	1.385902E-16	1.363589E-17
4.367028E+03	1.317507E-16	1.345093E-17
4.376931E+03	1.250848E-16	1.321227E-17
4.386834E+03	1.185567E-16	1.294263E-17
4.396736E+03	1.121714E-16	1.264385E-17
4.406639E+03	1.059336E-16	1.231785E-17
4.416541E+03	1.000196E-16	1.196598E-17
4.426444E+03	9.426320E-17	1.159454E-17
4.436346E+03	8.866923E-17	1.120561E-17
4.446249E+03	8.324271E-17	1.080133E-17
4.456151E+03	7.819776E-17	1.039378E-17
4.466054E+03	7.331904E-17	9.977490E-18
4.475957E+03	6.861019E-17	9.554445E-18
4.485859E+03	6.407338E-17	9.126471E-18
4.495762E+03	5.991715E-17	8.710958E-18
4.505664E+03	5.592273E-17	8.295300E-18
4.515567E+03	5.209088E-17	7.880974E-18
4.525469E+03	4.842099E-17	7.469258E-18
4.535372E+03	4.510827E-17	7.080933E-18
4.545274E+03	4.194241E-17	6.698254E-18
4.555177E+03	3.892039E-17	6.321882E-18
4.565080E+03	3.604055E-17	5.952675E-18
4.574982E+03	3.348243E-17	5.613372E-18
4.584885E+03	3.104795E-17	5.282515E-18
4.594787E+03	2.873438E-17	4.960526E-18
4.604690E+03	2.653829E-17	4.647681E-18
4.614592E+03	2.462212E-17	4.367364E-18
4.624495E+03	2.280425E-17	4.096173E-18
4.634398E+03	2.108202E-17	3.834269E-18
4.644300E+03	1.945217E-17	3.581681E-18
4.654203E+03	1.805941E-17	3.361356E-18
4.664105E+03	1.674080E-17	3.149446E-18
4.674008E+03	1.549371E-17	2.945889E-18
4.683910E+03	1.431519E-17	2.750539E-18
4.693813E+03	1.333399E-17	2.585404E-18
4.703715E+03	1.240520E-17	2.427097E-18
4.713618E+03	1.152675E-17	2.275485E-18
4.723521E+03	1.069650E-17	2.130398E-18
4.733423E+03	1.002837E-17	2.012475E-18
4.743326E+03	9.394970E-18	1.899561E-18
4.753228E+03	8.794697E-18	1.791488E-18
4.763131E+03	8.226137E-18	1.688115E-18
4.773033E+03	7.790511E-18	1.608613E-18
4.782936E+03	7.375692E-18	1.532330E-18
4.792838E+03	6.980757E-18	1.459150E-18
4.802741E+03	6.605011E-18	1.389004E-18
4.812644E+03	6.338265E-18	1.339482E-18
4.822546E+03	6.082008E-18	1.291633E-18
4.832449E+03	5.835814E-18	1.245399E-18
4.842351E+03	5.599387E-18	1.200748E-18
4.852254E+03	5.452970E-18	1.173789E-18
4.862156E+03	5.309538E-18	1.147235E-18
4.872059E+03	5.169095E-18	1.121092E-18
4.881961E+03	5.031586E-18	1.095358E-18
4.891864E+03	4.969219E-18	1.084785E-18
4.901767E+03	4.904611E-18	1.073644E-18
4.911669E+03	4.838067E-18	1.061996E-18
4.921572E+03	4.769721E-18	1.049869E-18
4.931474E+03	4.764966E-18	1.050784E-18
4.941377E+03	4.754465E-18	1.050423E-18
4.951279E+03	4.738674E-18	1.048881E-18
4.961182E+03	4.717931E-18	1.046224E-18
4.971085E+03	4.751911E-18	1.054896E-18
4.980987E+03	4.777995E-18	1.061828E-18
4.990890E+03	4.796577E-18	1.067102E-18
5.000792E+03	4.808172E-18	1.070826E-18
5.010695E+03	4.867813E-18	1.084550E-18
5.020597E+03	4.918206E-18	1.096222E-18
5.030500E+03	4.959774E-18	1.105935E-18
5.040402E+03	4.993111E-18	1.113818E-18
5.050305E+03	5.069609E-18	1.130727E-18
5.060208E+03	5.136020E-18	1.145382E-18
5.070110E+03	5.193010E-18	1.157932E-18
5.080013E+03	5.240966E-18	1.168465E-18
5.089915E+03	5.328483E-18	1.187327E-18
5.099818E+03	5.405679E-18	1.203872E-18
5.109720E+03	5.472977E-18	1.218196E-18
5.119623E+03	5.530890E-18	1.230419E-18
5.129525E+03	5.625920E-18	1.250546E-18
5.139428E+03	5.710537E-18	1.268331E-18
5.149331E+03	5.785169E-18	1.283872E-18
5.159233E+03	5.850107E-18	1.297241E-18
5.169136E+03	5.950572E-18	1.318308E-18
5.179038E+03	6.040670E-18	1.337043E-18
5.188941E+03	6.120700E-18	1.353522E-18
5.198843E+03	6.191007E-18	1.367824E-18
5.208746E+03	6.294022E-18	1.389379E-18
5.218648E+03	6.386788E-18	1.408641E-18
5.228551E+03	6.469652E-18	1.425690E-18
5.238454E+03	6.542758E-18	1.440565E-18
5.248356E+03	6.645209E-18	1.462165E-18
5.258259E+03	6.737621E-18	1.481534E-18
5.268161E+03	6.820258E-18	1.498732E-18
5.278064E+03	6.893230E-18	1.513790E-18
5.287966E+03	6.988569E-18	1.534198E-18
5.297869E+03	7.074194E-18	1.552462E-18
5.307379E+03	7.151396E-17	1.568890E-17
5.307577E+03	7.126098E-17	1.563329E-17
5.310547E+03	7.103699E-17	1.558353E-17
5.312529E+03	7.079735E-17	1.553055E-17
5.314707E+03	7.054407E-17	1.547454E-17
5.315698E+03	7.028549E-17	1.541761E-17
5.318669E+03	7.003183E-17	1.536173E-17
5.319660E+03	6.977480E-17	1.530526E-17
5.319858E+03	6.952350E-17	1.525013E-17
5.320452E+03	6.926791E-17	1.519401E-17
5.321244E+03	6.900714E-17	1.513681E-17
5.321442E+03	6.875493E-17	1.508148E-17
5.322036E+03	6.850120E-17	1.502582E-17
5.323026E+03	6.824093E-17	1.496872E-17
5.324809E+03	6.797398E-17	1.491025E-17
5.325601E+03	6.771495E-17	1.485346E-17
5.325799E+03	6.745670E-17	1.479682E-17
5.325997E+03	6.720080E-17	1.474070E-17
5.327583E+03	6.692755E-17	1.468092E-17
5.328177E+03	6.666591E-17	1.462359E-17
5.328375E+03	6.641238E-17	1.456800E-17
5.328771E+03	6.614785E-17	1.451001E-17
5.329167E+03	6.588132E-17	1.445160E-17
5.329761E+03	6.561655E-17	1.439361E-17
5.330751E+03	6.534457E-17	1.433410E-17
5.330949E+03	6.508888E-17	1.427804E-17
5.331148E+03	6.482409E-17	1.421999E-17
5.332138E+03	6.454946E-17	1.415993E-17
5.332535E+03	6.428408E-17	1.410178E-17
5.332733E+03	6.402058E-17	1.404402E-17
5.333326E+03	6.375481E-17	1.398585E-17
5.333920E+03	6.348031E-17	1.392576E-17
5.334910E+03	6.319529E-17	1.386345E-17
5.335109E+03	6.292814E-17	1.380489E-17
5.335307E+03	6.266205E-17	1.374657E-17
5.335703E+03	6.239932E-17	1.368903E-17
5.336099E+03	6.213558E-17	1.363127E-17
5.336297E+03	6.188369E-17	1.357606E-17
5.336891E+03	6.160546E-17	1.351519E-17
5.337089E+03	6.134094E-17	1.345721E-17
5.337882E+03	6.106435E-17	1.339676E-17
5.338476E+03	6.078819E-17	1.333633E-17
5.339071E+03	6.051571E-17	1.327674E-17
5.339467E+03	6.024695E-17	1.321790E-17
5.339665E+03	5.998811E-17	1.316117E-17
5.339863E+03	5.971564E-17	1.310145E-17
5.340061E+03	5.945094E-17	1.304344E-17
5.340259E+03	5.918032E-17	1.298413E-17
5.340457E+03	5.891728E-17	1.292649E-17
5.341249E+03	5.863107E-17	1.286395E-17
5.341447E+03	5.836125E-17	1.280482E-17
5.342041E+03	5.808352E-17	1.274409E-17
5.342239E+03	5.782376E-17	1.268716E-17
5.342437E+03	5.756476E-17	1.263040E-17
5.343032E+03	5.729355E-17	1.257111E-17
5.343231E+03	5.702360E-17	1.251196E-17
5.343825E+03	5.674692E-17	1.245146E-17
5.344023E+03	5.647772E-17	1.239247E-17
5.344617E+03	5.619923E-17	1.233159E-17
5.344815E+03	5.593607E-17	1.227392E-17
5.345013E+03	5.566782E-17	1.221514E-17
5.345408E+03	5.540115E-17	1.215677E-17
5.345607E+03	5.513142E-17	1.209766E-17
5.345805E+03	5.486492E-17	1.203926E-17
5.346200E+03	5.458997E-17	1.197909E-17
5.346398E+03	5.431747E-17	1.191937E-17
5.346596E+03	5.405522E-17	1.186190E-17
5.346795E+03	5.379466E-17	1.180481E-17
5.346993E+03	5.353074E-17	1.174697E-17
5.347389E+03	5.326252E-17	1.168827E-17
5.347587E+03	5.300961E-17	1.163285E-17
5.347785E+03	5.274492E-17	1.157485E-17
5.347983E+03	5.247853E-17	1.151647E-17
5.348578E+03	5.219906E-17	1.145539E-17
5.348776E+03	5.194199E-17	1.139906E-17
5.349172E+03	5.167974E-17	1.134168E-17
5.349964E+03	5.140251E-17	1.128118E-17
5.350162E+03	5.114446E-17	1.122463E-17
5.350559E+03	5.087531E-17	1.116574E-17
5.350757E+03	5.061073E-17	1.110776E-17
5.351153E+03	5.034322E-17	1.104923E-17
5.351747E+03	5.006903E-17	1.098931E-17
5.351945E+03	4.980533E-17	1.093153E-17
5.352341E+03	4.953527E-17	1.087244E-17
5.352539E+03	4.927160E-17	1.081465E-17
5.352737E+03	4.901631E-17	1.075871E-17
5.352935E+03	4.875274E-17	1.070095E-17
5.353133E+03	4.849004E-17	1.064338E-17
5.353331E+03	4.823494E-17	1.058748E-17
5.354124E+03	4.795997E-17	1.052750E-17
5.354521E+03	4.769920E-17	1.047044E-17
5.354719E+03	4.744247E-17	1.041418E-17
5.354917E+03	4.718492E-17	1.035774E-17
5.355115E+03	4.693072E-17	1.030203E-17
5.355511E+03	4.667502E-17	1.024610E-17
5.355709E+03	4.642262E-17	1.019079E-17
5.355907E+03	4.616689E-17	1.013474E-17
5.356105E+03	4.591031E-17	1.007851E-17
5.356699E+03	4.563123E-17	1.001754E-17
5.356897E+03	4.537563E-17	9.961519E-18
5.357095E+03	4.512509E-17	9.906613E-18
5.357292E+03	4.486853E-17	9.850382E-18
5.357490E+03	4.461644E-17	9.795135E-18
5.357688E+03	4.436601E-17	9.740254E-18
5.357887E+03	4.411324E-17	9.684857E-18
5.358283E+03	4.385931E-17	9.629298E-18
5.358679E+03	4.360984E-17	9.574724E-18
5.358877E+03	4.335958E-17	9.519875E-18
5.359274E+03	4.310004E-17	9.463086E-18
5.359472E+03	4.284398E-17	9.406964E-18
5.359868E+03	4.258625E-17	9.350573E-18
5.360066E+03	4.233203E-17	9.294853E-18
5.360462E+03	4.207266E-17	9.238099E-18
5.360660E+03	4.182765E-17	9.184398E-18
5.361056E+03	4.157093E-17	9.128226E-18
5.361254E+03	4.132692E-17	9.074746E-18
5.361452E+03	4.108295E-17	9.021271E-18
5.361650E+03	4.083897E-17	8.967795E-18
5.361848E+03	4.059345E-17	8.913981E-18
5.362046E+03	4.035131E-17	8.860907E-18
5.362245E+03	4.010835E-17	8.807652E-18
5.362443E+03	3.986041E-17	8.753305E-18
5.362641E+03	3.961927E-17	8.700449E-18
5.363235E+03	3.936039E-17	8.643895E-18
5.363433E+03	3.911600E-17	8.590323E-18
5.363631E+03	3.887410E-17	8.537295E-18
5.364027E+03	3.862973E-17	8.483828E-18
5.364423E+03	3.838456E-17	8.430182E-18
5.364622E+03	3.814786E-17	8.378296E-18
5.365018E+03	3.790263E-17	8.324634E-18
5.365216E+03	3.766530E-17	8.272609E-18
5.365414E+03	3.743963E-17	8.223143E-18
5.365612E+03	3.720822E-17	8.172415E-18
5.365810E+03	3.697678E-17	8.121679E-18
5.366008E+03	3.674214E-17	8.070241E-18
5.366207E+03	3.650838E-17	8.018996E-18
5.366405E+03	3.628548E-17	7.970134E-18
5.366603E+03	3.605508E-17	7.919624E-18
5.367197E+03	3.580638E-17	7.865295E-18
5.367593E+03	3.557024E-17	7.813620E-18
5.367989E+03	3.533330E-17	7.761768E-18
5.368187E+03	3.509822E-17	7.710223E-18
5.368385E+03	3.486991E-17	7.660169E-18
5.368583E+03	3.465078E-17	7.612129E-18
5.368781E+03	3.442920E-17	7.563550E-18
5.368979E+03	3.420352E-17	7.514068E-18
5.369177E+03	3.397546E-17	7.464064E-18
5.369374E+03	3.375645E-17	7.416048E-18
5.369572E+03	3.354091E-17	7.368792E-18
5.369770E+03	3.332458E-17	7.321360E-18
5.369970E+03	3.309767E-17	7.271608E-18
5.370169E+03	3.287067E-17	7.221832E-18
5.370366E+03	3.264786E-17	7.172975E-18
5.370564E+03	3.243175E-17	7.125589E-18
5.370762E+03	3.221990E-17	7.079140E-18
5.370960E+03	3.200149E-17	7.031248E-18
5.371158E+03	3.178890E-17	6.984633E-18
5.371356E+03	3.157885E-17	6.938574E-18
5.371752E+03	3.135907E-17	6.890475E-18
5.371950E+03	3.115000E-17	6.844630E-18
5.372148E+03	3.093356E-17	6.797165E-18
5.372346E+03	3.072706E-17	6.751883E-18
5.372742E+03	3.051587E-17	6.705666E-18
5.372940E+03	3.031697E-17	6.662052E-18
5.373138E+03	3.011814E-17	6.618452E-18
5.373336E+03	2.991604E-17	6.574133E-18
5.373534E+03	2.971649E-17	6.530376E-18
5.373732E+03	2.951455E-17	6.486092E-18
5.373931E+03	2.931183E-17	6.441634E-18
5.374129E+03	2.911327E-17	6.398089E-18
5.374327E+03	2.890574E-17	6.352573E-18
5.374525E+03	2.870816E-17	6.309243E-18
5.374723E+03	2.851230E-17	6.266291E-18
5.374921E+03	2.831565E-17	6.223161E-18
5.375119E+03	2.811743E-17	6.179688E-18
5.375317E+03	2.791847E-17	6.136050E-18
5.375516E+03	2.772940E-17	6.094585E-18
5.375714E+03	2.753957E-17	6.052952E-18
5.375912E+03	2.734572E-17	6.010435E-18
5.376110E+03	2.714949E-17	5.967395E-18
5.376704E+03	2.694840E-17	5.923462E-18
5.376902E+03	2.676544E-17	5.883334E-18
5.377100E+03	2.657929E-17	5.842507E-18
5.377298E+03	2.639567E-17	5.802232E-18
5.377496E+03	2.621292E-17	5.762149E-18
5.377694E+03	2.603022E-17	5.722075E-18
5.377893E+03	2.584679E-17	5.681840E-18
5.378091E+03	2.567327E-17	5.643781E-18
5.378289E+03	2.549487E-17	5.604650E-18
5.378487E+03	2.531405E-17	5.564987E-18
5.378685E+03	2.513497E-17	5.525704E-18
5.378883E+03	2.495185E-17	5.485533E-18
5.379081E+03	2.477534E-17	5.446814E-18
5.379279E+03	2.460298E-17	5.409004E-18
5.379675E+03	2.442155E-17	5.369288E-18
5.379873E+03	2.425345E-17	5.332414E-18
5.380071E+03	2.408459E-17	5.295372E-18
5.380269E+03	2.391986E-17	5.259237E-18
5.380467E+03	2.374867E-17	5.221682E-18
5.380665E+03	2.358163E-17	5.185037E-18
5.380864E+03	2.341625E-17	5.148758E-18
5.381062E+03	2.325094E-17	5.112493E-18
5.381260E+03	2.307591E-17	5.074090E-18
5.381458E+03	2.290913E-17	5.037498E-18
5.381656E+03	2.274479E-17	5.001442E-18
5.381854E+03	2.257646E-17	4.964509E-18
5.382052E+03	2.242048E-17	4.930292E-18
5.382251E+03	2.226461E-17	4.896096E-18
5.382449E+03	2.211119E-17	4.862438E-18
5.382646E+03	2.195123E-17	4.827341E-18
5.382844E+03	2.179385E-17	4.792812E-18
5.383042E+03	2.163734E-17	4.758473E-18
5.383240E+03	2.149231E-17	4.726657E-18
5.383438E+03	2.134324E-17	4.693952E-18
5.383636E+03	2.119263E-17	4.660907E-18
5.383834E+03	2.104289E-17	4.628053E-18
5.384032E+03	2.088994E-17	4.594490E-18
5.384230E+03	2.074925E-17	4.563625E-18
5.384428E+03	2.060456E-17	4.531881E-18
5.384626E+03	2.045587E-17	4.499252E-18
5.384824E+03	2.031698E-17	4.468782E-18
5.385022E+03	2.018223E-17	4.439217E-18
5.385220E+03	2.004591E-17	4.409309E-18
5.385418E+03	1.991451E-17	4.380484E-18
5.385617E+03	1.977911E-17	4.350775E-18
5.385815E+03	1.963723E-17	4.319642E-18
5.386013E+03	1.950438E-17	4.290493E-18
5.386212E+03	1.936262E-17	4.259385E-18
5.386410E+03	1.923231E-17	4.230792E-18
5.386608E+03	1.909635E-17	4.200957E-18
5.386806E+03	1.896128E-17	4.171317E-18
5.387004E+03	1.882870E-17	4.142224E-18
5.387202E+03	1.869697E-17	4.113318E-18
5.387400E+03	1.856692E-17	4.084779E-18
5.387598E+03	1.844181E-17	4.057326E-18
5.387796E+03	1.831836E-17	4.030240E-18
