#wls	flux	fluxerr
1.584409E+03	1.357444E-16	1.623888E-17
1.624020E+03	1.415504E-16	1.692454E-17
1.663630E+03	1.470601E-16	1.757380E-17
1.703240E+03	1.522178E-16	1.818006E-17
1.742850E+03	1.569164E-16	1.873056E-17
1.782461E+03	1.610303E-16	1.921038E-17
1.822071E+03	1.643559E-16	1.959533E-17
1.861681E+03	1.666847E-16	1.986072E-17
1.901291E+03	1.677771E-16	1.997822E-17
1.940902E+03	1.674231E-16	1.992311E-17
1.980512E+03	1.655156E-16	1.968298E-17
2.020122E+03	1.622607E-16	1.928270E-17
2.059732E+03	1.583033E-16	1.879920E-17
2.099342E+03	1.547172E-16	1.836009E-17
2.138953E+03	1.527070E-16	1.810814E-17
2.178563E+03	1.529892E-16	1.812784E-17
2.218173E+03	1.554102E-16	1.840038E-17
2.257783E+03	1.591094E-16	1.882333E-17
2.297394E+03	1.629791E-16	1.926536E-17
2.337004E+03	1.661573E-16	1.962457E-17
2.376614E+03	1.681044E-16	1.983747E-17
2.416224E+03	1.685787E-16	1.987591E-17
2.455835E+03	1.675627E-16	1.973829E-17
2.495445E+03	1.651338E-16	1.943417E-17
2.535055E+03	1.614139E-16	1.897837E-17
2.574665E+03	1.565701E-16	1.839098E-17
2.614276E+03	1.507455E-16	1.768920E-17
2.653886E+03	1.440987E-16	1.689201E-17
2.693496E+03	1.367685E-16	1.601600E-17
2.733106E+03	1.289101E-16	1.507964E-17
2.772716E+03	1.206611E-16	1.409927E-17
2.812327E+03	1.121685E-16	1.309225E-17
2.851937E+03	1.035779E-16	1.207571E-17
2.891547E+03	9.503195E-17	1.106640E-17
2.931157E+03	8.666694E-17	1.008021E-17
2.970768E+03	7.860630E-17	9.131482E-18
2.980670E+03	7.665076E-17	8.901546E-18
2.990573E+03	7.472306E-17	8.674968E-18
3.000475E+03	7.282255E-17	8.451672E-18
3.010378E+03	7.095334E-17	8.232132E-18
3.020280E+03	6.911462E-17	8.016254E-18
3.030183E+03	6.730722E-17	7.804129E-18
3.040086E+03	6.553265E-17	7.595930E-18
3.049988E+03	6.379680E-17	7.392339E-18
3.059891E+03	6.209972E-17	7.193356E-18
3.069793E+03	6.044316E-17	6.999181E-18
3.079696E+03	5.882513E-17	6.809581E-18
3.089598E+03	5.724623E-17	6.624621E-18
3.099501E+03	5.570590E-17	6.444232E-18
3.109403E+03	5.420367E-17	6.268357E-18
3.119306E+03	5.273916E-17	6.096948E-18
3.129209E+03	5.131299E-17	5.930073E-18
3.139111E+03	4.992386E-17	5.767579E-18
3.149014E+03	4.857239E-17	5.609534E-18
3.158916E+03	4.725826E-17	5.455897E-18
3.168819E+03	4.598116E-17	5.306628E-18
3.178721E+03	4.474156E-17	5.161778E-18
3.188624E+03	4.353755E-17	5.021124E-18
3.198526E+03	4.237109E-17	4.884886E-18
3.208429E+03	4.123959E-17	4.752763E-18
3.218332E+03	4.014478E-17	4.624952E-18
3.228234E+03	3.908487E-17	4.501241E-18
3.238137E+03	3.806011E-17	4.381656E-18
3.248039E+03	3.707000E-17	4.266136E-18
3.257942E+03	3.611350E-17	4.154556E-18
3.267844E+03	3.519122E-17	4.046985E-18
3.277747E+03	3.430155E-17	3.943233E-18
3.287650E+03	3.344398E-17	3.843237E-18
3.297552E+03	3.261896E-17	3.747046E-18
3.307455E+03	3.182492E-17	3.654476E-18
3.317357E+03	3.106129E-17	3.565459E-18
3.327260E+03	3.032753E-17	3.479927E-18
3.337162E+03	2.962346E-17	3.397858E-18
3.347065E+03	2.894763E-17	3.319082E-18
3.356967E+03	2.829948E-17	3.243533E-18
3.366870E+03	2.767882E-17	3.171182E-18
3.376773E+03	2.708465E-17	3.101915E-18
3.386675E+03	2.651641E-17	3.035664E-18
3.396578E+03	2.597284E-17	2.972279E-18
3.406480E+03	2.545373E-17	2.911737E-18
3.416383E+03	2.495851E-17	2.853968E-18
3.426285E+03	2.448604E-17	2.798838E-18
3.436188E+03	2.403583E-17	2.746289E-18
3.446090E+03	2.360708E-17	2.696227E-18
3.455993E+03	2.319962E-17	2.648630E-18
3.465896E+03	2.281214E-17	2.603346E-18
3.475798E+03	2.244451E-17	2.560356E-18
3.485701E+03	2.209578E-17	2.519552E-18
3.495603E+03	2.176533E-17	2.480859E-18
3.505506E+03	2.145258E-17	2.444209E-18
3.515408E+03	2.115672E-17	2.409506E-18
3.525311E+03	2.087743E-17	2.376715E-18
3.535213E+03	2.061380E-17	2.345726E-18
3.545116E+03	2.036533E-17	2.316484E-18
3.555019E+03	2.013182E-17	2.288961E-18
3.564921E+03	1.991262E-17	2.263084E-18
3.574824E+03	1.970733E-17	2.238802E-18
3.584726E+03	1.951536E-17	2.216050E-18
3.594629E+03	1.933619E-17	2.194765E-18
3.604531E+03	1.916947E-17	2.174905E-18
3.614434E+03	1.901451E-17	2.156392E-18
3.624337E+03	1.887122E-17	2.139213E-18
3.634239E+03	1.873895E-17	2.123293E-18
3.644142E+03	1.861743E-17	2.108600E-18
3.654044E+03	1.850661E-17	2.095126E-18
3.663947E+03	1.840588E-17	2.082802E-18
3.673849E+03	1.831502E-17	2.071600E-18
3.683752E+03	1.823412E-17	2.061528E-18
3.693654E+03	1.816278E-17	2.052543E-18
3.703557E+03	1.810079E-17	2.044617E-18
3.713460E+03	1.804825E-17	2.037760E-18
3.723362E+03	1.800476E-17	2.031926E-18
3.733265E+03	1.797026E-17	2.027108E-18
3.743167E+03	1.794484E-17	2.023313E-18
3.753070E+03	1.792829E-17	2.020516E-18
3.762972E+03	1.792051E-17	2.018706E-18
3.772875E+03	1.792144E-17	2.017873E-18
3.782777E+03	1.793102E-17	2.018009E-18
3.792680E+03	1.794930E-17	2.019120E-18
3.802583E+03	1.797605E-17	2.021179E-18
3.812485E+03	1.801134E-17	2.024190E-18
3.822388E+03	1.805528E-17	2.028164E-18
3.832290E+03	1.810756E-17	2.033069E-18
3.842193E+03	1.816814E-17	2.038894E-18
3.852095E+03	1.823723E-17	2.045663E-18
3.861998E+03	1.831471E-17	2.053363E-18
3.871900E+03	1.840034E-17	2.061964E-18
3.881803E+03	1.849433E-17	2.071487E-18
3.891706E+03	1.859671E-17	2.081937E-18
3.901608E+03	1.870708E-17	2.093265E-18
3.911511E+03	1.882560E-17	2.105489E-18
3.921413E+03	1.895232E-17	2.118613E-18
3.931316E+03	1.908710E-17	2.132619E-18
3.941218E+03	1.922966E-17	2.147476E-18
3.951121E+03	1.938030E-17	2.163215E-18
3.961024E+03	1.953873E-17	2.179802E-18
3.970926E+03	1.970479E-17	2.197219E-18
3.980829E+03	1.987861E-17	2.215478E-18
3.990731E+03	2.005989E-17	2.234544E-18
4.000634E+03	2.024874E-17	2.254429E-18
4.010536E+03	2.044464E-17	2.275072E-18
4.020439E+03	2.064789E-17	2.296507E-18
4.030341E+03	2.085812E-17	2.318691E-18
4.040244E+03	2.107510E-17	2.341596E-18
4.050147E+03	2.129893E-17	2.365233E-18
4.060049E+03	2.152904E-17	2.389537E-18
4.069952E+03	2.176569E-17	2.414536E-18
4.079854E+03	2.200828E-17	2.440162E-18
4.089757E+03	2.225670E-17	2.466401E-18
4.099659E+03	2.251084E-17	2.493241E-18
4.109562E+03	2.277023E-17	2.520628E-18
4.119464E+03	2.303472E-17	2.548545E-18
4.129367E+03	2.330401E-17	2.576956E-18
4.139270E+03	2.357756E-17	2.605803E-18
4.149172E+03	2.385538E-17	2.635083E-18
4.159075E+03	2.413672E-17	2.664716E-18
4.168977E+03	2.442157E-17	2.694696E-18
4.178880E+03	2.470911E-17	2.724937E-18
4.188782E+03	2.499911E-17	2.755408E-18
4.198685E+03	2.529112E-17	2.786062E-18
4.208587E+03	2.558425E-17	2.816800E-18
4.218490E+03	2.587841E-17	2.847610E-18
4.228393E+03	2.617287E-17	2.878414E-18
4.238295E+03	2.646686E-17	2.909125E-18
4.248198E+03	2.675962E-17	2.939661E-18
4.258100E+03	2.705076E-17	2.969978E-18
4.268003E+03	2.733966E-17	3.000010E-18
4.277905E+03	2.762505E-17	3.029616E-18
4.287808E+03	2.790671E-17	3.058774E-18
4.297711E+03	2.818334E-17	3.087341E-18
4.307613E+03	2.845470E-17	3.115292E-18
4.317516E+03	2.871970E-17	3.142510E-18
4.327418E+03	2.897793E-17	3.168948E-18
4.337321E+03	2.922901E-17	3.194569E-18
4.347223E+03	2.947267E-17	3.219343E-18
4.357126E+03	2.970879E-17	3.243259E-18
4.367028E+03	2.993773E-17	3.266357E-18
4.376931E+03	3.015992E-17	3.288687E-18
4.386834E+03	3.037564E-17	3.310278E-18
4.396736E+03	3.058545E-17	3.331193E-18
4.406639E+03	3.078941E-17	3.351442E-18
4.416541E+03	3.098845E-17	3.371124E-18
4.426444E+03	3.118268E-17	3.390253E-18
4.436346E+03	3.137254E-17	3.408878E-18
4.446249E+03	3.155845E-17	3.427047E-18
4.456151E+03	3.174088E-17	3.444808E-18
4.466054E+03	3.192024E-17	3.462209E-18
4.475957E+03	3.209701E-17	3.479301E-18
4.485859E+03	3.227109E-17	3.496075E-18
4.495762E+03	3.244350E-17	3.512640E-18
4.505664E+03	3.261410E-17	3.528982E-18
4.515567E+03	3.278336E-17	3.545153E-18
4.525469E+03	3.295142E-17	3.561166E-18
4.535372E+03	3.311899E-17	3.577100E-18
4.545274E+03	3.328624E-17	3.592972E-18
4.555177E+03	3.345297E-17	3.608762E-18
4.565080E+03	3.362020E-17	3.624578E-18
4.574982E+03	3.378774E-17	3.640401E-18
4.584885E+03	3.395570E-17	3.656242E-18
4.594787E+03	3.412476E-17	3.672174E-18
4.604690E+03	3.429533E-17	3.688240E-18
4.614592E+03	3.446685E-17	3.704381E-18
4.624495E+03	3.464037E-17	3.720708E-18
4.634398E+03	3.481593E-17	3.737225E-18
4.644300E+03	3.499360E-17	3.753941E-18
4.654203E+03	3.517378E-17	3.770896E-18
4.664105E+03	3.535653E-17	3.788097E-18
4.674008E+03	3.554225E-17	3.805586E-18
4.683910E+03	3.573033E-17	3.823297E-18
4.693813E+03	3.592116E-17	3.841271E-18
4.703715E+03	3.611513E-17	3.859549E-18
4.713618E+03	3.631129E-17	3.878028E-18
4.723521E+03	3.651033E-17	3.896783E-18
4.733423E+03	3.671197E-17	3.915782E-18
4.743326E+03	3.691586E-17	3.934988E-18
4.753228E+03	3.712271E-17	3.954476E-18
4.763131E+03	3.733149E-17	3.974136E-18
4.773033E+03	3.754327E-17	3.994078E-18
4.782936E+03	3.775692E-17	4.014186E-18
4.792838E+03	3.797316E-17	4.034533E-18
4.802741E+03	3.819122E-17	4.055038E-18
4.812644E+03	3.841178E-17	4.075771E-18
4.822546E+03	3.863403E-17	4.096648E-18
4.832449E+03	3.885828E-17	4.117700E-18
4.842351E+03	3.908446E-17	4.138919E-18
4.852254E+03	3.931208E-17	4.160252E-18
4.862156E+03	3.954102E-17	4.181687E-18
4.872059E+03	3.977117E-17	4.203212E-18
4.881961E+03	4.000277E-17	4.224853E-18
4.891864E+03	4.023491E-17	4.246510E-18
4.901767E+03	4.046820E-17	4.268251E-18
4.911669E+03	4.070167E-17	4.289972E-18
4.921572E+03	4.093551E-17	4.311693E-18
4.931474E+03	4.116911E-17	4.333349E-18
4.941377E+03	4.140223E-17	4.354916E-18
4.951279E+03	4.163457E-17	4.376362E-18
4.961182E+03	4.186628E-17	4.397702E-18
4.971085E+03	4.209621E-17	4.418817E-18
4.980987E+03	4.232443E-17	4.439713E-18
4.990890E+03	4.255013E-17	4.460307E-18
5.000792E+03	4.277335E-17	4.480602E-18
5.010695E+03	4.299321E-17	4.500508E-18
5.020597E+03	4.320881E-17	4.519932E-18
5.030500E+03	4.342011E-17	4.538868E-18
5.040402E+03	4.362654E-17	4.557260E-18
5.050305E+03	4.382715E-17	4.575009E-18
5.060208E+03	4.402090E-17	4.592007E-18
5.070110E+03	4.420803E-17	4.608283E-18
5.080013E+03	4.438707E-17	4.623683E-18
5.089915E+03	4.455733E-17	4.638137E-18
5.099818E+03	4.471816E-17	4.651580E-18
5.109720E+03	4.486883E-17	4.663939E-18
5.119623E+03	4.500823E-17	4.675100E-18
5.129525E+03	4.513606E-17	4.685035E-18
5.139428E+03	4.525071E-17	4.693580E-18
5.149331E+03	4.535190E-17	4.700707E-18
5.159233E+03	4.543802E-17	4.706255E-18
5.169136E+03	4.550924E-17	4.710243E-18
5.179038E+03	4.556393E-17	4.712508E-18
5.188941E+03	4.560189E-17	4.713030E-18
5.198843E+03	4.562152E-17	4.711650E-18
5.208746E+03	4.562264E-17	4.708353E-18
5.218648E+03	4.560464E-17	4.703081E-18
5.228551E+03	4.556608E-17	4.695689E-18
5.238454E+03	4.550646E-17	4.686131E-18
5.248356E+03	4.542580E-17	4.674413E-18
5.258259E+03	4.532330E-17	4.660459E-18
5.268161E+03	4.519826E-17	4.644201E-18
5.278064E+03	4.505054E-17	4.625630E-18
5.287966E+03	4.488007E-17	4.604746E-18
5.297869E+03	4.468697E-17	4.581565E-18
5.307772E+03	4.447098E-17	4.556065E-18
5.317674E+03	4.423294E-17	4.528338E-18
5.327577E+03	4.397288E-17	4.498393E-18
5.337479E+03	4.369191E-17	4.466348E-18
5.347382E+03	4.339042E-17	4.432248E-18
5.357284E+03	4.307021E-17	4.396282E-18
5.367187E+03	4.273283E-17	4.358612E-18
5.377089E+03	4.237906E-17	4.319321E-18
5.386992E+03	4.201156E-17	4.278684E-18
5.396895E+03	4.163176E-17	4.236851E-18
5.406797E+03	4.123960E-17	4.193818E-18
5.416700E+03	4.083802E-17	4.149887E-18
5.426602E+03	4.042796E-17	4.105156E-18
5.436505E+03	4.001047E-17	4.059733E-18
5.446407E+03	3.958723E-17	4.013791E-18
5.456310E+03	3.915991E-17	3.967498E-18
5.466212E+03	3.873027E-17	3.921036E-18
5.476115E+03	3.830081E-17	3.874658E-18
5.486018E+03	3.787324E-17	3.828535E-18
5.495920E+03	3.745029E-17	3.782944E-18
5.505823E+03	3.703421E-17	3.738111E-18
5.515725E+03	3.662672E-17	3.694207E-18
5.525628E+03	3.623020E-17	3.651470E-18
5.535530E+03	3.584639E-17	3.610074E-18
5.545433E+03	3.547697E-17	3.570184E-18
5.555335E+03	3.512370E-17	3.531975E-18
5.565238E+03	3.478788E-17	3.495571E-18
5.575141E+03	3.447058E-17	3.461080E-18
5.585043E+03	3.417303E-17	3.428618E-18
5.594946E+03	3.389600E-17	3.398258E-18
5.604848E+03	3.364034E-17	3.370082E-18
5.614751E+03	3.340645E-17	3.344123E-18
5.624653E+03	3.319457E-17	3.320403E-18
5.634556E+03	3.300515E-17	3.298960E-18
5.644459E+03	3.283816E-17	3.279786E-18
5.654361E+03	3.269346E-17	3.262864E-18
5.664264E+03	3.257116E-17	3.248196E-18
5.674166E+03	3.247096E-17	3.235751E-18
5.684069E+03	3.239285E-17	3.225521E-18
5.693971E+03	3.233603E-17	3.217423E-18
5.703874E+03	3.230079E-17	3.211479E-18
5.713776E+03	3.228629E-17	3.207603E-18
5.723679E+03	3.229207E-17	3.205742E-18
5.733582E+03	3.231836E-17	3.205917E-18
5.743484E+03	3.236398E-17	3.208005E-18
5.753387E+03	3.242919E-17	3.212028E-18
5.763289E+03	3.251357E-17	3.217939E-18
5.773192E+03	3.261670E-17	3.225695E-18
5.783094E+03	3.273786E-17	3.235218E-18
5.792997E+03	3.287740E-17	3.246538E-18
5.802899E+03	3.303459E-17	3.259582E-18
5.812802E+03	3.320948E-17	3.274350E-18
5.822705E+03	3.340176E-17	3.290807E-18
5.832607E+03	3.361076E-17	3.308882E-18
5.842510E+03	3.383655E-17	3.328581E-18
5.852412E+03	3.407921E-17	3.349908E-18
5.862315E+03	3.433772E-17	3.372757E-18
5.872217E+03	3.461214E-17	3.397132E-18
5.882120E+03	3.490220E-17	3.423004E-18
5.892022E+03	3.520798E-17	3.450376E-18
5.901925E+03	3.552840E-17	3.479140E-18
5.911828E+03	3.586393E-17	3.509337E-18
5.921730E+03	3.621342E-17	3.540855E-18
5.931633E+03	3.657696E-17	3.573697E-18
5.941535E+03	3.695418E-17	3.607825E-18
5.951438E+03	3.734430E-17	3.643160E-18
5.961340E+03	3.774735E-17	3.679704E-18
5.971243E+03	3.816206E-17	3.717328E-18
5.981146E+03	3.858888E-17	3.756076E-18
5.991048E+03	3.902605E-17	3.795773E-18
6.000951E+03	3.947400E-17	3.836460E-18
6.010853E+03	3.993129E-17	3.877995E-18
6.020756E+03	4.039791E-17	3.920375E-18
6.030658E+03	4.087233E-17	3.963450E-18
6.040561E+03	4.135398E-17	4.007163E-18
6.050463E+03	4.184172E-17	4.051404E-18
6.060366E+03	4.233484E-17	4.096104E-18
6.070269E+03	4.283164E-17	4.141095E-18
6.080171E+03	4.333073E-17	4.186245E-18
6.090074E+03	4.383127E-17	4.231473E-18
6.099976E+03	4.433178E-17	4.276635E-18
6.109879E+03	4.482961E-17	4.321477E-18
6.119781E+03	4.532363E-17	4.365892E-18
6.129684E+03	4.581210E-17	4.409714E-18
6.139586E+03	4.629404E-17	4.452848E-18
6.149489E+03	4.676929E-17	4.495283E-18
6.159392E+03	4.723780E-17	4.537017E-18
6.169294E+03	4.770014E-17	4.578105E-18
6.179197E+03	4.815817E-17	4.618728E-18
6.189099E+03	4.861201E-17	4.658900E-18
6.199002E+03	4.906112E-17	4.698570E-18
6.208904E+03	4.950762E-17	4.737942E-18
6.218807E+03	4.995173E-17	4.777039E-18
6.228709E+03	5.039242E-17	4.815763E-18
6.238612E+03	5.083195E-17	4.854333E-18
6.248515E+03	5.126867E-17	4.892589E-18
6.258417E+03	5.170432E-17	4.930700E-18
6.268320E+03	5.213795E-17	4.968575E-18
6.278222E+03	5.256997E-17	5.006255E-18
6.288125E+03	5.300018E-17	5.043719E-18
6.298027E+03	5.342834E-17	5.080948E-18
6.307930E+03	5.385427E-17	5.117924E-18
6.317833E+03	5.427698E-17	5.154555E-18
6.327735E+03	5.469551E-17	5.190749E-18
6.337638E+03	5.511041E-17	5.226561E-18
6.347540E+03	5.551990E-17	5.261823E-18
6.357443E+03	5.592456E-17	5.296592E-18
6.367345E+03	5.632338E-17	5.330773E-18
6.377248E+03	5.671617E-17	5.364349E-18
6.387150E+03	5.710357E-17	5.397383E-18
6.397053E+03	5.748714E-17	5.430024E-18
6.406956E+03	5.786683E-17	5.462266E-18
6.416858E+03	5.824346E-17	5.494192E-18
6.426761E+03	5.861791E-17	5.525882E-18
6.436663E+03	5.898932E-17	5.557258E-18
6.446566E+03	5.935954E-17	5.588494E-18
6.456468E+03	5.972865E-17	5.619599E-18
6.466371E+03	6.009584E-17	5.650497E-18
6.476273E+03	6.046304E-17	5.681371E-18
6.486176E+03	6.082944E-17	5.712145E-18
6.496079E+03	6.119418E-17	5.742739E-18
6.505981E+03	6.155928E-17	5.773342E-18
6.515884E+03	6.192387E-17	5.803875E-18
6.525786E+03	6.228804E-17	5.834347E-18
6.535689E+03	6.265290E-17	5.864861E-18
6.545591E+03	6.301646E-17	5.895232E-18
6.555494E+03	6.337875E-17	5.925464E-18
6.565396E+03	6.374187E-17	5.955754E-18
6.575299E+03	6.410375E-17	5.985909E-18
6.585202E+03	6.446433E-17	6.015924E-18
6.595104E+03	6.482466E-17	6.045898E-18
6.605007E+03	6.518358E-17	6.075725E-18
6.614909E+03	6.554099E-17	6.105394E-18
6.624812E+03	6.589787E-17	6.134999E-18
6.634714E+03	6.625186E-17	6.164321E-18
6.644617E+03	6.660275E-17	6.193342E-18
6.654520E+03	6.695262E-17	6.222255E-18
6.664422E+03	6.729895E-17	6.250829E-18
6.674325E+03	6.764147E-17	6.279039E-18
6.684227E+03	6.798111E-17	6.306973E-18
6.694130E+03	6.831636E-17	6.334492E-18
6.704032E+03	6.864692E-17	6.361571E-18
6.713935E+03	6.897244E-17	6.388179E-18
6.723837E+03	6.929260E-17	6.414286E-18
6.733740E+03	6.960578E-17	6.439746E-18
6.743643E+03	6.991287E-17	6.464641E-18
6.753545E+03	7.021347E-17	6.488939E-18
6.763448E+03	7.050595E-17	6.512489E-18
6.773350E+03	7.079121E-17	6.535378E-18
6.783253E+03	7.106758E-17	6.557451E-18
6.793155E+03	7.133467E-17	6.578678E-18
6.803058E+03	7.159210E-17	6.599024E-18
6.812960E+03	7.183819E-17	6.618336E-18
6.822863E+03	7.207523E-17	6.636829E-18
6.832766E+03	7.230156E-17	6.654352E-18
6.842668E+03	7.251552E-17	6.670755E-18
6.852571E+03	7.271813E-17	6.686134E-18
6.862473E+03	7.290777E-17	6.700344E-18
6.872376E+03	7.308416E-17	6.713359E-18
6.882278E+03	7.324846E-17	6.725291E-18
6.892181E+03	7.339909E-17	6.735997E-18
6.902083E+03	7.353586E-17	6.745463E-18
6.911986E+03	7.365867E-17	6.753680E-18
6.921889E+03	7.376741E-17	6.760642E-18
6.931791E+03	7.386060E-17	6.766216E-18
6.941694E+03	7.394109E-17	6.770667E-18
6.951596E+03	7.400607E-17	6.773740E-18
6.961499E+03	7.405562E-17	6.775444E-18
6.971401E+03	7.409132E-17	6.775927E-18
6.981304E+03	7.411194E-17	6.775077E-18
6.991207E+03	7.411770E-17	6.772920E-18
7.001109E+03	7.410892E-17	6.769486E-18
7.011012E+03	7.408599E-17	6.764812E-18
7.020914E+03	7.405081E-17	6.759076E-18
7.030817E+03	7.400090E-17	6.752052E-18
7.040719E+03	7.393681E-17	6.743793E-18
7.050622E+03	7.386063E-17	6.734491E-18
7.060524E+03	7.377301E-17	6.724209E-18
7.070427E+03	7.367317E-17	6.712877E-18
7.080330E+03	7.356338E-17	6.700702E-18
7.090232E+03	7.344140E-17	6.687484E-18
7.100135E+03	7.331111E-17	6.673576E-18
7.110037E+03	7.317183E-17	6.658919E-18
7.119940E+03	7.302449E-17	6.643598E-18
7.129842E+03	7.286848E-17	6.627559E-18
7.139745E+03	7.270773E-17	6.611161E-18
7.149647E+03	7.254017E-17	6.594216E-18
7.159550E+03	7.236823E-17	6.576945E-18
7.169453E+03	7.219131E-17	6.559297E-18
7.179355E+03	7.201184E-17	6.541492E-18
7.189258E+03	7.182917E-17	6.523472E-18
7.199160E+03	7.164420E-17	6.505319E-18
7.209063E+03	7.145926E-17	6.487245E-18
7.218965E+03	7.127364E-17	6.469187E-18
7.228868E+03	7.108964E-17	6.451353E-18
7.238770E+03	7.090497E-17	6.433537E-18
7.248673E+03	7.072185E-17	6.415940E-18
7.258576E+03	7.054250E-17	6.398764E-18
7.268478E+03	7.036449E-17	6.381789E-18
7.278381E+03	7.018999E-17	6.365212E-18
7.288283E+03	7.001801E-17	6.348945E-18
7.298186E+03	6.985062E-17	6.333174E-18
7.308088E+03	6.968677E-17	6.317805E-18
7.317991E+03	6.952687E-17	6.302876E-18
7.327894E+03	6.937127E-17	6.288419E-18
7.337796E+03	6.921869E-17	6.274318E-18
7.347699E+03	6.906926E-17	6.260587E-18
7.357601E+03	6.892302E-17	6.247228E-18
7.367504E+03	6.877979E-17	6.234226E-18
7.377406E+03	6.864082E-17	6.221694E-18
7.387309E+03	6.850405E-17	6.209448E-18
7.397211E+03	6.837188E-17	6.197704E-18
7.407114E+03	6.824336E-17	6.186378E-18
7.417017E+03	6.811745E-17	6.175375E-18
7.426919E+03	6.799290E-17	6.164583E-18
7.436822E+03	6.786840E-17	6.153880E-18
7.446724E+03	6.774695E-17	6.143538E-18
7.456627E+03	6.762706E-17	6.133420E-18
7.466529E+03	6.751193E-17	6.123816E-18
7.476432E+03	6.740301E-17	6.114854E-18
7.486334E+03	6.730311E-17	6.106790E-18
7.496237E+03	6.721015E-17	6.099433E-18
7.506140E+03	6.712645E-17	6.092992E-18
7.516042E+03	6.705261E-17	6.087521E-18
7.525945E+03	6.699055E-17	6.083194E-18
7.535847E+03	6.693729E-17	6.079741E-18
7.545750E+03	6.689604E-17	6.077450E-18
7.555652E+03	6.686510E-17	6.076169E-18
7.565555E+03	6.684267E-17	6.075732E-18
7.575457E+03	6.683165E-17	6.076402E-18
7.585360E+03	6.683004E-17	6.077999E-18
7.595263E+03	6.683742E-17	6.080483E-18
7.605165E+03	6.685332E-17	6.083811E-18
7.615068E+03	6.687722E-17	6.087936E-18
7.624970E+03	6.690856E-17	6.092807E-18
7.634873E+03	6.694842E-17	6.098520E-18
7.644775E+03	6.699292E-17	6.104724E-18
7.654678E+03	6.704477E-17	6.111664E-18
7.664581E+03	6.710170E-17	6.119134E-18
7.674483E+03	6.716307E-17	6.127075E-18
7.684386E+03	6.722828E-17	6.135431E-18
