#wls	flux	fluxerr
1.584409E+03	5.419282E-17	1.966041E-17
1.624020E+03	5.362022E-17	1.938552E-17
1.663630E+03	5.287699E-17	1.904797E-17
1.703240E+03	5.196262E-17	1.864827E-17
1.742850E+03	5.088126E-17	1.818868E-17
1.782461E+03	4.961608E-17	1.766399E-17
1.822071E+03	4.815011E-17	1.706914E-17
1.861681E+03	4.645928E-17	1.639670E-17
1.901291E+03	4.451926E-17	1.563942E-17
1.940902E+03	4.232109E-17	1.479564E-17
1.980512E+03	3.989144E-17	1.387630E-17
2.020122E+03	3.732307E-17	1.291510E-17
2.059732E+03	3.478124E-17	1.197009E-17
2.099342E+03	3.250731E-17	1.112416E-17
2.138953E+03	3.072231E-17	1.045135E-17
2.178563E+03	2.951367E-17	9.978576E-18
2.218173E+03	2.880182E-17	9.675695E-18
2.257783E+03	2.838345E-17	9.471745E-18
2.297394E+03	2.804733E-17	9.294807E-18
2.337004E+03	2.764176E-17	9.094424E-18
2.376614E+03	2.709131E-17	8.846502E-18
2.416224E+03	2.638080E-17	8.547287E-18
2.455835E+03	2.552280E-17	8.202158E-18
2.495445E+03	2.454762E-17	7.822116E-18
2.535055E+03	2.348762E-17	7.418533E-18
2.574665E+03	2.237052E-17	7.001033E-18
2.614276E+03	2.122146E-17	6.578168E-18
2.653886E+03	2.006017E-17	6.156551E-18
2.693496E+03	1.890363E-17	5.741740E-18
2.733106E+03	1.776460E-17	5.337814E-18
2.772716E+03	1.665359E-17	4.948027E-18
2.812327E+03	1.557884E-17	4.574816E-18
2.851937E+03	1.454881E-17	4.220548E-18
2.891547E+03	1.356977E-17	3.886838E-18
2.931157E+03	1.264678E-17	3.574832E-18
2.970768E+03	1.178534E-17	3.285700E-18
2.980670E+03	1.158018E-17	3.217101E-18
2.990573E+03	1.137909E-17	3.149957E-18
3.000475E+03	1.118211E-17	3.084268E-18
3.010378E+03	1.098951E-17	3.020102E-18
3.020280E+03	1.080129E-17	2.957450E-18
3.030183E+03	1.061747E-17	2.896309E-18
3.040086E+03	1.043819E-17	2.836704E-18
3.049988E+03	1.026388E-17	2.778740E-18
3.059891E+03	1.009492E-17	2.722513E-18
3.069793E+03	9.931361E-18	2.668017E-18
3.079696E+03	9.773038E-18	2.615198E-18
3.089598E+03	9.619625E-18	2.563954E-18
3.099501E+03	9.471404E-18	2.514349E-18
3.109403E+03	9.327902E-18	2.466242E-18
3.119306E+03	9.189237E-18	2.419654E-18
3.129209E+03	9.055520E-18	2.374599E-18
3.139111E+03	8.926522E-18	2.331005E-18
3.149014E+03	8.802373E-18	2.288893E-18
3.158916E+03	8.682874E-18	2.248197E-18
3.168819E+03	8.568169E-18	2.208942E-18
3.178721E+03	8.458236E-18	2.171108E-18
3.188624E+03	8.352918E-18	2.134642E-18
3.198526E+03	8.252371E-18	2.099569E-18
3.208429E+03	8.156590E-18	2.065873E-18
3.218332E+03	8.065593E-18	2.033546E-18
3.228234E+03	7.979390E-18	2.002575E-18
3.238137E+03	7.898009E-18	1.972952E-18
3.248039E+03	7.821470E-18	1.944666E-18
3.257942E+03	7.749684E-18	1.917681E-18
3.267844E+03	7.682940E-18	1.892052E-18
3.277747E+03	7.621032E-18	1.867712E-18
3.287650E+03	7.564134E-18	1.844688E-18
3.297552E+03	7.512178E-18	1.822945E-18
3.307455E+03	7.465344E-18	1.802512E-18
3.317357E+03	7.423689E-18	1.783383E-18
3.327260E+03	7.387061E-18	1.765504E-18
3.337162E+03	7.355756E-18	1.748929E-18
3.347065E+03	7.329640E-18	1.733605E-18
3.356967E+03	7.308899E-18	1.719558E-18
3.366870E+03	7.293628E-18	1.706791E-18
3.376773E+03	7.283715E-18	1.695258E-18
3.386675E+03	7.279467E-18	1.685008E-18
3.396578E+03	7.280784E-18	1.675998E-18
3.406480E+03	7.287786E-18	1.668234E-18
3.416383E+03	7.300590E-18	1.661719E-18
3.426285E+03	7.319221E-18	1.656439E-18
3.436188E+03	7.343907E-18	1.652419E-18
3.446090E+03	7.374591E-18	1.649623E-18
3.455993E+03	7.411411E-18	1.648059E-18
3.465896E+03	7.454425E-18	1.647713E-18
3.475798E+03	7.503870E-18	1.648612E-18
3.485701E+03	7.559714E-18	1.650722E-18
3.495603E+03	7.622024E-18	1.654031E-18
3.505506E+03	7.691053E-18	1.658567E-18
3.515408E+03	7.766682E-18	1.664273E-18
3.525311E+03	7.849079E-18	1.671159E-18
3.535213E+03	7.938404E-18	1.679229E-18
3.545116E+03	8.034630E-18	1.688445E-18
3.555019E+03	8.137921E-18	1.698813E-18
3.564921E+03	8.248239E-18	1.710292E-18
3.574824E+03	8.365639E-18	1.722862E-18
3.584726E+03	8.490261E-18	1.736520E-18
3.594629E+03	8.621950E-18	1.751201E-18
3.604531E+03	8.760912E-18	1.766914E-18
3.614434E+03	8.907057E-18	1.783608E-18
3.624337E+03	9.060379E-18	1.801246E-18
3.634239E+03	9.220750E-18	1.819771E-18
3.644142E+03	9.388204E-18	1.839155E-18
3.654044E+03	9.562669E-18	1.859350E-18
3.663947E+03	9.743945E-18	1.880283E-18
3.673849E+03	9.931990E-18	1.901914E-18
3.683752E+03	1.012665E-17	1.924180E-18
3.693654E+03	1.032764E-17	1.946992E-18
3.703557E+03	1.053502E-17	1.970333E-18
3.713460E+03	1.074836E-17	1.994088E-18
3.723362E+03	1.096746E-17	2.018192E-18
3.733265E+03	1.119222E-17	2.042597E-18
3.743167E+03	1.142210E-17	2.067172E-18
3.753070E+03	1.165703E-17	2.091882E-18
3.762972E+03	1.189652E-17	2.116610E-18
3.772875E+03	1.214037E-17	2.141296E-18
3.782777E+03	1.238825E-17	2.165860E-18
3.792680E+03	1.263971E-17	2.190199E-18
3.802583E+03	1.289440E-17	2.214234E-18
3.812485E+03	1.315207E-17	2.237905E-18
3.822388E+03	1.341225E-17	2.261112E-18
3.832290E+03	1.367471E-17	2.283802E-18
3.842193E+03	1.393897E-17	2.305883E-18
3.852095E+03	1.420484E-17	2.327309E-18
3.861998E+03	1.447200E-17	2.348019E-18
3.871900E+03	1.474017E-17	2.367958E-18
3.881803E+03	1.500923E-17	2.387099E-18
3.891706E+03	1.527885E-17	2.405382E-18
3.901608E+03	1.554899E-17	2.422795E-18
3.911511E+03	1.581967E-17	2.439338E-18
3.921413E+03	1.609057E-17	2.454953E-18
3.931316E+03	1.636208E-17	2.469699E-18
3.941218E+03	1.663415E-17	2.483561E-18
3.951121E+03	1.690690E-17	2.496552E-18
3.961024E+03	1.718066E-17	2.508715E-18
3.970926E+03	1.745556E-17	2.520063E-18
3.980829E+03	1.773225E-17	2.530679E-18
3.990731E+03	1.801113E-17	2.540613E-18
4.000634E+03	1.829271E-17	2.549919E-18
4.010536E+03	1.857740E-17	2.558642E-18
4.020439E+03	1.886615E-17	2.566895E-18
4.030341E+03	1.915970E-17	2.574754E-18
4.040244E+03	1.945886E-17	2.582304E-18
4.050147E+03	1.976452E-17	2.589633E-18
4.060049E+03	2.007765E-17	2.596834E-18
4.069952E+03	2.039951E-17	2.604028E-18
4.079854E+03	2.073107E-17	2.611296E-18
4.089757E+03	2.107378E-17	2.618768E-18
4.099659E+03	2.142902E-17	2.626558E-18
4.109562E+03	2.179827E-17	2.634784E-18
4.119464E+03	2.218314E-17	2.643566E-18
4.129367E+03	2.258537E-17	2.653033E-18
4.139270E+03	2.300704E-17	2.663338E-18
4.149172E+03	2.344980E-17	2.674572E-18
4.159075E+03	2.391602E-17	2.686899E-18
4.168977E+03	2.440827E-17	2.700486E-18
4.178880E+03	2.492867E-17	2.715436E-18
4.188782E+03	2.548015E-17	2.731924E-18
4.198685E+03	2.606538E-17	2.750078E-18
4.208587E+03	2.668767E-17	2.770077E-18
4.218490E+03	2.735008E-17	2.792051E-18
4.228393E+03	2.805584E-17	2.816128E-18
4.238295E+03	2.880902E-17	2.842498E-18
4.248198E+03	2.961267E-17	2.871228E-18
4.258100E+03	3.047118E-17	2.902490E-18
4.268003E+03	3.138823E-17	2.936367E-18
4.277905E+03	3.236783E-17	2.972946E-18
4.287808E+03	3.341363E-17	3.012260E-18
4.297711E+03	3.452976E-17	3.054361E-18
4.307613E+03	3.571998E-17	3.099249E-18
4.317516E+03	3.698762E-17	3.146862E-18
4.327418E+03	3.833729E-17	3.197235E-18
4.337321E+03	3.977262E-17	3.250292E-18
4.347223E+03	4.129880E-17	3.306068E-18
4.357126E+03	4.292115E-17	3.364584E-18
4.367028E+03	4.464680E-17	3.425971E-18
4.376931E+03	4.648251E-17	3.490299E-18
4.386834E+03	4.843743E-17	3.557782E-18
4.396736E+03	5.051994E-17	3.628534E-18
4.406639E+03	5.273864E-17	3.702647E-18
4.416541E+03	5.510371E-17	3.780288E-18
4.426444E+03	5.762396E-17	3.861488E-18
4.436346E+03	6.030867E-17	3.946281E-18
4.446249E+03	6.316718E-17	4.034679E-18
4.456151E+03	6.620864E-17	4.126655E-18
4.466054E+03	6.944151E-17	4.222130E-18
4.475957E+03	7.287514E-17	4.321067E-18
4.485859E+03	7.651808E-17	4.423383E-18
4.495762E+03	8.037770E-17	4.528937E-18
4.505664E+03	8.446060E-17	4.637569E-18
4.515567E+03	8.877410E-17	4.749199E-18
4.525469E+03	9.332387E-17	4.863703E-18
4.535372E+03	9.811261E-17	4.980875E-18
4.545274E+03	1.031449E-16	5.100692E-18
4.555177E+03	1.084190E-16	5.222927E-18
4.565080E+03	1.139349E-16	5.347563E-18
4.574982E+03	1.196892E-16	5.474583E-18
4.584885E+03	1.256748E-16	5.603972E-18
4.594787E+03	1.318828E-16	5.735833E-18
4.604690E+03	1.382989E-16	5.870246E-18
4.614592E+03	1.449104E-16	6.007598E-18
4.624495E+03	1.516945E-16	6.148104E-18
4.634398E+03	1.586307E-16	6.292318E-18
4.644300E+03	1.656931E-16	6.440825E-18
4.654203E+03	1.728553E-16	6.594428E-18
4.664105E+03	1.800872E-16	6.753980E-18
4.674008E+03	1.873619E-16	6.920635E-18
4.683910E+03	1.946506E-16	7.095590E-18
4.693813E+03	2.019326E-16	7.280395E-18
4.703715E+03	2.091826E-16	7.476434E-18
4.713618E+03	2.163834E-16	7.685231E-18
4.723521E+03	2.235185E-16	7.907737E-18
4.733423E+03	2.305718E-16	8.144571E-18
4.743326E+03	2.375336E-16	8.396326E-18
4.753228E+03	2.443913E-16	8.663235E-18
4.763131E+03	2.511364E-16	8.945418E-18
4.773033E+03	2.577612E-16	9.242776E-18
4.782936E+03	2.642591E-16	9.555030E-18
4.792838E+03	2.706214E-16	9.881607E-18
4.802741E+03	2.768478E-16	1.022207E-17
4.812644E+03	2.829250E-16	1.057532E-17
4.822546E+03	2.888527E-16	1.094065E-17
4.832449E+03	2.946228E-16	1.131691E-17
4.842351E+03	3.002325E-16	1.170310E-17
4.852254E+03	3.056699E-16	1.209775E-17
4.862156E+03	3.109319E-16	1.249973E-17
4.872059E+03	3.160127E-16	1.290772E-17
4.881961E+03	3.209032E-16	1.332028E-17
4.891864E+03	3.256009E-16	1.373618E-17
4.901767E+03	3.300969E-16	1.415393E-17
4.911669E+03	3.343893E-16	1.457236E-17
4.921572E+03	3.384680E-16	1.498993E-17
4.931474E+03	3.423376E-16	1.540575E-17
4.941377E+03	3.459913E-16	1.581841E-17
4.951279E+03	3.494337E-16	1.622702E-17
4.961182E+03	3.526631E-16	1.663044E-17
4.971085E+03	3.556857E-16	1.702793E-17
4.980987E+03	3.585052E-16	1.741867E-17
4.990890E+03	3.611189E-16	1.780158E-17
5.000792E+03	3.635360E-16	1.817621E-17
5.010695E+03	3.657626E-16	1.854199E-17
5.020597E+03	3.678059E-16	1.889848E-17
5.030500E+03	3.696659E-16	1.924490E-17
5.040402E+03	3.713586E-16	1.958137E-17
5.050305E+03	3.728925E-16	1.990765E-17
5.060208E+03	3.742654E-16	2.022302E-17
5.070110E+03	3.754974E-16	2.052796E-17
5.080013E+03	3.765899E-16	2.082203E-17
5.089915E+03	3.775516E-16	2.110520E-17
5.099818E+03	3.783906E-16	2.137748E-17
5.109720E+03	3.791107E-16	2.163867E-17
5.119623E+03	3.797225E-16	2.188898E-17
5.129525E+03	3.802280E-16	2.212819E-17
5.139428E+03	3.806322E-16	2.235627E-17
5.149331E+03	3.809385E-16	2.257313E-17
5.159233E+03	3.811421E-16	2.277820E-17
5.169136E+03	3.812517E-16	2.297176E-17
5.179038E+03	3.812636E-16	2.315336E-17
5.188941E+03	3.811728E-16	2.332247E-17
5.198843E+03	3.809769E-16	2.347874E-17
5.208746E+03	3.806723E-16	2.362178E-17
5.218648E+03	3.802512E-16	2.375091E-17
5.228551E+03	3.797118E-16	2.386586E-17
5.238454E+03	3.790407E-16	2.396563E-17
5.248356E+03	3.782359E-16	2.404994E-17
5.258259E+03	3.772829E-16	2.411775E-17
5.268161E+03	3.761795E-16	2.416878E-17
5.278064E+03	3.749159E-16	2.420230E-17
5.287966E+03	3.734868E-16	2.421787E-17
5.297869E+03	3.718875E-16	2.421511E-17
5.307772E+03	3.701074E-16	2.419327E-17
5.317674E+03	3.681486E-16	2.415243E-17
5.327577E+03	3.660069E-16	2.409231E-17
5.337479E+03	3.636842E-16	2.401302E-17
5.347382E+03	3.611771E-16	2.391436E-17
5.357284E+03	3.584987E-16	2.379725E-17
5.367187E+03	3.556468E-16	2.366159E-17
5.377089E+03	3.526320E-16	2.350820E-17
5.386992E+03	3.494675E-16	2.333807E-17
5.396895E+03	3.461517E-16	2.315120E-17
5.406797E+03	3.426853E-16	2.294783E-17
5.416700E+03	3.390725E-16	2.272838E-17
5.426602E+03	3.353501E-16	2.249548E-17
5.436505E+03	3.315528E-16	2.225163E-17
5.446407E+03	3.277103E-16	2.199900E-17
5.456310E+03	3.238532E-16	2.173983E-17
5.466212E+03	3.200127E-16	2.147639E-17
5.476115E+03	3.162143E-16	2.121060E-17
5.486018E+03	3.124952E-16	2.094513E-17
5.495920E+03	3.088795E-16	2.068180E-17
5.505823E+03	3.053934E-16	2.042250E-17
5.515725E+03	3.020674E-16	2.016944E-17
5.525628E+03	2.989210E-16	1.992405E-17
5.535530E+03	2.959776E-16	1.968801E-17
5.545433E+03	2.932584E-16	1.946279E-17
5.555335E+03	2.907785E-16	1.924947E-17
5.565238E+03	2.885539E-16	1.904913E-17
5.575141E+03	2.865941E-16	1.886240E-17
5.585043E+03	2.849061E-16	1.868971E-17
5.594946E+03	2.834971E-16	1.853148E-17
5.604848E+03	2.823647E-16	1.838748E-17
5.614751E+03	2.815161E-16	1.825806E-17
5.624653E+03	2.809406E-16	1.814243E-17
5.634556E+03	2.806373E-16	1.804037E-17
5.644459E+03	2.805962E-16	1.795109E-17
5.654361E+03	2.808029E-16	1.787350E-17
5.664264E+03	2.812493E-16	1.780694E-17
5.674166E+03	2.819174E-16	1.775008E-17
5.684069E+03	2.827935E-16	1.770191E-17
5.693971E+03	2.838601E-16	1.766118E-17
5.703874E+03	2.851022E-16	1.762681E-17
5.713776E+03	2.864983E-16	1.759736E-17
5.723679E+03	2.880366E-16	1.757199E-17
5.733582E+03	2.896930E-16	1.754917E-17
5.743484E+03	2.914533E-16	1.752798E-17
5.753387E+03	2.933048E-16	1.750763E-17
5.763289E+03	2.952327E-16	1.748725E-17
5.773192E+03	2.972200E-16	1.746588E-17
5.783094E+03	2.992578E-16	1.744308E-17
5.792997E+03	3.013388E-16	1.741850E-17
5.802899E+03	3.034473E-16	1.739140E-17
5.812802E+03	3.055787E-16	1.736169E-17
5.822705E+03	3.077300E-16	1.732941E-17
5.832607E+03	3.098890E-16	1.729411E-17
5.842510E+03	3.120585E-16	1.725624E-17
5.852412E+03	3.142352E-16	1.721593E-17
5.862315E+03	3.164097E-16	1.717300E-17
5.872217E+03	3.185832E-16	1.712793E-17
5.882120E+03	3.207578E-16	1.708125E-17
5.892022E+03	3.229247E-16	1.703296E-17
5.901925E+03	3.250864E-16	1.698369E-17
5.911828E+03	3.272411E-16	1.693390E-17
5.921730E+03	3.293836E-16	1.688391E-17
5.931633E+03	3.315118E-16	1.683426E-17
5.941535E+03	3.336229E-16	1.678549E-17
5.951438E+03	3.357100E-16	1.673798E-17
5.961340E+03	3.377733E-16	1.669252E-17
5.971243E+03	3.398040E-16	1.664950E-17
5.981146E+03	3.417968E-16	1.660953E-17
5.991048E+03	3.437372E-16	1.657281E-17
6.000951E+03	3.456255E-16	1.654033E-17
6.010853E+03	3.474406E-16	1.651206E-17
6.020756E+03	3.491806E-16	1.648894E-17
6.030658E+03	3.508217E-16	1.647087E-17
6.040561E+03	3.523588E-16	1.645869E-17
6.050463E+03	3.537647E-16	1.645217E-17
6.060366E+03	3.550272E-16	1.645180E-17
6.070269E+03	3.561284E-16	1.645776E-17
6.080171E+03	3.570448E-16	1.646993E-17
6.090074E+03	3.577519E-16	1.648808E-17
6.099976E+03	3.582343E-16	1.651232E-17
6.109879E+03	3.584738E-16	1.654252E-17
6.119781E+03	3.584563E-16	1.657861E-17
6.129684E+03	3.581731E-16	1.662042E-17
6.139586E+03	3.576324E-16	1.666789E-17
6.149489E+03	3.568449E-16	1.672082E-17
6.159392E+03	3.558147E-16	1.677860E-17
6.169294E+03	3.545682E-16	1.684156E-17
6.179197E+03	3.531210E-16	1.690945E-17
6.189099E+03	3.514933E-16	1.698219E-17
6.199002E+03	3.497147E-16	1.706014E-17
6.208904E+03	3.478041E-16	1.714313E-17
6.218807E+03	3.457842E-16	1.723118E-17
6.228709E+03	3.436709E-16	1.732403E-17
6.238612E+03	3.414795E-16	1.742138E-17
6.248515E+03	3.392367E-16	1.752359E-17
6.258417E+03	3.369458E-16	1.762987E-17
6.268320E+03	3.346262E-16	1.774032E-17
6.278222E+03	3.322833E-16	1.785435E-17
6.288125E+03	3.299344E-16	1.797208E-17
6.298027E+03	3.275826E-16	1.809292E-17
6.307930E+03	3.252386E-16	1.821678E-17
6.317833E+03	3.229126E-16	1.834356E-17
6.327735E+03	3.206003E-16	1.847245E-17
6.337638E+03	3.183145E-16	1.860362E-17
6.347540E+03	3.160586E-16	1.873678E-17
6.357443E+03	3.138352E-16	1.887165E-17
6.367345E+03	3.116506E-16	1.900820E-17
6.377248E+03	3.095112E-16	1.914647E-17
6.387150E+03	3.074222E-16	1.928648E-17
6.397053E+03	3.053844E-16	1.942803E-17
6.406956E+03	3.033982E-16	1.957090E-17
6.416858E+03	3.014679E-16	1.971518E-17
6.426761E+03	2.995843E-16	1.986009E-17
6.436663E+03	2.977561E-16	2.000605E-17
6.446566E+03	2.959826E-16	2.015289E-17
6.456468E+03	2.942633E-16	2.030047E-17
6.466371E+03	2.925973E-16	2.044867E-17
6.476273E+03	2.909842E-16	2.059735E-17
6.486176E+03	2.894274E-16	2.074674E-17
6.496079E+03	2.879217E-16	2.089641E-17
6.505981E+03	2.864710E-16	2.104663E-17
6.515884E+03	2.850745E-16	2.119734E-17
6.525786E+03	2.837270E-16	2.134814E-17
6.535689E+03	2.824323E-16	2.149933E-17
6.545591E+03	2.811899E-16	2.165087E-17
6.555494E+03	2.799989E-16	2.180275E-17
6.565396E+03	2.788590E-16	2.195496E-17
6.575299E+03	2.777691E-16	2.210746E-17
6.585202E+03	2.767287E-16	2.226026E-17
6.595104E+03	2.757324E-16	2.241295E-17
6.605007E+03	2.747837E-16	2.256588E-17
6.614909E+03	2.738772E-16	2.271864E-17
6.624812E+03	2.730164E-16	2.287159E-17
6.634714E+03	2.722003E-16	2.302469E-17
6.644617E+03	2.714228E-16	2.317747E-17
6.654520E+03	2.706827E-16	2.332988E-17
6.664422E+03	2.699830E-16	2.348224E-17
6.674325E+03	2.693129E-16	2.363365E-17
6.684227E+03	2.686801E-16	2.378484E-17
6.694130E+03	2.680783E-16	2.393529E-17
6.704032E+03	2.675008E-16	2.408445E-17
6.713935E+03	2.669509E-16	2.423264E-17
6.723837E+03	2.664267E-16	2.437973E-17
6.733740E+03	2.659217E-16	2.452517E-17
6.743643E+03	2.654389E-16	2.466926E-17
6.753545E+03	2.649721E-16	2.481144E-17
6.763448E+03	2.645245E-16	2.495206E-17
6.773350E+03	2.640850E-16	2.509007E-17
6.783253E+03	2.636619E-16	2.522631E-17
6.793155E+03	2.632444E-16	2.535973E-17
6.803058E+03	2.628410E-16	2.549119E-17
6.812960E+03	2.624413E-16	2.561969E-17
6.822863E+03	2.620491E-16	2.574562E-17
6.832766E+03	2.616588E-16	2.586845E-17
6.842668E+03	2.612748E-16	2.598862E-17
6.852571E+03	2.608917E-16	2.610562E-17
6.862473E+03	2.605141E-16	2.621992E-17
6.872376E+03	2.601319E-16	2.633051E-17
6.882278E+03	2.597547E-16	2.643839E-17
6.892181E+03	2.593774E-16	2.654305E-17
6.902083E+03	2.589949E-16	2.664400E-17
6.911986E+03	2.586172E-16	2.674228E-17
6.921889E+03	2.582346E-16	2.683689E-17
6.931791E+03	2.578518E-16	2.692837E-17
6.941694E+03	2.574641E-16	2.701623E-17
6.951596E+03	2.570768E-16	2.710105E-17
6.961499E+03	2.566850E-16	2.718234E-17
6.971401E+03	2.562942E-16	2.726070E-17
6.981304E+03	2.558943E-16	2.733510E-17
6.991207E+03	2.554962E-16	2.740672E-17
7.001109E+03	2.550899E-16	2.747452E-17
7.011012E+03	2.546863E-16	2.753970E-17
7.020914E+03	2.542759E-16	2.760125E-17
7.030817E+03	2.538643E-16	2.765984E-17
7.040719E+03	2.534471E-16	2.771501E-17
7.050622E+03	2.530304E-16	2.776746E-17
7.060524E+03	2.526149E-16	2.781730E-17
7.070427E+03	2.521913E-16	2.786355E-17
7.080330E+03	2.517707E-16	2.790749E-17
7.090232E+03	2.513542E-16	2.794924E-17
7.100135E+03	2.509323E-16	2.798784E-17
7.110037E+03	2.505110E-16	2.802398E-17
7.119940E+03	2.500914E-16	2.805781E-17
7.129842E+03	2.496688E-16	2.808888E-17
7.139745E+03	2.492543E-16	2.811844E-17
7.149647E+03	2.488379E-16	2.814545E-17
7.159550E+03	2.484200E-16	2.816999E-17
7.169453E+03	2.480059E-16	2.819270E-17
7.179355E+03	2.475849E-16	2.821241E-17
7.189258E+03	2.471672E-16	2.823034E-17
7.199160E+03	2.467467E-16	2.824582E-17
7.209063E+03	2.463225E-16	2.825882E-17
7.218965E+03	2.458881E-16	2.826862E-17
7.228868E+03	2.454421E-16	2.827509E-17
7.238770E+03	2.449875E-16	2.827863E-17
7.248673E+03	2.445173E-16	2.827846E-17
7.258576E+03	2.440237E-16	2.827373E-17
7.268478E+03	2.435042E-16	2.826419E-17
7.278381E+03	2.429560E-16	2.824953E-17
7.288283E+03	2.423758E-16	2.822941E-17
7.298186E+03	2.417558E-16	2.820294E-17
7.308088E+03	2.410874E-16	2.816915E-17
7.317991E+03	2.403674E-16	2.812769E-17
7.327894E+03	2.395823E-16	2.807700E-17
7.337796E+03	2.387391E-16	2.801793E-17
7.347699E+03	2.378194E-16	2.794833E-17
7.357601E+03	2.368203E-16	2.786786E-17
7.367504E+03	2.357446E-16	2.777679E-17
7.377406E+03	2.345950E-16	2.767539E-17
7.387309E+03	2.333643E-16	2.756275E-17
7.397211E+03	2.320614E-16	2.743985E-17
7.407114E+03	2.306852E-16	2.730652E-17
7.417017E+03	2.292454E-16	2.716385E-17
7.426919E+03	2.277373E-16	2.701126E-17
7.436822E+03	2.261722E-16	2.685004E-17
7.446724E+03	2.245524E-16	2.668043E-17
7.456627E+03	2.228811E-16	2.650278E-17
7.466529E+03	2.211673E-16	2.631816E-17
7.476432E+03	2.194106E-16	2.612648E-17
7.486334E+03	2.176261E-16	2.592953E-17
7.496237E+03	2.158137E-16	2.572731E-17
7.506140E+03	2.139789E-16	2.552044E-17
7.516042E+03	2.121313E-16	2.531011E-17
7.525945E+03	2.102762E-16	2.509691E-17
7.535847E+03	2.084181E-16	2.488140E-17
7.545750E+03	2.065564E-16	2.466354E-17
7.555652E+03	2.047050E-16	2.444497E-17
7.565555E+03	2.028578E-16	2.422500E-17
7.575457E+03	2.010277E-16	2.400515E-17
7.585360E+03	1.992078E-16	2.378465E-17
7.595263E+03	1.974100E-16	2.356491E-17
7.605165E+03	1.956271E-16	2.334510E-17
7.615068E+03	1.938695E-16	2.312648E-17
7.624970E+03	1.921341E-16	2.290869E-17
7.634873E+03	1.904216E-16	2.269182E-17
7.644775E+03	1.887281E-16	2.247545E-17
7.654678E+03	1.870626E-16	2.226065E-17
7.664581E+03	1.854206E-16	2.204690E-17
7.674483E+03	1.838019E-16	2.183421E-17
7.684386E+03	1.822019E-16	2.162204E-17
