#wls	flux	fluxerr
1.584409E+03	2.411923E-17	4.043539E-18
1.624020E+03	2.446018E-17	4.075363E-18
1.663630E+03	2.472201E-17	4.093394E-18
1.703240E+03	2.489611E-17	4.096462E-18
1.742850E+03	2.498317E-17	4.084952E-18
1.782461E+03	2.496895E-17	4.054980E-18
1.822071E+03	2.483213E-17	4.005281E-18
1.861681E+03	2.455596E-17	3.933576E-18
1.901291E+03	2.411504E-17	3.836291E-18
1.940902E+03	2.349971E-17	3.710635E-18
1.980512E+03	2.270863E-17	3.558905E-18
2.020122E+03	2.178483E-17	3.388417E-18
2.059732E+03	2.082012E-17	3.213808E-18
2.099342E+03	1.996240E-17	3.056286E-18
2.138953E+03	1.935749E-17	2.939325E-18
2.178563E+03	1.908167E-17	2.873456E-18
2.218173E+03	1.910166E-17	2.852472E-18
2.257783E+03	1.930611E-17	2.857173E-18
2.297394E+03	1.955812E-17	2.868320E-18
2.337004E+03	1.976102E-17	2.871675E-18
2.376614E+03	1.985850E-17	2.859328E-18
2.416224E+03	1.983286E-17	2.827494E-18
2.455835E+03	1.968430E-17	2.778406E-18
2.495445E+03	1.942251E-17	2.713937E-18
2.535055E+03	1.906356E-17	2.636792E-18
2.574665E+03	1.862608E-17	2.548324E-18
2.614276E+03	1.812161E-17	2.452127E-18
2.653886E+03	1.756182E-17	2.350062E-18
2.693496E+03	1.695729E-17	2.243775E-18
2.733106E+03	1.632027E-17	2.133649E-18
2.772716E+03	1.565523E-17	2.021942E-18
2.812327E+03	1.496965E-17	1.909739E-18
2.851937E+03	1.427145E-17	1.798133E-18
2.891547E+03	1.357117E-17	1.687427E-18
2.931157E+03	1.287418E-17	1.579464E-18
2.970768E+03	1.218823E-17	1.475163E-18
2.980670E+03	1.201961E-17	1.449791E-18
2.990573E+03	1.185228E-17	1.424579E-18
3.000475E+03	1.168643E-17	1.399688E-18
3.010378E+03	1.152183E-17	1.375088E-18
3.020280E+03	1.135875E-17	1.350811E-18
3.030183E+03	1.119760E-17	1.326842E-18
3.040086E+03	1.103789E-17	1.303182E-18
3.049988E+03	1.088074E-17	1.279962E-18
3.059891E+03	1.072612E-17	1.257174E-18
3.069793E+03	1.057441E-17	1.234805E-18
3.079696E+03	1.042507E-17	1.212844E-18
3.089598E+03	1.027796E-17	1.191273E-18
3.099501E+03	1.013335E-17	1.170118E-18
3.109403E+03	9.990903E-18	1.149288E-18
3.119306E+03	9.850971E-18	1.128872E-18
3.129209E+03	9.712924E-18	1.108795E-18
3.139111E+03	9.577263E-18	1.089111E-18
3.149014E+03	9.443736E-18	1.069741E-18
3.158916E+03	9.312502E-18	1.050750E-18
3.168819E+03	9.183360E-18	1.032110E-18
3.178721E+03	9.056456E-18	1.013837E-18
3.188624E+03	8.931897E-18	9.958945E-19
3.198526E+03	8.809543E-18	9.783093E-19
3.208429E+03	8.689267E-18	9.610645E-19
3.218332E+03	8.571365E-18	9.441897E-19
3.228234E+03	8.455849E-18	9.276422E-19
3.238137E+03	8.342719E-18	9.114607E-19
3.248039E+03	8.231864E-18	8.956299E-19
3.257942E+03	8.123291E-18	8.801477E-19
3.267844E+03	8.017278E-18	8.650026E-19
3.277747E+03	7.913580E-18	8.502040E-19
3.287650E+03	7.812321E-18	8.357618E-19
3.297552E+03	7.713518E-18	8.216746E-19
3.307455E+03	7.617084E-18	8.078946E-19
3.317357E+03	7.523123E-18	7.944655E-19
3.327260E+03	7.431545E-18	7.813745E-19
3.337162E+03	7.342364E-18	7.686195E-19
3.347065E+03	7.255706E-18	7.561782E-19
3.356967E+03	7.171275E-18	7.440492E-19
3.366870E+03	7.089287E-18	7.322520E-19
3.376773E+03	7.009654E-18	7.207739E-19
3.386675E+03	6.932418E-18	7.095862E-19
3.396578E+03	6.857481E-18	6.987060E-19
3.406480E+03	6.784863E-18	6.881320E-19
3.416383E+03	6.714411E-18	6.778456E-19
3.426285E+03	6.646340E-18	6.678379E-19
3.436188E+03	6.580400E-18	6.581084E-19
3.446090E+03	6.516622E-18	6.486572E-19
3.455993E+03	6.454948E-18	6.394755E-19
3.465896E+03	6.395449E-18	6.305423E-19
3.475798E+03	6.337972E-18	6.218650E-19
3.485701E+03	6.282479E-18	6.134368E-19
3.495603E+03	6.228875E-18	6.052457E-19
3.505506E+03	6.177179E-18	5.972683E-19
3.515408E+03	6.127254E-18	5.895115E-19
3.525311E+03	6.079023E-18	5.819656E-19
3.535213E+03	6.032476E-18	5.746269E-19
3.545116E+03	5.987594E-18	5.674711E-19
3.555019E+03	5.944253E-18	5.605046E-19
3.564921E+03	5.902396E-18	5.537199E-19
3.574824E+03	5.862088E-18	5.471208E-19
3.584726E+03	5.823311E-18	5.406853E-19
3.594629E+03	5.785963E-18	5.344202E-19
3.604531E+03	5.749880E-18	5.283083E-19
3.614434E+03	5.715076E-18	5.223490E-19
3.624337E+03	5.681608E-18	5.165297E-19
3.634239E+03	5.649324E-18	5.108510E-19
3.644142E+03	5.618240E-18	5.053123E-19
3.654044E+03	5.588363E-18	4.999127E-19
3.663947E+03	5.559758E-18	4.946424E-19
3.673849E+03	5.532371E-18	4.895088E-19
3.683752E+03	5.506157E-18	4.845058E-19
3.693654E+03	5.481214E-18	4.796406E-19
3.703557E+03	5.457647E-18	4.749090E-19
3.713460E+03	5.435341E-18	4.703104E-19
3.723362E+03	5.414334E-18	4.658464E-19
3.733265E+03	5.394709E-18	4.615219E-19
3.743167E+03	5.376560E-18	4.573343E-19
3.753070E+03	5.359851E-18	4.532872E-19
3.762972E+03	5.344563E-18	4.493768E-19
3.772875E+03	5.330720E-18	4.456031E-19
3.782777E+03	5.318500E-18	4.419726E-19
3.792680E+03	5.307856E-18	4.384852E-19
3.802583E+03	5.298761E-18	4.351363E-19
3.812485E+03	5.291320E-18	4.319321E-19
3.822388E+03	5.285568E-18	4.288702E-19
3.832290E+03	5.281539E-18	4.259537E-19
3.842193E+03	5.279158E-18	4.231742E-19
3.852095E+03	5.278562E-18	4.205400E-19
3.861998E+03	5.279827E-18	4.180548E-19
3.871900E+03	5.282892E-18	4.157108E-19
3.881803E+03	5.287760E-18	4.135058E-19
3.891706E+03	5.294480E-18	4.114408E-19
3.901608E+03	5.303170E-18	4.095258E-19
3.911511E+03	5.313804E-18	4.077524E-19
3.921413E+03	5.326342E-18	4.061147E-19
3.931316E+03	5.340830E-18	4.046135E-19
3.941218E+03	5.357389E-18	4.032625E-19
3.951121E+03	5.375990E-18	4.020489E-19
3.961024E+03	5.396634E-18	4.009701E-19
3.970926E+03	5.419325E-18	4.000232E-19
3.980829E+03	5.444188E-18	3.992267E-19
3.990731E+03	5.471192E-18	3.985629E-19
4.000634E+03	5.500296E-18	3.980261E-19
4.010536E+03	5.531593E-18	3.976197E-19
4.020439E+03	5.565173E-18	3.973645E-19
4.030341E+03	5.600960E-18	3.972345E-19
4.040244E+03	5.639006E-18	3.972304E-19
4.050147E+03	5.679319E-18	3.973494E-19
4.060049E+03	5.722044E-18	3.976221E-19
4.069952E+03	5.767060E-18	3.980132E-19
4.079854E+03	5.814467E-18	3.985267E-19
4.089757E+03	5.864234E-18	3.991567E-19
4.099659E+03	5.916559E-18	3.999445E-19
4.109562E+03	5.971271E-18	4.008444E-19
4.119464E+03	6.028428E-18	4.018572E-19
4.129367E+03	6.088093E-18	4.029835E-19
4.139270E+03	6.150381E-18	4.042671E-19
4.149172E+03	6.215208E-18	4.056601E-19
4.159075E+03	6.282541E-18	4.071567E-19
4.168977E+03	6.352445E-18	4.087577E-19
4.178880E+03	6.425035E-18	4.105171E-19
4.188782E+03	6.500230E-18	4.123771E-19
4.198685E+03	6.577989E-18	4.143316E-19
4.208587E+03	6.658315E-18	4.163775E-19
4.218490E+03	6.741344E-18	4.185822E-19
4.228393E+03	6.826970E-18	4.208745E-19
4.238295E+03	6.915144E-18	4.232482E-19
4.248198E+03	7.005865E-18	4.256998E-19
4.258100E+03	7.099271E-18	4.283115E-19
4.268003E+03	7.195110E-18	4.309897E-19
4.277905E+03	7.293377E-18	4.337309E-19
4.287808E+03	7.394056E-18	4.365310E-19
4.297711E+03	7.497271E-18	4.394891E-19
4.307613E+03	7.602800E-18	4.424970E-19
4.317516E+03	7.710554E-18	4.455465E-19
4.327418E+03	7.820559E-18	4.486364E-19
4.337321E+03	7.932984E-18	4.518893E-19
4.347223E+03	8.047765E-18	4.551862E-19
4.357126E+03	8.164856E-18	4.585217E-19
4.367028E+03	8.284283E-18	4.618946E-19
4.376931E+03	8.406247E-18	4.654533E-19
4.386834E+03	8.530641E-18	4.690529E-19
4.396736E+03	8.657372E-18	4.726857E-19
4.406639E+03	8.786408E-18	4.763471E-19
4.416541E+03	8.918026E-18	4.802181E-19
4.426444E+03	9.051969E-18	4.841184E-19
4.436346E+03	9.188188E-18	4.880431E-19
4.446249E+03	9.326582E-18	4.919843E-19
4.456151E+03	9.467426E-18	4.961551E-19
4.466054E+03	9.610360E-18	5.003392E-19
4.475957E+03	9.755315E-18	5.045309E-19
4.485859E+03	9.902238E-18	5.087256E-19
4.495762E+03	1.005108E-17	5.131558E-19
4.505664E+03	1.020169E-17	5.175815E-19
4.515567E+03	1.035388E-17	5.219925E-19
4.525469E+03	1.050758E-17	5.263831E-19
4.535372E+03	1.066260E-17	5.310190E-19
4.545274E+03	1.081886E-17	5.356265E-19
4.555177E+03	1.097608E-17	5.401911E-19
4.565080E+03	1.113424E-17	5.447114E-19
4.574982E+03	1.129298E-17	5.494875E-19
4.584885E+03	1.145224E-17	5.542066E-19
4.594787E+03	1.161181E-17	5.588574E-19
4.604690E+03	1.177165E-17	5.634382E-19
4.614592E+03	1.193120E-17	5.682875E-19
4.624495E+03	1.209066E-17	5.730594E-19
4.634398E+03	1.224976E-17	5.777412E-19
4.644300E+03	1.240826E-17	5.823218E-19
4.654203E+03	1.256572E-17	5.871945E-19
4.664105E+03	1.272214E-17	5.919569E-19
4.674008E+03	1.287735E-17	5.966019E-19
4.683910E+03	1.303103E-17	6.011150E-19
4.693813E+03	1.318264E-17	6.059344E-19
4.703715E+03	1.333247E-17	6.106230E-19
4.713618E+03	1.348057E-17	6.151846E-19
4.723521E+03	1.362679E-17	6.196125E-19
4.733423E+03	1.377041E-17	6.243833E-19
4.743326E+03	1.391203E-17	6.290275E-19
4.753228E+03	1.405160E-17	6.335436E-19
4.763131E+03	1.418905E-17	6.379298E-19
4.773033E+03	1.432337E-17	6.426900E-19
4.782936E+03	1.445546E-17	6.473271E-19
4.792838E+03	1.458515E-17	6.518338E-19
4.802741E+03	1.471252E-17	6.562143E-19
4.812644E+03	1.483648E-17	6.609786E-19
4.822546E+03	1.495789E-17	6.656171E-19
4.832449E+03	1.507671E-17	6.701281E-19
4.842351E+03	1.519304E-17	6.745168E-19
4.852254E+03	1.530554E-17	6.792584E-19
4.862156E+03	1.541548E-17	6.838827E-19
4.872059E+03	1.552267E-17	6.883818E-19
4.881961E+03	1.562694E-17	6.927476E-19
4.891864E+03	1.572738E-17	6.974421E-19
4.901767E+03	1.582492E-17	7.020114E-19
4.911669E+03	1.591938E-17	7.064468E-19
4.921572E+03	1.601086E-17	7.107525E-19
4.931474E+03	1.609799E-17	7.153297E-19
4.941377E+03	1.618201E-17	7.197757E-19
4.951279E+03	1.626269E-17	7.240807E-19
4.961182E+03	1.633981E-17	7.282337E-19
4.971085E+03	1.641251E-17	7.326123E-19
4.980987E+03	1.648150E-17	7.368349E-19
4.990890E+03	1.654673E-17	7.408983E-19
5.000792E+03	1.660812E-17	7.447985E-19
5.010695E+03	1.666468E-17	7.488566E-19
5.020597E+03	1.671709E-17	7.527383E-19
5.030500E+03	1.676547E-17	7.564468E-19
5.040402E+03	1.680956E-17	7.599701E-19
5.050305E+03	1.684840E-17	7.635792E-19
5.060208E+03	1.688265E-17	7.669881E-19
5.070110E+03	1.691243E-17	7.702002E-19
5.080013E+03	1.693735E-17	7.731962E-19
5.089915E+03	1.695683E-17	7.762133E-19
5.099818E+03	1.697138E-17	7.790080E-19
5.109720E+03	1.698113E-17	7.815850E-19
5.119623E+03	1.698588E-17	7.839336E-19
5.129525E+03	1.698468E-17	7.862208E-19
5.139428E+03	1.697846E-17	7.882747E-19
5.149331E+03	1.696708E-17	7.900857E-19
5.159233E+03	1.695054E-17	7.916522E-19
5.169136E+03	1.692811E-17	7.931032E-19
5.179038E+03	1.690041E-17	7.942990E-19
5.188941E+03	1.686747E-17	7.952397E-19
5.198843E+03	1.682918E-17	7.959166E-19
5.208746E+03	1.678504E-17	7.964251E-19
5.218648E+03	1.673568E-17	7.966705E-19
5.228551E+03	1.668115E-17	7.966535E-19
5.238454E+03	1.662156E-17	7.963768E-19
5.248356E+03	1.655618E-17	7.958816E-19
5.258259E+03	1.648579E-17	7.951234E-19
5.268161E+03	1.641049E-17	7.941051E-19
5.278064E+03	1.633042E-17	7.928309E-19
5.285615E+03	1.584596E-17	7.712573E-19
5.286407E+03	1.594558E-17	7.763111E-19
5.286803E+03	1.598369E-17	7.782699E-19
5.287001E+03	1.599129E-17	7.786911E-19
5.287199E+03	1.599964E-17	7.791497E-19
5.287398E+03	1.600690E-17	7.795551E-19
5.287992E+03	1.607326E-17	7.829424E-19
5.288190E+03	1.607882E-17	7.832653E-19
5.288586E+03	1.611537E-17	7.851500E-19
5.289775E+03	1.627244E-17	7.931175E-19
5.290963E+03	1.643029E-17	8.011300E-19
5.292746E+03	1.667700E-17	8.136443E-19
5.293539E+03	1.677139E-17	8.184666E-19
5.293935E+03	1.680446E-17	8.201890E-19
5.294529E+03	1.686957E-17	8.235306E-19
5.294925E+03	1.690266E-17	8.252550E-19
5.295321E+03	1.693603E-17	8.269937E-19
5.295519E+03	1.693903E-17	8.271954E-19
5.296112E+03	1.700027E-17	8.303505E-19
5.296310E+03	1.700205E-17	8.304926E-19
5.296509E+03	1.700467E-17	8.306758E-19
5.296707E+03	1.700450E-17	8.307225E-19
5.296904E+03	1.700422E-17	8.307637E-19
5.297499E+03	1.706368E-17	8.338339E-19
5.298094E+03	1.712343E-17	8.369206E-19
5.298688E+03	1.718306E-17	8.400018E-19
5.299678E+03	1.730167E-17	8.460801E-19
5.299876E+03	1.729997E-17	8.460529E-19
5.300074E+03	1.729625E-17	8.459269E-19
5.300272E+03	1.729159E-17	8.457550E-19
5.301263E+03	1.740732E-17	8.516976E-19
5.301659E+03	1.743166E-17	8.530015E-19
5.301857E+03	1.742682E-17	8.528211E-19
5.302055E+03	1.742099E-17	8.525923E-19
5.302253E+03	1.741405E-17	8.523090E-19
5.302649E+03	1.743729E-17	8.535594E-19
5.302847E+03	1.743055E-17	8.532858E-19
5.303046E+03	1.742342E-17	8.529933E-19
5.303244E+03	1.741699E-17	8.527350E-19
5.304036E+03	1.749838E-17	8.569469E-19
5.304432E+03	1.751815E-17	8.580286E-19
5.304828E+03	1.753733E-17	8.590819E-19
5.305027E+03	1.752771E-17	8.586674E-19
5.305621E+03	1.757593E-17	8.612005E-19
5.305819E+03	1.756491E-17	8.607173E-19
5.306017E+03	1.755285E-17	8.601834E-19
5.306413E+03	1.756953E-17	8.611146E-19
5.306809E+03	1.758693E-17	8.620816E-19
5.307403E+03	1.763330E-17	8.645261E-19
5.307601E+03	1.762051E-17	8.639562E-19
5.307799E+03	1.760606E-17	8.633044E-19
5.308194E+03	1.762006E-17	8.641050E-19
5.308791E+03	1.766401E-17	8.664330E-19
5.309384E+03	1.770817E-17	8.687711E-19
5.309780E+03	1.772186E-17	8.695577E-19
5.309978E+03	1.770376E-17	8.687270E-19
5.310176E+03	1.768551E-17	8.678885E-19
5.310374E+03	1.766980E-17	8.671751E-19
5.310572E+03	1.765084E-17	8.663017E-19
5.312156E+03	1.783234E-17	8.756726E-19
5.312354E+03	1.781252E-17	8.747574E-19
5.312552E+03	1.779213E-17	8.738136E-19
5.312751E+03	1.777317E-17	8.729402E-19
5.313345E+03	1.781007E-17	8.749260E-19
5.313742E+03	1.781660E-17	8.753625E-19
5.313940E+03	1.779384E-17	8.743018E-19
5.314138E+03	1.777198E-17	8.732858E-19
5.315128E+03	1.786381E-17	8.780877E-19
5.315524E+03	1.786793E-17	8.784066E-19
5.315920E+03	1.787200E-17	8.787227E-19
5.316118E+03	1.784916E-17	8.776575E-19
5.316713E+03	1.787971E-17	8.793339E-19
5.317109E+03	1.788114E-17	8.795202E-19
5.317307E+03	1.785387E-17	8.782369E-19
5.317505E+03	1.782643E-17	8.769446E-19
5.318099E+03	1.785414E-17	8.784816E-19
5.318297E+03	1.782672E-17	8.771908E-19
5.319486E+03	1.793936E-17	8.830828E-19
5.319684E+03	1.791025E-17	8.817081E-19
5.319882E+03	1.788097E-17	8.803248E-19
5.320080E+03	1.785151E-17	8.789321E-19
5.320278E+03	1.782267E-17	8.775700E-19
5.320873E+03	1.784638E-17	8.789116E-19
5.321071E+03	1.781418E-17	8.773836E-19
5.321269E+03	1.778179E-17	8.758462E-19
5.321466E+03	1.775062E-17	8.743679E-19
5.321664E+03	1.771811E-17	8.728240E-19
5.321862E+03	1.768485E-17	8.712431E-19
5.322852E+03	1.776133E-17	8.752992E-19
5.323050E+03	1.772822E-17	8.737250E-19
5.323644E+03	1.775017E-17	8.749799E-19
5.323842E+03	1.771591E-17	8.733488E-19
5.324636E+03	1.776332E-17	8.759170E-19
5.325824E+03	1.786733E-17	8.813939E-19
5.326418E+03	1.788587E-17	8.824824E-19
5.326616E+03	1.784856E-17	8.806995E-19
5.327804E+03	1.794805E-17	8.859588E-19
5.328002E+03	1.790967E-17	8.841221E-19
5.328597E+03	1.792592E-17	8.850989E-19
5.328795E+03	1.788571E-17	8.831717E-19
5.328993E+03	1.784527E-17	8.812331E-19
5.329191E+03	1.780552E-17	8.793278E-19
5.329390E+03	1.776448E-17	8.773591E-19
5.330578E+03	1.786105E-17	8.824765E-19
5.330776E+03	1.781893E-17	8.804530E-19
5.331370E+03	1.783194E-17	8.812700E-19
5.331568E+03	1.778822E-17	8.791670E-19
5.331964E+03	1.777346E-17	8.785529E-19
5.332163E+03	1.773105E-17	8.765142E-19
5.332558E+03	1.771415E-17	8.757936E-19
5.332955E+03	1.769683E-17	8.750525E-19
5.333153E+03	1.765193E-17	8.728896E-19
5.333548E+03	1.763321E-17	8.720780E-19
5.333746E+03	1.758607E-17	8.698036E-19
5.333944E+03	1.753931E-17	8.675479E-19
5.334142E+03	1.749359E-17	8.653431E-19
5.334340E+03	1.744576E-17	8.630340E-19
5.334538E+03	1.739723E-17	8.606895E-19
5.334935E+03	1.737465E-17	8.596855E-19
5.335133E+03	1.732488E-17	8.572795E-19
5.335331E+03	1.727491E-17	8.548627E-19
5.335727E+03	1.725071E-17	8.537772E-19
5.335925E+03	1.719966E-17	8.513068E-19
5.336124E+03	1.714838E-17	8.488244E-19
5.336322E+03	1.709622E-17	8.462977E-19
5.336718E+03	1.707025E-17	8.451232E-19
5.337510E+03	1.709599E-17	8.466195E-19
5.337708E+03	1.704220E-17	8.440108E-19
5.337906E+03	1.698816E-17	8.413897E-19
5.339888E+03	1.716885E-17	8.508967E-19
5.340086E+03	1.711419E-17	8.482435E-19
5.340284E+03	1.705864E-17	8.455456E-19
5.340482E+03	1.700351E-17	8.428680E-19
5.340680E+03	1.694782E-17	8.401622E-19
5.341076E+03	1.691767E-17	8.387776E-19
5.341274E+03	1.686135E-17	8.360401E-19
5.342660E+03	1.695815E-17	8.412247E-19
5.342858E+03	1.690091E-17	8.384402E-19
5.343056E+03	1.684274E-17	8.356091E-19
5.344641E+03	1.696351E-17	8.420411E-19
5.344838E+03	1.690393E-17	8.391385E-19
5.345037E+03	1.684434E-17	8.362352E-19
5.345236E+03	1.678393E-17	8.332907E-19
5.345632E+03	1.674972E-17	8.317013E-19
5.345829E+03	1.668854E-17	8.287171E-19
5.346027E+03	1.662586E-17	8.256584E-19
5.346225E+03	1.656362E-17	8.226211E-19
5.346423E+03	1.650111E-17	8.195705E-19
5.347017E+03	1.648709E-17	8.190344E-19
5.347215E+03	1.642396E-17	8.159515E-19
5.348008E+03	1.643375E-17	8.166512E-19
5.348206E+03	1.636901E-17	8.134869E-19
5.348404E+03	1.630398E-17	8.103081E-19
5.348602E+03	1.623884E-17	8.071234E-19
5.348800E+03	1.617414E-17	8.039598E-19
5.348998E+03	1.610987E-17	8.008177E-19
5.349196E+03	1.604252E-17	7.975215E-19
5.349394E+03	1.597506E-17	7.942200E-19
5.349592E+03	1.590733E-17	7.909042E-19
5.350583E+03	1.593502E-17	7.925394E-19
5.350979E+03	1.589120E-17	7.904630E-19
5.351177E+03	1.582071E-17	7.870081E-19
5.351375E+03	1.574995E-17	7.835389E-19
5.351574E+03	1.568176E-17	7.801979E-19
5.352168E+03	1.565758E-17	7.791470E-19
5.352564E+03	1.561050E-17	7.769053E-19
5.352762E+03	1.553761E-17	7.733278E-19
5.353158E+03	1.548883E-17	7.710005E-19
5.353356E+03	1.541739E-17	7.674946E-19
5.353752E+03	1.536936E-17	7.652029E-19
5.353950E+03	1.529592E-17	7.615963E-19
5.354346E+03	1.524617E-17	7.592181E-19
5.354544E+03	1.517202E-17	7.555747E-19
5.355535E+03	1.518729E-17	7.565813E-19
5.355734E+03	1.511300E-17	7.529295E-19
5.355932E+03	1.503832E-17	7.492575E-19
5.356130E+03	1.496336E-17	7.455711E-19
5.356724E+03	1.493152E-17	7.441296E-19
5.356921E+03	1.485585E-17	7.404065E-19
5.357516E+03	1.482333E-17	7.389301E-19
5.357714E+03	1.474681E-17	7.351636E-19
5.357911E+03	1.467014E-17	7.313885E-19
5.358109E+03	1.459319E-17	7.275994E-19
5.358505E+03	1.453720E-17	7.249021E-19
5.358703E+03	1.445953E-17	7.210755E-19
5.358901E+03	1.438170E-17	7.172411E-19
5.359892E+03	1.438748E-17	7.177618E-19
5.360288E+03	1.433008E-17	7.149915E-19
5.360486E+03	1.425067E-17	7.110752E-19
5.361279E+03	1.423432E-17	7.104440E-19
5.361873E+03	1.419610E-17	7.086742E-19
5.362863E+03	1.419720E-17	7.089587E-19
5.363260E+03	1.413662E-17	7.060247E-19
5.364052E+03	1.411503E-17	7.051290E-19
5.364250E+03	1.403077E-17	7.009651E-19
5.364448E+03	1.395016E-17	6.969831E-19
5.364646E+03	1.386925E-17	6.929858E-19
5.364844E+03	1.378579E-17	6.888600E-19
5.365042E+03	1.370204E-17	6.847193E-19
5.365438E+03	1.363757E-17	6.815858E-19
5.365636E+03	1.355227E-17	6.773667E-19
5.366032E+03	1.348698E-17	6.741902E-19
5.366231E+03	1.340192E-17	6.699821E-19
5.366429E+03	1.331648E-17	6.657536E-19
5.367023E+03	1.326863E-17	6.634899E-19
5.367222E+03	1.318240E-17	6.592205E-19
5.367420E+03	1.309586E-17	6.549354E-19
5.368212E+03	1.306487E-17	6.535544E-19
5.368410E+03	1.297647E-17	6.491743E-19
5.368608E+03	1.288706E-17	6.447429E-19
5.369004E+03	1.281562E-17	6.412514E-19
5.369399E+03	1.274926E-17	6.380130E-19
5.369796E+03	1.267906E-17	6.345824E-19
5.370389E+03	1.262636E-17	6.320669E-19
5.370587E+03	1.253475E-17	6.275212E-19
5.370785E+03	1.244530E-17	6.230835E-19
5.370984E+03	1.235473E-17	6.185888E-19
5.371182E+03	1.226310E-17	6.140407E-19
5.371579E+03	1.219097E-17	6.105079E-19
5.371777E+03	1.209857E-17	6.059194E-19
5.371975E+03	1.200670E-17	6.013572E-19
5.372173E+03	1.191459E-17	5.967821E-19
5.372569E+03	1.183969E-17	5.931071E-19
5.372767E+03	1.174931E-17	5.886175E-19
5.372965E+03	1.165697E-17	5.840287E-19
5.373361E+03	1.157902E-17	5.801982E-19
5.373559E+03	1.148766E-17	5.756572E-19
5.373757E+03	1.139683E-17	5.711426E-19
5.374153E+03	1.131903E-17	5.673165E-19
5.374351E+03	1.122669E-17	5.627246E-19
5.374549E+03	1.113320E-17	5.580743E-19
5.374946E+03	1.105488E-17	5.542199E-19
5.375540E+03	1.099128E-17	5.511378E-19
5.375738E+03	1.089819E-17	5.465047E-19
5.375936E+03	1.080393E-17	5.418128E-19
5.376134E+03	1.070852E-17	5.370625E-19
5.376332E+03	1.061536E-17	5.324249E-19
5.376927E+03	1.054972E-17	5.292347E-19
5.377125E+03	1.045487E-17	5.245100E-19
5.377323E+03	1.035970E-17	5.197691E-19
5.377719E+03	1.027935E-17	5.158035E-19
5.378709E+03	1.024197E-17	5.140927E-19
5.378908E+03	1.014695E-17	5.093559E-19
