#wls	flux	fluxerr
1.584409E+03	8.322527E-17	1.646793E-17
1.624020E+03	8.649459E-17	1.711476E-17
1.663630E+03	8.945655E-17	1.770076E-17
1.703240E+03	9.206794E-17	1.821737E-17
1.742850E+03	9.424732E-17	1.864848E-17
1.782461E+03	9.593413E-17	1.898211E-17
1.822071E+03	9.699104E-17	1.919109E-17
1.861681E+03	9.731339E-17	1.925470E-17
1.901291E+03	9.677926E-17	1.914884E-17
1.940902E+03	9.528070E-17	1.885214E-17
1.980512E+03	9.282543E-17	1.836614E-17
2.020122E+03	8.956439E-17	1.772070E-17
2.059732E+03	8.589237E-17	1.699396E-17
2.099342E+03	8.242766E-17	1.630823E-17
2.138953E+03	7.979992E-17	1.578810E-17
2.178563E+03	7.833130E-17	1.549729E-17
2.218173E+03	7.786514E-17	1.540479E-17
2.257783E+03	7.790052E-17	1.541151E-17
2.297394E+03	7.788300E-17	1.540774E-17
2.337004E+03	7.742836E-17	1.531748E-17
2.376614E+03	7.633070E-17	1.510000E-17
2.416224E+03	7.454420E-17	1.474624E-17
2.455835E+03	7.210628E-17	1.426362E-17
2.495445E+03	6.911305E-17	1.367116E-17
2.535055E+03	6.567092E-17	1.298992E-17
2.574665E+03	6.189473E-17	1.224262E-17
2.614276E+03	5.788548E-17	1.144925E-17
2.653886E+03	5.373652E-17	1.062828E-17
2.693496E+03	4.953170E-17	9.796294E-18
2.733106E+03	4.534063E-17	8.967070E-18
2.772716E+03	4.122520E-17	8.152851E-18
2.812327E+03	3.723802E-17	7.364042E-18
2.851937E+03	3.342554E-17	6.609828E-18
2.891547E+03	2.982783E-17	5.898134E-18
2.931157E+03	2.647642E-17	5.235190E-18
2.970768E+03	2.339438E-17	4.625559E-18
2.980670E+03	2.266768E-17	4.481821E-18
2.990573E+03	2.195833E-17	4.341515E-18
3.000475E+03	2.126724E-17	4.204824E-18
3.010378E+03	2.059334E-17	4.071532E-18
3.020280E+03	1.993741E-17	3.941798E-18
3.030183E+03	1.929926E-17	3.815582E-18
3.040086E+03	1.867932E-17	3.692968E-18
3.049988E+03	1.807728E-17	3.573894E-18
3.059891E+03	1.749467E-17	3.458666E-18
3.069793E+03	1.693010E-17	3.347006E-18
3.079696E+03	1.638368E-17	3.238938E-18
3.089598E+03	1.585483E-17	3.134345E-18
3.099501E+03	1.534273E-17	3.033065E-18
3.109403E+03	1.484749E-17	2.935122E-18
3.119306E+03	1.436836E-17	2.840364E-18
3.129209E+03	1.390517E-17	2.748761E-18
3.139111E+03	1.345751E-17	2.660229E-18
3.149014E+03	1.302497E-17	2.574688E-18
3.158916E+03	1.260739E-17	2.492107E-18
3.168819E+03	1.220441E-17	2.412413E-18
3.178721E+03	1.181544E-17	2.335491E-18
3.188624E+03	1.144053E-17	2.261352E-18
3.198526E+03	1.107916E-17	2.189888E-18
3.208429E+03	1.073115E-17	2.121067E-18
3.218332E+03	1.039616E-17	2.054823E-18
3.228234E+03	1.007368E-17	1.991053E-18
3.238137E+03	9.763732E-18	1.929760E-18
3.248039E+03	9.465653E-18	1.870816E-18
3.257942E+03	9.179432E-18	1.814217E-18
3.267844E+03	8.904738E-18	1.759897E-18
3.277747E+03	8.640967E-18	1.707738E-18
3.287650E+03	8.388078E-18	1.657731E-18
3.297552E+03	8.145759E-18	1.609814E-18
3.307455E+03	7.913563E-18	1.563899E-18
3.317357E+03	7.691195E-18	1.519927E-18
3.327260E+03	7.478362E-18	1.477841E-18
3.337162E+03	7.274765E-18	1.437582E-18
3.347065E+03	7.080121E-18	1.399093E-18
3.356967E+03	6.894139E-18	1.362316E-18
3.366870E+03	6.716453E-18	1.327180E-18
3.376773E+03	6.546716E-18	1.293616E-18
3.386675E+03	6.384839E-18	1.261606E-18
3.396578E+03	6.230323E-18	1.231051E-18
3.406480E+03	6.083013E-18	1.201921E-18
3.416383E+03	5.942600E-18	1.174155E-18
3.426285E+03	5.808861E-18	1.147708E-18
3.436188E+03	5.681447E-18	1.122511E-18
3.446090E+03	5.560094E-18	1.098513E-18
3.455993E+03	5.444614E-18	1.075676E-18
3.465896E+03	5.334708E-18	1.053941E-18
3.475798E+03	5.230207E-18	1.033274E-18
3.485701E+03	5.130723E-18	1.013600E-18
3.495603E+03	5.036122E-18	9.948900E-19
3.505506E+03	4.946111E-18	9.770875E-19
3.515408E+03	4.860468E-18	9.601486E-19
3.525311E+03	4.778988E-18	9.440327E-19
3.535213E+03	4.701382E-18	9.286824E-19
3.545116E+03	4.627569E-18	9.140819E-19
3.555019E+03	4.557332E-18	9.001881E-19
3.564921E+03	4.490468E-18	8.869611E-19
3.574824E+03	4.426917E-18	8.743886E-19
3.584726E+03	4.366448E-18	8.624256E-19
3.594629E+03	4.308932E-18	8.510458E-19
3.604531E+03	4.254240E-18	8.402243E-19
3.614434E+03	4.202254E-18	8.299375E-19
3.624337E+03	4.152858E-18	8.201627E-19
3.634239E+03	4.105943E-18	8.108779E-19
3.644142E+03	4.061439E-18	8.020696E-19
3.654044E+03	4.019278E-18	7.937242E-19
3.663947E+03	3.979358E-18	7.858216E-19
3.673849E+03	3.941716E-18	7.783691E-19
3.683752E+03	3.906216E-18	7.713398E-19
3.693654E+03	3.872860E-18	7.647339E-19
3.703557E+03	3.841580E-18	7.585380E-19
3.713460E+03	3.812343E-18	7.527457E-19
3.723362E+03	3.785178E-18	7.473626E-19
3.733265E+03	3.759951E-18	7.423624E-19
3.743167E+03	3.736690E-18	7.377503E-19
3.753070E+03	3.715388E-18	7.335250E-19
3.762972E+03	3.695945E-18	7.296670E-19
3.772875E+03	3.678385E-18	7.261806E-19
3.782777E+03	3.662699E-18	7.230641E-19
3.792680E+03	3.648816E-18	7.203036E-19
3.802583E+03	3.636700E-18	7.178918E-19
3.812485E+03	3.626398E-18	7.158382E-19
3.822388E+03	3.617814E-18	7.141234E-19
3.832290E+03	3.610966E-18	7.127515E-19
3.842193E+03	3.605816E-18	7.117145E-19
3.852095E+03	3.602355E-18	7.110106E-19
3.861998E+03	3.600573E-18	7.106380E-19
3.871900E+03	3.600403E-18	7.105834E-19
3.881803E+03	3.601836E-18	7.108451E-19
3.891706E+03	3.604894E-18	7.114272E-19
3.901608E+03	3.609539E-18	7.123222E-19
3.911511E+03	3.615736E-18	7.135233E-19
3.921413E+03	3.623476E-18	7.150287E-19
3.931316E+03	3.632727E-18	7.168320E-19
3.941218E+03	3.643482E-18	7.189315E-19
3.951121E+03	3.655735E-18	7.213265E-19
3.961024E+03	3.669482E-18	7.240158E-19
3.970926E+03	3.684663E-18	7.269875E-19
3.980829E+03	3.701272E-18	7.302408E-19
3.990731E+03	3.719308E-18	7.337751E-19
4.000634E+03	3.738768E-18	7.375900E-19
4.010536E+03	3.759623E-18	7.416794E-19
4.020439E+03	3.781842E-18	7.460376E-19
4.030341E+03	3.805425E-18	7.506643E-19
4.040244E+03	3.830343E-18	7.555537E-19
4.050147E+03	3.856596E-18	7.607060E-19
4.060049E+03	3.884157E-18	7.661156E-19
4.069952E+03	3.913026E-18	7.717828E-19
4.079854E+03	3.943177E-18	7.777021E-19
4.089757E+03	3.974582E-18	7.838679E-19
4.099659E+03	4.007244E-18	7.902810E-19
4.109562E+03	4.041136E-18	7.969359E-19
4.119464E+03	4.076260E-18	8.038333E-19
4.129367E+03	4.112561E-18	8.109617E-19
4.139270E+03	4.150040E-18	8.183218E-19
4.149172E+03	4.188639E-18	8.259018E-19
4.159075E+03	4.228393E-18	8.337089E-19
4.168977E+03	4.269244E-18	8.417312E-19
4.178880E+03	4.311195E-18	8.499697E-19
4.188782E+03	4.354152E-18	8.584054E-19
4.198685E+03	4.398150E-18	8.670456E-19
4.208587E+03	4.443093E-18	8.758709E-19
4.218490E+03	4.489017E-18	8.848887E-19
4.228393E+03	4.535820E-18	8.940789E-19
4.238295E+03	4.583435E-18	9.034279E-19
4.248198E+03	4.631896E-18	9.129426E-19
4.258100E+03	4.681059E-18	9.225947E-19
4.268003E+03	4.730959E-18	9.323909E-19
4.277905E+03	4.781447E-18	9.423017E-19
4.287808E+03	4.832554E-18	9.523335E-19
4.297711E+03	4.884200E-18	9.624704E-19
4.307613E+03	4.936305E-18	9.726963E-19
4.317516E+03	4.988858E-18	9.830095E-19
4.327418E+03	5.041815E-18	9.934009E-19
4.337321E+03	5.095208E-18	1.003877E-18
4.347223E+03	5.148950E-18	1.014421E-18
4.357126E+03	5.203119E-18	1.025047E-18
4.367028E+03	5.257711E-18	1.035755E-18
4.376931E+03	5.312726E-18	1.046546E-18
4.386834E+03	5.368163E-18	1.057418E-18
4.396736E+03	5.424068E-18	1.068381E-18
4.406639E+03	5.480398E-18	1.079426E-18
4.416541E+03	5.537205E-18	1.090564E-18
4.426444E+03	5.594492E-18	1.101795E-18
4.436346E+03	5.652269E-18	1.113121E-18
4.446249E+03	5.710498E-18	1.124534E-18
4.456151E+03	5.769186E-18	1.136036E-18
4.466054E+03	5.828296E-18	1.147620E-18
4.475957E+03	5.887887E-18	1.159297E-18
4.485859E+03	5.947873E-18	1.171050E-18
4.495762E+03	6.008265E-18	1.182881E-18
4.505664E+03	6.069076E-18	1.194794E-18
4.515567E+03	6.130219E-18	1.206770E-18
4.525469E+03	6.191759E-18	1.218822E-18
4.535372E+03	6.253609E-18	1.230934E-18
4.545274E+03	6.315785E-18	1.243108E-18
4.555177E+03	6.378198E-18	1.255327E-18
4.565080E+03	6.440920E-18	1.267605E-18
4.574982E+03	6.503920E-18	1.279936E-18
4.584885E+03	6.567108E-18	1.292302E-18
4.594787E+03	6.630509E-18	1.304707E-18
4.604690E+03	6.694150E-18	1.317159E-18
4.614592E+03	6.758004E-18	1.329650E-18
4.624495E+03	6.821983E-18	1.342164E-18
4.634398E+03	6.886243E-18	1.354731E-18
4.644300E+03	6.950823E-18	1.367360E-18
4.654203E+03	7.015646E-18	1.380034E-18
4.664105E+03	7.080757E-18	1.392762E-18
4.674008E+03	7.146205E-18	1.405555E-18
4.683910E+03	7.211849E-18	1.418384E-18
4.693813E+03	7.277741E-18	1.431260E-18
4.703715E+03	7.343802E-18	1.444167E-18
4.713618E+03	7.410087E-18	1.457116E-18
4.723521E+03	7.476588E-18	1.470105E-18
4.733423E+03	7.543226E-18	1.483118E-18
4.743326E+03	7.610062E-18	1.496169E-18
4.753228E+03	7.677017E-18	1.509240E-18
4.763131E+03	7.744154E-18	1.522345E-18
4.773033E+03	7.811394E-18	1.535468E-18
4.782936E+03	7.878728E-18	1.548607E-18
4.792838E+03	7.946144E-18	1.561760E-18
4.802741E+03	8.013720E-18	1.574941E-18
4.812644E+03	8.081354E-18	1.588132E-18
4.822546E+03	8.149044E-18	1.601331E-18
4.832449E+03	8.216703E-18	1.614521E-18
4.842351E+03	8.284463E-18	1.627729E-18
4.852254E+03	8.352244E-18	1.640938E-18
4.862156E+03	8.420020E-18	1.654144E-18
4.872059E+03	8.487704E-18	1.667329E-18
4.881961E+03	8.555333E-18	1.680501E-18
4.891864E+03	8.622828E-18	1.693644E-18
4.901767E+03	8.690146E-18	1.706749E-18
4.911669E+03	8.757342E-18	1.719827E-18
4.921572E+03	8.824303E-18	1.732857E-18
4.931474E+03	8.890996E-18	1.745831E-18
4.941377E+03	8.957301E-18	1.758727E-18
4.951279E+03	9.023254E-18	1.771550E-18
4.961182E+03	9.088823E-18	1.784295E-18
4.971085E+03	9.153871E-18	1.796935E-18
4.980987E+03	9.218355E-18	1.809462E-18
4.990890E+03	9.282210E-18	1.821862E-18
5.000792E+03	9.345307E-18	1.834111E-18
5.010695E+03	9.407667E-18	1.846212E-18
5.020597E+03	9.469240E-18	1.858156E-18
5.030500E+03	9.529785E-18	1.869895E-18
5.040402E+03	9.589314E-18	1.881432E-18
5.050305E+03	9.647786E-18	1.892759E-18
5.060208E+03	9.705022E-18	1.903841E-18
5.070110E+03	9.760972E-18	1.914667E-18
5.080013E+03	9.815543E-18	1.925220E-18
5.089915E+03	9.868679E-18	1.935489E-18
5.099818E+03	9.920207E-18	1.945440E-18
5.109720E+03	9.970148E-18	1.955077E-18
5.119623E+03	1.001824E-17	1.964347E-18
5.129525E+03	1.006448E-17	1.973254E-18
5.139428E+03	1.010871E-17	1.981764E-18
5.149331E+03	1.015085E-17	1.989859E-18
5.159233E+03	1.019080E-17	1.997525E-18
5.169136E+03	1.022850E-17	2.004746E-18
5.179038E+03	1.026365E-17	2.011465E-18
5.188941E+03	1.029637E-17	2.017706E-18
5.198843E+03	1.032649E-17	2.023434E-18
5.208746E+03	1.035392E-17	2.028633E-18
5.218648E+03	1.037849E-17	2.033270E-18
5.228551E+03	1.040011E-17	2.037328E-18
5.238454E+03	1.041874E-17	2.040796E-18
5.248356E+03	1.043430E-17	2.043663E-18
5.258259E+03	1.044674E-17	2.045915E-18
5.268161E+03	1.045592E-17	2.047528E-18
5.278064E+03	1.046200E-17	2.048532E-18
5.287966E+03	1.046475E-17	2.048884E-18
5.297869E+03	1.046417E-17	2.048581E-18
5.307772E+03	1.046045E-17	2.047662E-18
5.317674E+03	1.045341E-17	2.046091E-18
5.327577E+03	1.044325E-17	2.043911E-18
5.337479E+03	1.042994E-17	2.041112E-18
5.347382E+03	1.041363E-17	2.037724E-18
5.357284E+03	1.039425E-17	2.033737E-18
5.367187E+03	1.037212E-17	2.029210E-18
5.377089E+03	1.034721E-17	2.024138E-18
5.386992E+03	1.031972E-17	2.018562E-18
5.396895E+03	1.028956E-17	2.012464E-18
5.406797E+03	1.025697E-17	2.005889E-18
5.416700E+03	1.022198E-17	1.998845E-18
5.426602E+03	1.018462E-17	1.991339E-18
5.436505E+03	1.014517E-17	1.983422E-18
5.446407E+03	1.010357E-17	1.975088E-18
5.456310E+03	1.005990E-17	1.966347E-18
5.466212E+03	1.001434E-17	1.957238E-18
5.476115E+03	9.966861E-18	1.947755E-18
5.486018E+03	9.917752E-18	1.937953E-18
5.495920E+03	9.866904E-18	1.927812E-18
5.505823E+03	9.814716E-18	1.917411E-18
5.515725E+03	9.761268E-18	1.906764E-18
5.525628E+03	9.706651E-18	1.895889E-18
5.535530E+03	9.651052E-18	1.884824E-18
5.545433E+03	9.594658E-18	1.873604E-18
5.555335E+03	9.537542E-18	1.862245E-18
5.565238E+03	9.480082E-18	1.850819E-18
5.575141E+03	9.422244E-18	1.839321E-18
5.585043E+03	9.364372E-18	1.827817E-18
5.594946E+03	9.306443E-18	1.816304E-18
5.604848E+03	9.248777E-18	1.804842E-18
5.614751E+03	9.191521E-18	1.793463E-18
5.624653E+03	9.134701E-18	1.782169E-18
5.634556E+03	9.078541E-18	1.771005E-18
5.644459E+03	9.023139E-18	1.759991E-18
5.654361E+03	8.968701E-18	1.749166E-18
5.664264E+03	8.915328E-18	1.738549E-18
5.674166E+03	8.863013E-18	1.728140E-18
5.684069E+03	8.812020E-18	1.717990E-18
5.693971E+03	8.762425E-18	1.708113E-18
5.703874E+03	8.714205E-18	1.698506E-18
5.713776E+03	8.667527E-18	1.689200E-18
5.723679E+03	8.622538E-18	1.680224E-18
5.733582E+03	8.579284E-18	1.671586E-18
5.743484E+03	8.537725E-18	1.663280E-18
5.753387E+03	8.498002E-18	1.655332E-18
5.763289E+03	8.460249E-18	1.647769E-18
5.773192E+03	8.424509E-18	1.640598E-18
5.783094E+03	8.390710E-18	1.633806E-18
5.792997E+03	8.358986E-18	1.627418E-18
5.802899E+03	8.329364E-18	1.621439E-18
5.812802E+03	8.301961E-18	1.615892E-18
5.822705E+03	8.276796E-18	1.610781E-18
5.832607E+03	8.253804E-18	1.606093E-18
5.842510E+03	8.233087E-18	1.601848E-18
5.852412E+03	8.214564E-18	1.598029E-18
5.862315E+03	8.198529E-18	1.594693E-18
5.872217E+03	8.184706E-18	1.591788E-18
5.882120E+03	8.173193E-18	1.589331E-18
5.892022E+03	8.164081E-18	1.587340E-18
5.901925E+03	8.157273E-18	1.585796E-18
5.911828E+03	8.152764E-18	1.584698E-18
5.921730E+03	8.150634E-18	1.584061E-18
5.931633E+03	8.150776E-18	1.583865E-18
5.941535E+03	8.153266E-18	1.584123E-18
5.951438E+03	8.157895E-18	1.584796E-18
5.961340E+03	8.164826E-18	1.585914E-18
5.971243E+03	8.173842E-18	1.587435E-18
5.981146E+03	8.185103E-18	1.589390E-18
5.991048E+03	8.198287E-18	1.591717E-18
6.000951E+03	8.213547E-18	1.594445E-18
6.010853E+03	8.230748E-18	1.597547E-18
6.020756E+03	8.249844E-18	1.601014E-18
6.030658E+03	8.270602E-18	1.604801E-18
6.040561E+03	8.293158E-18	1.608935E-18
6.050463E+03	8.317175E-18	1.613349E-18
6.060366E+03	8.342787E-18	1.618070E-18
6.070269E+03	8.369639E-18	1.623029E-18
6.080171E+03	8.397667E-18	1.628212E-18
6.090074E+03	8.426706E-18	1.633588E-18
6.099976E+03	8.456699E-18	1.639146E-18
6.109879E+03	8.487242E-18	1.644808E-18
6.119781E+03	8.518271E-18	1.650560E-18
6.129684E+03	8.549594E-18	1.656366E-18
6.139586E+03	8.581139E-18	1.662211E-18
6.149489E+03	8.612806E-18	1.668077E-18
6.159392E+03	8.644752E-18	1.673993E-18
6.169294E+03	8.677218E-18	1.680007E-18
6.179197E+03	8.710262E-18	1.686128E-18
6.189099E+03	8.744041E-18	1.692389E-18
6.199002E+03	8.778738E-18	1.698823E-18
6.208904E+03	8.814419E-18	1.705444E-18
6.218807E+03	8.851276E-18	1.712289E-18
6.228709E+03	8.889408E-18	1.719376E-18
6.238612E+03	8.928890E-18	1.726721E-18
6.248515E+03	8.969956E-18	1.734368E-18
6.258417E+03	9.012605E-18	1.742316E-18
6.268320E+03	9.057063E-18	1.750610E-18
6.278222E+03	9.103222E-18	1.759228E-18
6.288125E+03	9.151208E-18	1.768194E-18
6.298027E+03	9.201021E-18	1.777508E-18
6.307930E+03	9.252821E-18	1.787202E-18
6.317833E+03	9.306491E-18	1.797251E-18
6.327735E+03	9.362034E-18	1.807656E-18
6.337638E+03	9.419358E-18	1.818400E-18
6.347540E+03	9.478183E-18	1.829429E-18
6.357443E+03	9.538385E-18	1.840717E-18
6.367345E+03	9.599982E-18	1.852268E-18
6.377248E+03	9.662958E-18	1.864080E-18
6.387150E+03	9.727338E-18	1.876156E-18
6.397053E+03	9.793265E-18	1.888524E-18
6.406956E+03	9.860912E-18	1.901218E-18
6.416858E+03	9.930290E-18	1.914239E-18
6.426761E+03	1.000128E-17	1.927564E-18
6.436663E+03	1.007420E-17	1.941253E-18
6.446566E+03	1.014908E-17	1.955313E-18
6.456468E+03	1.022580E-17	1.969721E-18
6.466371E+03	1.030454E-17	1.984510E-18
6.476273E+03	1.038533E-17	1.999688E-18
6.486176E+03	1.046805E-17	2.015227E-18
6.496079E+03	1.055272E-17	2.031135E-18
6.505981E+03	1.063972E-17	2.047483E-18
6.515884E+03	1.072856E-17	2.064177E-18
6.525786E+03	1.081963E-17	2.081290E-18
6.535689E+03	1.091295E-17	2.098829E-18
6.545591E+03	1.100821E-17	2.116730E-18
6.555494E+03	1.110579E-17	2.135070E-18
6.565396E+03	1.120537E-17	2.153784E-18
6.575299E+03	1.130734E-17	2.172949E-18
6.585202E+03	1.141137E-17	2.192498E-18
6.595104E+03	1.151767E-17	2.212474E-18
6.605007E+03	1.162627E-17	2.232882E-18
6.614909E+03	1.173701E-17	2.253691E-18
6.624812E+03	1.184991E-17	2.274903E-18
6.634714E+03	1.196521E-17	2.296565E-18
6.644617E+03	1.208272E-17	2.318639E-18
6.654520E+03	1.220248E-17	2.341135E-18
6.664422E+03	1.232450E-17	2.364052E-18
6.674325E+03	1.244882E-17	2.387398E-18
6.684227E+03	1.257545E-17	2.411177E-18
6.694130E+03	1.270443E-17	2.435392E-18
6.704032E+03	1.283555E-17	2.460005E-18
6.713935E+03	1.296906E-17	2.485063E-18
6.723837E+03	1.310498E-17	2.510570E-18
6.733740E+03	1.324309E-17	2.536484E-18
6.743643E+03	1.338365E-17	2.562854E-18
6.753545E+03	1.352645E-17	2.589639E-18
6.763448E+03	1.367150E-17	2.616839E-18
6.773350E+03	1.381882E-17	2.644459E-18
6.783253E+03	1.396840E-17	2.672499E-18
6.793155E+03	1.412052E-17	2.701009E-18
6.803058E+03	1.427469E-17	2.729896E-18
6.812960E+03	1.443115E-17	2.759207E-18
6.822863E+03	1.458994E-17	2.788946E-18
6.832766E+03	1.475078E-17	2.819063E-18
6.842668E+03	1.491395E-17	2.849607E-18
6.852571E+03	1.507945E-17	2.880582E-18
6.862473E+03	1.524701E-17	2.911932E-18
6.872376E+03	1.541662E-17	2.943659E-18
6.882278E+03	1.558857E-17	2.975814E-18
6.892181E+03	1.576256E-17	3.008343E-18
6.902083E+03	1.593860E-17	3.041244E-18
6.911986E+03	1.611666E-17	3.074514E-18
6.921889E+03	1.629675E-17	3.108151E-18
6.931791E+03	1.647852E-17	3.142093E-18
6.941694E+03	1.666261E-17	3.176457E-18
6.951596E+03	1.684835E-17	3.211118E-18
6.961499E+03	1.703606E-17	3.246135E-18
6.971401E+03	1.722538E-17	3.281440E-18
6.981304E+03	1.741628E-17	3.317026E-18
6.991207E+03	1.760908E-17	3.352957E-18
7.001109E+03	1.780342E-17	3.389159E-18
7.011012E+03	1.799891E-17	3.425560E-18
7.020914E+03	1.819622E-17	3.462288E-18
7.030817E+03	1.839497E-17	3.499272E-18
7.040719E+03	1.859475E-17	3.536429E-18
7.050622E+03	1.879591E-17	3.573828E-18
7.060524E+03	1.899801E-17	3.611385E-18
7.070427E+03	1.920140E-17	3.649167E-18
7.080330E+03	1.940564E-17	3.687090E-18
7.090232E+03	1.961109E-17	3.725222E-18
7.100135E+03	1.981689E-17	3.763399E-18
7.110037E+03	2.002338E-17	3.801686E-18
7.119940E+03	2.023094E-17	3.840156E-18
7.129842E+03	2.043868E-17	3.878635E-18
7.139745E+03	2.064651E-17	3.917113E-18
7.149647E+03	2.085480E-17	3.955656E-18
7.159550E+03	2.106350E-17	3.994254E-18
7.169453E+03	2.127208E-17	4.032809E-18
7.179355E+03	2.148094E-17	4.071395E-18
7.189258E+03	2.168954E-17	4.109910E-18
7.199160E+03	2.189780E-17	4.148340E-18
7.209063E+03	2.210612E-17	4.186759E-18
7.218965E+03	2.231395E-17	4.225063E-18
7.228868E+03	2.252169E-17	4.263329E-18
7.238770E+03	2.272879E-17	4.301453E-18
7.248673E+03	2.293516E-17	4.339417E-18
7.258576E+03	2.314174E-17	4.377397E-18
7.268478E+03	2.334745E-17	4.415193E-18
7.278381E+03	2.355325E-17	4.452985E-18
7.288283E+03	2.375858E-17	4.490668E-18
7.298186E+03	2.396392E-17	4.528330E-18
7.308088E+03	2.416979E-17	4.566071E-18
7.317991E+03	2.437561E-17	4.603783E-18
7.327894E+03	2.458250E-17	4.641674E-18
7.337796E+03	2.479046E-17	4.679746E-18
7.347699E+03	2.500011E-17	4.718115E-18
7.357601E+03	2.521148E-17	4.756788E-18
7.367504E+03	2.542465E-17	4.795779E-18
7.377406E+03	2.564026E-17	4.835209E-18
7.387309E+03	2.585721E-17	4.874868E-18
7.397211E+03	2.607556E-17	4.914770E-18
7.407114E+03	2.629474E-17	4.954806E-18
7.417017E+03	2.651541E-17	4.995101E-18
7.426919E+03	2.673700E-17	5.035547E-18
7.436822E+03	2.695892E-17	5.076034E-18
7.446724E+03	2.718119E-17	5.116564E-18
7.456627E+03	2.740382E-17	5.157140E-18
7.466529E+03	2.762616E-17	5.197639E-18
7.476432E+03	2.784888E-17	5.238188E-18
7.486334E+03	2.807062E-17	5.278531E-18
7.496237E+03	2.829271E-17	5.318917E-18
7.506140E+03	2.851445E-17	5.359217E-18
7.516042E+03	2.873581E-17	5.399423E-18
7.525945E+03	2.895603E-17	5.439394E-18
7.535847E+03	2.917574E-17	5.479250E-18
7.545750E+03	2.939488E-17	5.518976E-18
7.555652E+03	2.961335E-17	5.558557E-18
7.565555E+03	2.983034E-17	5.597838E-18
7.575457E+03	3.004642E-17	5.636930E-18
7.585360E+03	3.026074E-17	5.675670E-18
7.595263E+03	3.047464E-17	5.714311E-18
7.605165E+03	3.068566E-17	5.752394E-18
7.615068E+03	3.089591E-17	5.790314E-18
7.624970E+03	3.110444E-17	5.827890E-18
7.634873E+03	3.131023E-17	5.864936E-18
7.644775E+03	3.151384E-17	5.901555E-18
7.654678E+03	3.171501E-17	5.937699E-18
7.664581E+03	3.191352E-17	5.973328E-18
7.674483E+03	3.210908E-17	6.008387E-18
7.684386E+03	3.230225E-17	6.042984E-18
