#wls	flux	fluxerr
1.584409E+03	1.339165E-16	2.104075E-17
1.624020E+03	1.396382E-16	2.192671E-17
1.663630E+03	1.450771E-16	2.276690E-17
1.703240E+03	1.501799E-16	2.355299E-17
1.742850E+03	1.548427E-16	2.426878E-17
1.782461E+03	1.589432E-16	2.489520E-17
1.822071E+03	1.622818E-16	2.540113E-17
1.861681E+03	1.646535E-16	2.575471E-17
1.901291E+03	1.658218E-16	2.591928E-17
1.940902E+03	1.655782E-16	2.586265E-17
1.980512E+03	1.638153E-16	2.556851E-17
2.020122E+03	1.607340E-16	2.506874E-17
2.059732E+03	1.569703E-16	2.446292E-17
2.099342E+03	1.535876E-16	2.391695E-17
2.138953E+03	1.517845E-16	2.361716E-17
2.178563E+03	1.522806E-16	2.367486E-17
2.218173E+03	1.549335E-16	2.406705E-17
2.257783E+03	1.588970E-16	2.466151E-17
2.297394E+03	1.630728E-16	2.528735E-17
2.337004E+03	1.666008E-16	2.581122E-17
2.376614E+03	1.689383E-16	2.614933E-17
2.416224E+03	1.698364E-16	2.626366E-17
2.455835E+03	1.692685E-16	2.615073E-17
2.495445E+03	1.673015E-16	2.582153E-17
2.535055E+03	1.640476E-16	2.529397E-17
2.574665E+03	1.596631E-16	2.459278E-17
2.614276E+03	1.542811E-16	2.373897E-17
2.653886E+03	1.480496E-16	2.275587E-17
2.693496E+03	1.410977E-16	2.166374E-17
2.733106E+03	1.335715E-16	2.048541E-17
2.772716E+03	1.256007E-16	1.924112E-17
2.812327E+03	1.173253E-16	1.795261E-17
2.851937E+03	1.088869E-16	1.664176E-17
2.891547E+03	1.004268E-16	1.533028E-17
2.931157E+03	9.208229E-17	1.403925E-17
2.970768E+03	8.398130E-17	1.278813E-17
2.980670E+03	8.200684E-17	1.248352E-17
2.990573E+03	8.005702E-17	1.218283E-17
3.000475E+03	7.813115E-17	1.188596E-17
3.010378E+03	7.623369E-17	1.159358E-17
3.020280E+03	7.436387E-17	1.130557E-17
3.030183E+03	7.252258E-17	1.102207E-17
3.040086E+03	7.071157E-17	1.074333E-17
3.049988E+03	6.893725E-17	1.047033E-17
3.059891E+03	6.719979E-17	1.020309E-17
3.069793E+03	6.550118E-17	9.941900E-18
3.079696E+03	6.383943E-17	9.686462E-18
3.089598E+03	6.221527E-17	9.436880E-18
3.099501E+03	6.062821E-17	9.193075E-18
3.109403E+03	5.907786E-17	8.954982E-18
3.119306E+03	5.756393E-17	8.722554E-18
3.129209E+03	5.608722E-17	8.495907E-18
3.139111E+03	5.464643E-17	8.274840E-18
3.149014E+03	5.324239E-17	8.059472E-18
3.158916E+03	5.187488E-17	7.849767E-18
3.168819E+03	5.054368E-17	7.645685E-18
3.178721E+03	4.924946E-17	7.447324E-18
3.188624E+03	4.799028E-17	7.254385E-18
3.198526E+03	4.676841E-17	7.067208E-18
3.208429E+03	4.558120E-17	6.885385E-18
3.218332E+03	4.443070E-17	6.709222E-18
3.228234E+03	4.331509E-17	6.538439E-18
3.238137E+03	4.223480E-17	6.373097E-18
3.248039E+03	4.118946E-17	6.213134E-18
3.257942E+03	4.017807E-17	6.058394E-18
3.267844E+03	3.920148E-17	5.909002E-18
3.277747E+03	3.825806E-17	5.764704E-18
3.287650E+03	3.734741E-17	5.625438E-18
3.297552E+03	3.647018E-17	5.491297E-18
3.307455E+03	3.562480E-17	5.362038E-18
3.317357E+03	3.481080E-17	5.237587E-18
3.327260E+03	3.402770E-17	5.117866E-18
3.337162E+03	3.327545E-17	5.002864E-18
3.347065E+03	3.255261E-17	4.892360E-18
3.356967E+03	3.185867E-17	4.786270E-18
3.366870E+03	3.119357E-17	4.684584E-18
3.376773E+03	3.055633E-17	4.587149E-18
3.386675E+03	2.994644E-17	4.493884E-18
3.396578E+03	2.936260E-17	4.404590E-18
3.406480E+03	2.880471E-17	4.319248E-18
3.416383E+03	2.827224E-17	4.237775E-18
3.426285E+03	2.776405E-17	4.159995E-18
3.436188E+03	2.727964E-17	4.085829E-18
3.446090E+03	2.681823E-17	4.015159E-18
3.455993E+03	2.637975E-17	3.947967E-18
3.465896E+03	2.596279E-17	3.884040E-18
3.475798E+03	2.556728E-17	3.823366E-18
3.485701E+03	2.519224E-17	3.765793E-18
3.495603E+03	2.483706E-17	3.711226E-18
3.505506E+03	2.450112E-17	3.659570E-18
3.515408E+03	2.418357E-17	3.610694E-18
3.525311E+03	2.388415E-17	3.564558E-18
3.535213E+03	2.360183E-17	3.521004E-18
3.545116E+03	2.333615E-17	3.479961E-18
3.555019E+03	2.308690E-17	3.441393E-18
3.564921E+03	2.285341E-17	3.405200E-18
3.574824E+03	2.263525E-17	3.371313E-18
3.584726E+03	2.243183E-17	3.339642E-18
3.594629E+03	2.224254E-17	3.310096E-18
3.604531E+03	2.206706E-17	3.282622E-18
3.614434E+03	2.190462E-17	3.257106E-18
3.624337E+03	2.175516E-17	3.233534E-18
3.634239E+03	2.161797E-17	3.211797E-18
3.644142E+03	2.149277E-17	3.191856E-18
3.654044E+03	2.137949E-17	3.173696E-18
3.663947E+03	2.127750E-17	3.157219E-18
3.673849E+03	2.118654E-17	3.142389E-18
3.683752E+03	2.110677E-17	3.129224E-18
3.693654E+03	2.103775E-17	3.117658E-18
3.703557E+03	2.097922E-17	3.107653E-18
3.713460E+03	2.093135E-17	3.099227E-18
3.723362E+03	2.089370E-17	3.092317E-18
3.733265E+03	2.086622E-17	3.086912E-18
3.743167E+03	2.084903E-17	3.083027E-18
3.753070E+03	2.084189E-17	3.080627E-18
3.762972E+03	2.084472E-17	3.079697E-18
3.772875E+03	2.085746E-17	3.080228E-18
3.782777E+03	2.088005E-17	3.082205E-18
3.792680E+03	2.091259E-17	3.085644E-18
3.802583E+03	2.095482E-17	3.090506E-18
3.812485E+03	2.100684E-17	3.096799E-18
3.822388E+03	2.106874E-17	3.104539E-18
3.832290E+03	2.114026E-17	3.113684E-18
3.842193E+03	2.122131E-17	3.124218E-18
3.852095E+03	2.131213E-17	3.136176E-18
3.861998E+03	2.141264E-17	3.149543E-18
3.871900E+03	2.152256E-17	3.164277E-18
3.881803E+03	2.164212E-17	3.180408E-18
3.891706E+03	2.177140E-17	3.197949E-18
3.901608E+03	2.190990E-17	3.216822E-18
3.911511E+03	2.205788E-17	3.237064E-18
3.921413E+03	2.221538E-17	3.258678E-18
3.931316E+03	2.238226E-17	3.281644E-18
3.941218E+03	2.255816E-17	3.305905E-18
3.951121E+03	2.274354E-17	3.331527E-18
3.961024E+03	2.293800E-17	3.358449E-18
3.970926E+03	2.314136E-17	3.386644E-18
3.980829E+03	2.335386E-17	3.416145E-18
3.990731E+03	2.357509E-17	3.446888E-18
4.000634E+03	2.380521E-17	3.478898E-18
4.010536E+03	2.404364E-17	3.512088E-18
4.020439E+03	2.429075E-17	3.546506E-18
4.030341E+03	2.454607E-17	3.582086E-18
4.040244E+03	2.480937E-17	3.618790E-18
4.050147E+03	2.508076E-17	3.656634E-18
4.060049E+03	2.535956E-17	3.695518E-18
4.069952E+03	2.564608E-17	3.735482E-18
4.079854E+03	2.593960E-17	3.776422E-18
4.089757E+03	2.623996E-17	3.818314E-18
4.099659E+03	2.654705E-17	3.861138E-18
4.109562E+03	2.686026E-17	3.904807E-18
4.119464E+03	2.717942E-17	3.949291E-18
4.129367E+03	2.750408E-17	3.994527E-18
4.139270E+03	2.783361E-17	4.040421E-18
4.149172E+03	2.816797E-17	4.086964E-18
4.159075E+03	2.850620E-17	4.134019E-18
4.168977E+03	2.884826E-17	4.181578E-18
4.178880E+03	2.919312E-17	4.229490E-18
4.188782E+03	2.954045E-17	4.277707E-18
4.198685E+03	2.988960E-17	4.326136E-18
4.208587E+03	3.023951E-17	4.374621E-18
4.218490E+03	3.058995E-17	4.423131E-18
4.228393E+03	3.094001E-17	4.471531E-18
4.238295E+03	3.128870E-17	4.519681E-18
4.248198E+03	3.163502E-17	4.567435E-18
4.258100E+03	3.197845E-17	4.614719E-18
4.268003E+03	3.231819E-17	4.661420E-18
4.277905E+03	3.265263E-17	4.707304E-18
4.287808E+03	3.298149E-17	4.752333E-18
4.297711E+03	3.330310E-17	4.796268E-18
4.307613E+03	3.361716E-17	4.839066E-18
4.317516E+03	3.392230E-17	4.880534E-18
4.327418E+03	3.421795E-17	4.920590E-18
4.337321E+03	3.450365E-17	4.959171E-18
4.347223E+03	3.477900E-17	4.996220E-18
4.357126E+03	3.504381E-17	5.031715E-18
4.367028E+03	3.529856E-17	5.065725E-18
4.376931E+03	3.554375E-17	5.098325E-18
4.386834E+03	3.577972E-17	5.129565E-18
4.396736E+03	3.600715E-17	5.159544E-18
4.406639E+03	3.622617E-17	5.188285E-18
4.416541E+03	3.643787E-17	5.215944E-18
4.426444E+03	3.664245E-17	5.242551E-18
4.436346E+03	3.684048E-17	5.268190E-18
4.446249E+03	3.703249E-17	5.292939E-18
4.456151E+03	3.721910E-17	5.316885E-18
4.466054E+03	3.740091E-17	5.340117E-18
4.475957E+03	3.757852E-17	5.362720E-18
4.485859E+03	3.775189E-17	5.384690E-18
4.495762E+03	3.792231E-17	5.406213E-18
4.505664E+03	3.808972E-17	5.427277E-18
4.515567E+03	3.825471E-17	5.447972E-18
4.525469E+03	3.841760E-17	5.468339E-18
4.535372E+03	3.857930E-17	5.488509E-18
4.545274E+03	3.874006E-17	5.508520E-18
4.555177E+03	3.889979E-17	5.528357E-18
4.565080E+03	3.905973E-17	5.548197E-18
4.574982E+03	3.921978E-17	5.568026E-18
4.584885E+03	3.938011E-17	5.587868E-18
4.594787E+03	3.954163E-17	5.607850E-18
4.604690E+03	3.970489E-17	5.628051E-18
4.614592E+03	3.986930E-17	5.648387E-18
4.624495E+03	4.003614E-17	5.669039E-18
4.634398E+03	4.020554E-17	5.690024E-18
4.644300E+03	4.037762E-17	5.711359E-18
4.654203E+03	4.055291E-17	5.733117E-18
4.664105E+03	4.073147E-17	5.755308E-18
4.674008E+03	4.091384E-17	5.778005E-18
4.683910E+03	4.109932E-17	5.801108E-18
4.693813E+03	4.128838E-17	5.824684E-18
4.703715E+03	4.148146E-17	5.848794E-18
4.713618E+03	4.167746E-17	5.873281E-18
4.723521E+03	4.187720E-17	5.898261E-18
4.733423E+03	4.208030E-17	5.923677E-18
4.743326E+03	4.228639E-17	5.949479E-18
4.753228E+03	4.249625E-17	5.975774E-18
4.763131E+03	4.270865E-17	6.002389E-18
4.773033E+03	4.292478E-17	6.029489E-18
4.782936E+03	4.314337E-17	6.056896E-18
4.792838E+03	4.336516E-17	6.084714E-18
4.802741E+03	4.358927E-17	6.112817E-18
4.812644E+03	4.381641E-17	6.141304E-18
4.822546E+03	4.404565E-17	6.170045E-18
4.832449E+03	4.427731E-17	6.199082E-18
4.842351E+03	4.451120E-17	6.228391E-18
4.852254E+03	4.474679E-17	6.257894E-18
4.862156E+03	4.498386E-17	6.287562E-18
4.872059E+03	4.522225E-17	6.317371E-18
4.881961E+03	4.546219E-17	6.347352E-18
4.891864E+03	4.570258E-17	6.377353E-18
4.901767E+03	4.594405E-17	6.407460E-18
4.911669E+03	4.618546E-17	6.437514E-18
4.921572E+03	4.642697E-17	6.467537E-18
4.931474E+03	4.666783E-17	6.497424E-18
4.941377E+03	4.690770E-17	6.527130E-18
4.951279E+03	4.714623E-17	6.556604E-18
4.961182E+03	4.738350E-17	6.585857E-18
4.971085E+03	4.761818E-17	6.614707E-18
4.980987E+03	4.785030E-17	6.643158E-18
4.990890E+03	4.807894E-17	6.671081E-18
5.000792E+03	4.830407E-17	6.698474E-18
5.010695E+03	4.852471E-17	6.725201E-18
5.020597E+03	4.873983E-17	6.751121E-18
5.030500E+03	4.894932E-17	6.776219E-18
5.040402E+03	4.915258E-17	6.800414E-18
5.050305E+03	4.934849E-17	6.823554E-18
5.060208E+03	4.953591E-17	6.845481E-18
5.070110E+03	4.971510E-17	6.866233E-18
5.080013E+03	4.988441E-17	6.885586E-18
5.089915E+03	5.004308E-17	6.903435E-18
5.099818E+03	5.019036E-17	6.919681E-18
5.109720E+03	5.032550E-17	6.934223E-18
5.119623E+03	5.044723E-17	6.946889E-18
5.129525E+03	5.055526E-17	6.957641E-18
5.139428E+03	5.064782E-17	6.966241E-18
5.149331E+03	5.072462E-17	6.972651E-18
5.159233E+03	5.078391E-17	6.976638E-18
5.169136E+03	5.082595E-17	6.978237E-18
5.179038E+03	5.084901E-17	6.977218E-18
5.188941E+03	5.085292E-17	6.973562E-18
5.198843E+03	5.083601E-17	6.967044E-18
5.208746E+03	5.079822E-17	6.957663E-18
5.218648E+03	5.073902E-17	6.945350E-18
5.228551E+03	5.065696E-17	6.929911E-18
5.238454E+03	5.055167E-17	6.911304E-18
5.248356E+03	5.042337E-17	6.889565E-18
5.258259E+03	5.027143E-17	6.864610E-18
5.268161E+03	5.009526E-17	6.836369E-18
5.278064E+03	4.989500E-17	6.804863E-18
5.287966E+03	4.967080E-17	6.770124E-18
5.297869E+03	4.942307E-17	6.732209E-18
5.307772E+03	4.915179E-17	6.691125E-18
5.317674E+03	4.885813E-17	6.647034E-18
5.327577E+03	4.854240E-17	6.599987E-18
5.337479E+03	4.820603E-17	6.550183E-18
5.347382E+03	4.784967E-17	6.497715E-18
5.357284E+03	4.747549E-17	6.442885E-18
5.367187E+03	4.708533E-17	6.385945E-18
5.377089E+03	4.668021E-17	6.327038E-18
5.386992E+03	4.626308E-17	6.266569E-18
5.396895E+03	4.583561E-17	6.204765E-18
5.406797E+03	4.539769E-17	6.141616E-18
5.416700E+03	4.495252E-17	6.077557E-18
5.426602E+03	4.450106E-17	6.012721E-18
5.436505E+03	4.404442E-17	5.947256E-18
5.446407E+03	4.358420E-17	5.881383E-18
5.456310E+03	4.312183E-17	5.815295E-18
5.466212E+03	4.265884E-17	5.749197E-18
5.476115E+03	4.219752E-17	5.683400E-18
5.486018E+03	4.173931E-17	5.618096E-18
5.495920E+03	4.128682E-17	5.553636E-18
5.505823E+03	4.084209E-17	5.490292E-18
5.515725E+03	4.040668E-17	5.428273E-18
5.525628E+03	3.998279E-17	5.367870E-18
5.535530E+03	3.957207E-17	5.309305E-18
5.545433E+03	3.917605E-17	5.252776E-18
5.555335E+03	3.879646E-17	5.198514E-18
5.565238E+03	3.843452E-17	5.146676E-18
5.575141E+03	3.809125E-17	5.097396E-18
5.585043E+03	3.776793E-17	5.050838E-18
5.594946E+03	3.746529E-17	5.007097E-18
5.604848E+03	3.718433E-17	4.966299E-18
5.614751E+03	3.692548E-17	4.928497E-18
5.624653E+03	3.668907E-17	4.893731E-18
5.634556E+03	3.647570E-17	4.862071E-18
5.644459E+03	3.628547E-17	4.833528E-18
5.654361E+03	3.611835E-17	4.808090E-18
5.664264E+03	3.597466E-17	4.785796E-18
5.674166E+03	3.585421E-17	4.766611E-18
5.684069E+03	3.575717E-17	4.750553E-18
5.693971E+03	3.568284E-17	4.737524E-18
5.703874E+03	3.563167E-17	4.727576E-18
5.713776E+03	3.560288E-17	4.720601E-18
5.723679E+03	3.559609E-17	4.716542E-18
5.733582E+03	3.561163E-17	4.715438E-18
5.743484E+03	3.564831E-17	4.717124E-18
5.753387E+03	3.570645E-17	4.721637E-18
5.763289E+03	3.578561E-17	4.728914E-18
5.773192E+03	3.588532E-17	4.738887E-18
5.783094E+03	3.600478E-17	4.751444E-18
5.792997E+03	3.614431E-17	4.766624E-18
5.802899E+03	3.630308E-17	4.784310E-18
5.812802E+03	3.648109E-17	4.804497E-18
5.822705E+03	3.667788E-17	4.827122E-18
5.832607E+03	3.689263E-17	4.852070E-18
5.842510E+03	3.712537E-17	4.879340E-18
5.852412E+03	3.737607E-17	4.908924E-18
5.862315E+03	3.764353E-17	4.940658E-18
5.872217E+03	3.792772E-17	4.974537E-18
5.882120E+03	3.822826E-17	5.010503E-18
5.892022E+03	3.854517E-17	5.048557E-18
5.901925E+03	3.887718E-17	5.088526E-18
5.911828E+03	3.922475E-17	5.130468E-18
5.921730E+03	3.958662E-17	5.174213E-18
5.931633E+03	3.996278E-17	5.219758E-18
5.941535E+03	4.035287E-17	5.267048E-18
5.951438E+03	4.075598E-17	5.315965E-18
5.961340E+03	4.117221E-17	5.366516E-18
5.971243E+03	4.160019E-17	5.418520E-18
5.981146E+03	4.204049E-17	5.472048E-18
5.991048E+03	4.249125E-17	5.526855E-18
6.000951E+03	4.295308E-17	5.583015E-18
6.010853E+03	4.342458E-17	5.640348E-18
6.020756E+03	4.390588E-17	5.698866E-18
6.030658E+03	4.439562E-17	5.758388E-18
6.040561E+03	4.489337E-17	5.818860E-18
6.050463E+03	4.539825E-17	5.880164E-18
6.060366E+03	4.590987E-17	5.942247E-18
6.070269E+03	4.642668E-17	6.004910E-18
6.080171E+03	4.694766E-17	6.068015E-18
6.090074E+03	4.747228E-17	6.131497E-18
6.099976E+03	4.799936E-17	6.195203E-18
6.109879E+03	4.852646E-17	6.258814E-18
6.119781E+03	4.905272E-17	6.322224E-18
6.129684E+03	4.957665E-17	6.385238E-18
6.139586E+03	5.009734E-17	6.447742E-18
6.149489E+03	5.061454E-17	6.509706E-18
6.159392E+03	5.112806E-17	6.571104E-18
6.169294E+03	5.163828E-17	6.631987E-18
6.179197E+03	5.214695E-17	6.692583E-18
6.189099E+03	5.265387E-17	6.752866E-18
6.199002E+03	5.315819E-17	6.812728E-18
6.208904E+03	5.366181E-17	6.872413E-18
6.218807E+03	5.416464E-17	6.931910E-18
6.228709E+03	5.466522E-17	6.991034E-18
6.238612E+03	5.516570E-17	7.050060E-18
6.248515E+03	5.566395E-17	7.108715E-18
6.258417E+03	5.616160E-17	7.167209E-18
6.268320E+03	5.665736E-17	7.225377E-18
6.278222E+03	5.715144E-17	7.283248E-18
6.288125E+03	5.764340E-17	7.340765E-18
6.298027E+03	5.813282E-17	7.397876E-18
6.307930E+03	5.861932E-17	7.454534E-18
6.317833E+03	5.910169E-17	7.510585E-18
6.327735E+03	5.957873E-17	7.565879E-18
6.337638E+03	6.005093E-17	7.620480E-18
6.347540E+03	6.051629E-17	7.674134E-18
6.357443E+03	6.097530E-17	7.726909E-18
6.367345E+03	6.142680E-17	7.778657E-18
6.377248E+03	6.187050E-17	7.829345E-18
6.387150E+03	6.230706E-17	7.879057E-18
6.397053E+03	6.273808E-17	7.928001E-18
6.406956E+03	6.316347E-17	7.976164E-18
6.416858E+03	6.358409E-17	8.023657E-18
6.426761E+03	6.400084E-17	8.070597E-18
6.436663E+03	6.441274E-17	8.116860E-18
6.446566E+03	6.482176E-17	8.162697E-18
6.456468E+03	6.522796E-17	8.208116E-18
6.466371E+03	6.563038E-17	8.252998E-18
6.476273E+03	6.603115E-17	8.297611E-18
6.486176E+03	6.642929E-17	8.341835E-18
6.496079E+03	6.682386E-17	8.385550E-18
6.505981E+03	6.721701E-17	8.429031E-18
6.515884E+03	6.760778E-17	8.472155E-18
6.525786E+03	6.799623E-17	8.514933E-18
6.535689E+03	6.838353E-17	8.557511E-18
6.545591E+03	6.876752E-17	8.599622E-18
6.555494E+03	6.914819E-17	8.641264E-18
6.565396E+03	6.952784E-17	8.682725E-18
6.575299E+03	6.990417E-17	8.723723E-18
6.585202E+03	7.027715E-17	8.764251E-18
6.595104E+03	7.064787E-17	8.804451E-18
6.605007E+03	7.101511E-17	8.844169E-18
6.614909E+03	7.137878E-17	8.883395E-18
6.624812E+03	7.173994E-17	8.922266E-18
6.634714E+03	7.209603E-17	8.960462E-18
6.644617E+03	7.244685E-17	8.997961E-18
6.654520E+03	7.279471E-17	9.035052E-18
6.664422E+03	7.313686E-17	9.071398E-18
6.674325E+03	7.347310E-17	9.106971E-18
6.684227E+03	7.380439E-17	9.141899E-18
6.694130E+03	7.412920E-17	9.175989E-18
6.704032E+03	7.444722E-17	9.209208E-18
6.713935E+03	7.475815E-17	9.241521E-18
6.723837E+03	7.506161E-17	9.272885E-18
6.733740E+03	7.535595E-17	9.303097E-18
6.743643E+03	7.564215E-17	9.332283E-18
6.753545E+03	7.591984E-17	9.360399E-18
6.763448E+03	7.618731E-17	9.387237E-18
6.773350E+03	7.644555E-17	9.412925E-18
6.783253E+03	7.669283E-17	9.437252E-18
6.793155E+03	7.692875E-17	9.460171E-18
6.803058E+03	7.715295E-17	9.481644E-18
6.812960E+03	7.736365E-17	9.501455E-18
6.822863E+03	7.756338E-17	9.519919E-18
6.832766E+03	7.775037E-17	9.536823E-18
6.842668E+03	7.792288E-17	9.551957E-18
6.852571E+03	7.808204E-17	9.565465E-18
6.862473E+03	7.822616E-17	9.577143E-18
6.872376E+03	7.835494E-17	9.586961E-18
6.882278E+03	7.846968E-17	9.595081E-18
6.892181E+03	7.856873E-17	9.601306E-18
6.902083E+03	7.865190E-17	9.605618E-18
6.911986E+03	7.871912E-17	9.608012E-18
6.921889E+03	7.877029E-17	9.608481E-18
6.931791E+03	7.880386E-17	9.606842E-18
6.941694E+03	7.882292E-17	9.603475E-18
6.951596E+03	7.882446E-17	9.598019E-18
6.961499E+03	7.880858E-17	9.590490E-18
6.971401E+03	7.877700E-17	9.581101E-18
6.981304E+03	7.872837E-17	9.569695E-18
6.991207E+03	7.866297E-17	9.556309E-18
7.001109E+03	7.858109E-17	9.540983E-18
7.011012E+03	7.848312E-17	9.523768E-18
7.020914E+03	7.837104E-17	9.504910E-18
7.030817E+03	7.824221E-17	9.484092E-18
7.040719E+03	7.809716E-17	9.461381E-18
7.050622E+03	7.793801E-17	9.437041E-18
7.060524E+03	7.776539E-17	9.411150E-18
7.070427E+03	7.757842E-17	9.383605E-18
7.080330E+03	7.737938E-17	9.354685E-18
7.090232E+03	7.716584E-17	9.324101E-18
7.100135E+03	7.694178E-17	9.292335E-18
7.110037E+03	7.670641E-17	9.259296E-18
7.119940E+03	7.646060E-17	9.225090E-18
7.129842E+03	7.620362E-17	9.189635E-18
7.139745E+03	7.593953E-17	9.153419E-18
7.149647E+03	7.566609E-17	9.116175E-18
7.159550E+03	7.538578E-17	9.078205E-18
7.169453E+03	7.509795E-17	9.039432E-18
7.179355E+03	7.480514E-17	9.000164E-18
7.189258E+03	7.450672E-17	8.960325E-18
7.199160E+03	7.420362E-17	8.920029E-18
7.209063E+03	7.389841E-17	8.879587E-18
7.218965E+03	7.359044E-17	8.838920E-18
7.228868E+03	7.328228E-17	8.798339E-18
7.238770E+03	7.297176E-17	8.757583E-18
7.248673E+03	7.266145E-17	8.716961E-18
7.258576E+03	7.235389E-17	8.676777E-18
7.268478E+03	7.204698E-17	8.636781E-18
7.278381E+03	7.174329E-17	8.597282E-18
7.288283E+03	7.144229E-17	8.558214E-18
7.298186E+03	7.114657E-17	8.519889E-18
7.308088E+03	7.085560E-17	8.482242E-18
7.317991E+03	7.057045E-17	8.445401E-18
7.327894E+03	7.029209E-17	8.409483E-18
7.337796E+03	7.001997E-17	8.374420E-18
7.347699E+03	6.975501E-17	8.340324E-18
7.357601E+03	6.949806E-17	8.307293E-18
7.367504E+03	6.924983E-17	8.275415E-18
7.377406E+03	6.901245E-17	8.244941E-18
7.387309E+03	6.878473E-17	8.215731E-18
7.397211E+03	6.856995E-17	8.188173E-18
7.407114E+03	6.836796E-17	8.162253E-18
7.417017E+03	6.817845E-17	8.137928E-18
7.426919E+03	6.800079E-17	8.115125E-18
7.436822E+03	6.783421E-17	8.093747E-18
7.446724E+03	6.768174E-17	8.074154E-18
7.456627E+03	6.754128E-17	8.056092E-18
7.466529E+03	6.741523E-17	8.039845E-18
7.476432E+03	6.730421E-17	8.025486E-18
7.486334E+03	6.721017E-17	8.013244E-18
7.496237E+03	6.713005E-17	8.002752E-18
7.506140E+03	6.706528E-17	7.994179E-18
7.516042E+03	6.701551E-17	7.987482E-18
7.525945E+03	6.698183E-17	7.982786E-18
7.535847E+03	6.696043E-17	7.979640E-18
7.545750E+03	6.695378E-17	7.978334E-18
7.555652E+03	6.695953E-17	7.978588E-18
7.565555E+03	6.697526E-17	7.980110E-18
7.575457E+03	6.700333E-17	7.983182E-18
7.585360E+03	6.704129E-17	7.987513E-18
7.595263E+03	6.708834E-17	7.993003E-18
7.605165E+03	6.714361E-17	7.999549E-18
7.615068E+03	6.720629E-17	8.007054E-18
7.624970E+03	6.727561E-17	8.015425E-18
7.634873E+03	6.735240E-17	8.024761E-18
7.644775E+03	6.743260E-17	8.034577E-18
7.654678E+03	6.751880E-17	8.045182E-18
7.664581E+03	6.760860E-17	8.056287E-18
7.674483E+03	6.770129E-17	8.067809E-18
7.684386E+03	6.779619E-17	8.079666E-18
