#wls	flux	fluxerr
1.584409E+03	1.334599E-16	2.345201E-17
1.624020E+03	1.383092E-16	2.425380E-17
1.663630E+03	1.428429E-16	2.499558E-17
1.703240E+03	1.470498E-16	2.567564E-17
1.742850E+03	1.508444E-16	2.627930E-17
1.782461E+03	1.541112E-16	2.678683E-17
1.822071E+03	1.567017E-16	2.717302E-17
1.861681E+03	1.584111E-16	2.740317E-17
1.901291E+03	1.590330E-16	2.744269E-17
1.940902E+03	1.583879E-16	2.726204E-17
1.980512E+03	1.563913E-16	2.684838E-17
2.020122E+03	1.532592E-16	2.624052E-17
2.059732E+03	1.495741E-16	2.553957E-17
2.099342E+03	1.463566E-16	2.492018E-17
2.138953E+03	1.447641E-16	2.457825E-17
2.178563E+03	1.455046E-16	2.463128E-17
2.218173E+03	1.484599E-16	2.505578E-17
2.257783E+03	1.528787E-16	2.572183E-17
2.297394E+03	1.577330E-16	2.645456E-17
2.337004E+03	1.621949E-16	2.711468E-17
2.376614E+03	1.657429E-16	2.761577E-17
2.416224E+03	1.681337E-16	2.791883E-17
2.455835E+03	1.693220E-16	2.801820E-17
2.495445E+03	1.693398E-16	2.792118E-17
2.535055E+03	1.682981E-16	2.764808E-17
2.574665E+03	1.662917E-16	2.721633E-17
2.614276E+03	1.634267E-16	2.664507E-17
2.653886E+03	1.597955E-16	2.595100E-17
2.693496E+03	1.554936E-16	2.515116E-17
2.733106E+03	1.506035E-16	2.426031E-17
2.772716E+03	1.452030E-16	2.329224E-17
2.812327E+03	1.393793E-16	2.226213E-17
2.851937E+03	1.332139E-16	2.118402E-17
2.891547E+03	1.267972E-16	2.007317E-17
2.931157E+03	1.202199E-16	1.894464E-17
2.970768E+03	1.135699E-16	1.781284E-17
2.980670E+03	1.119053E-16	1.753086E-17
2.990573E+03	1.102429E-16	1.724978E-17
3.000475E+03	1.085835E-16	1.696970E-17
3.010378E+03	1.069303E-16	1.669113E-17
3.020280E+03	1.052818E-16	1.641383E-17
3.030183E+03	1.036390E-16	1.613795E-17
3.040086E+03	1.020082E-16	1.586451E-17
3.049988E+03	1.003901E-16	1.559356E-17
3.059891E+03	9.879324E-17	1.532646E-17
3.069793E+03	9.721462E-17	1.506273E-17
3.079696E+03	9.565344E-17	1.480223E-17
3.089598E+03	9.411297E-17	1.454547E-17
3.099501E+03	9.258899E-17	1.429178E-17
3.109403E+03	9.108325E-17	1.404143E-17
3.119306E+03	8.959573E-17	1.379441E-17
3.129209E+03	8.812838E-17	1.355101E-17
3.139111E+03	8.667992E-17	1.331103E-17
3.149014E+03	8.525263E-17	1.307480E-17
3.158916E+03	8.384728E-17	1.284244E-17
3.168819E+03	8.246336E-17	1.261386E-17
3.178721E+03	8.110352E-17	1.238945E-17
3.188624E+03	7.977037E-17	1.216960E-17
3.198526E+03	7.846243E-17	1.195407E-17
3.208429E+03	7.718374E-17	1.174347E-17
3.218332E+03	7.593303E-17	1.153759E-17
3.228234E+03	7.471538E-17	1.133717E-17
3.238137E+03	7.352822E-17	1.114183E-17
3.248039E+03	7.237399E-17	1.095190E-17
3.257942E+03	7.125482E-17	1.076770E-17
3.267844E+03	7.017047E-17	1.058917E-17
3.277747E+03	6.912284E-17	1.041657E-17
3.287650E+03	6.811047E-17	1.024966E-17
3.297552E+03	6.713512E-17	1.008870E-17
3.307455E+03	6.619730E-17	9.933729E-18
3.317357E+03	6.529748E-17	9.784803E-18
3.327260E+03	6.443605E-17	9.641957E-18
3.337162E+03	6.361240E-17	9.505079E-18
3.347065E+03	6.282689E-17	9.374199E-18
3.356967E+03	6.207975E-17	9.249328E-18
3.366870E+03	6.137120E-17	9.130477E-18
3.376773E+03	6.070059E-17	9.017525E-18
3.386675E+03	6.006805E-17	8.910468E-18
3.396578E+03	5.947372E-17	8.809305E-18
3.406480E+03	5.891691E-17	8.713910E-18
3.416383E+03	5.839770E-17	8.624270E-18
3.426285E+03	5.791615E-17	8.540372E-18
3.436188E+03	5.747083E-17	8.461982E-18
3.446090E+03	5.706255E-17	8.389194E-18
3.455993E+03	5.669061E-17	8.321883E-18
3.465896E+03	5.635436E-17	8.259932E-18
3.475798E+03	5.605383E-17	8.203320E-18
3.485701E+03	5.578773E-17	8.151838E-18
3.495603E+03	5.555610E-17	8.105466E-18
3.505506E+03	5.535835E-17	8.064099E-18
3.515408E+03	5.519387E-17	8.027623E-18
3.525311E+03	5.506209E-17	7.995935E-18
3.535213E+03	5.496243E-17	7.968929E-18
3.545116E+03	5.489375E-17	7.946418E-18
3.555019E+03	5.485611E-17	7.928389E-18
3.564921E+03	5.484836E-17	7.914657E-18
3.574824E+03	5.487057E-17	7.905212E-18
3.584726E+03	5.492107E-17	7.899791E-18
3.594629E+03	5.500047E-17	7.898465E-18
3.604531E+03	5.510656E-17	7.900895E-18
3.614434E+03	5.523937E-17	7.907069E-18
3.624337E+03	5.539786E-17	7.916817E-18
3.634239E+03	5.558204E-17	7.930126E-18
3.644142E+03	5.579028E-17	7.946742E-18
3.654044E+03	5.602259E-17	7.966654E-18
3.663947E+03	5.627787E-17	7.989686E-18
3.673849E+03	5.655610E-17	8.015818E-18
3.683752E+03	5.685612E-17	8.044872E-18
3.693654E+03	5.717839E-17	8.076898E-18
3.703557E+03	5.752118E-17	8.111633E-18
3.713460E+03	5.788487E-17	8.149118E-18
3.723362E+03	5.826872E-17	8.189235E-18
3.733265E+03	5.867250E-17	8.231934E-18
3.743167E+03	5.909542E-17	8.277092E-18
3.753070E+03	5.953767E-17	8.324723E-18
3.762972E+03	5.999785E-17	8.374614E-18
3.772875E+03	6.047610E-17	8.426775E-18
3.782777E+03	6.097201E-17	8.481134E-18
3.792680E+03	6.148513E-17	8.537617E-18
3.802583E+03	6.201497E-17	8.596141E-18
3.812485E+03	6.256049E-17	8.656553E-18
3.822388E+03	6.312223E-17	8.718914E-18
3.832290E+03	6.369963E-17	8.783136E-18
3.842193E+03	6.429155E-17	8.849049E-18
3.852095E+03	6.489790E-17	8.916633E-18
3.861998E+03	6.551804E-17	8.985788E-18
3.871900E+03	6.615184E-17	9.056485E-18
3.881803E+03	6.679803E-17	9.128544E-18
3.891706E+03	6.745700E-17	9.202005E-18
3.901608E+03	6.812739E-17	9.276676E-18
3.911511E+03	6.880959E-17	9.352602E-18
3.921413E+03	6.950217E-17	9.429580E-18
3.931316E+03	7.020430E-17	9.507490E-18
3.941218E+03	7.091622E-17	9.586358E-18
3.951121E+03	7.163645E-17	9.665978E-18
3.961024E+03	7.236464E-17	9.746295E-18
3.970926E+03	7.309981E-17	9.827174E-18
3.980829E+03	7.384158E-17	9.908559E-18
3.990731E+03	7.458891E-17	9.990306E-18
4.000634E+03	7.534081E-17	1.007228E-17
4.010536E+03	7.609682E-17	1.015442E-17
4.020439E+03	7.685655E-17	1.023666E-17
4.030341E+03	7.761765E-17	1.031870E-17
4.040244E+03	7.838094E-17	1.040064E-17
4.050147E+03	7.914404E-17	1.048216E-17
4.060049E+03	7.990711E-17	1.056330E-17
4.069952E+03	8.066834E-17	1.064380E-17
4.079854E+03	8.142719E-17	1.072361E-17
4.089757E+03	8.218241E-17	1.080256E-17
4.099659E+03	8.293273E-17	1.088049E-17
4.109562E+03	8.367679E-17	1.095723E-17
4.119464E+03	8.441318E-17	1.103259E-17
4.129367E+03	8.514107E-17	1.110648E-17
4.139270E+03	8.585894E-17	1.117871E-17
4.149172E+03	8.656439E-17	1.124897E-17
4.159075E+03	8.725563E-17	1.131704E-17
4.168977E+03	8.793082E-17	1.138270E-17
4.178880E+03	8.858864E-17	1.144580E-17
4.188782E+03	8.922627E-17	1.150597E-17
4.198685E+03	8.984146E-17	1.156295E-17
4.208587E+03	9.043108E-17	1.161636E-17
4.218490E+03	9.099337E-17	1.166599E-17
4.228393E+03	9.152494E-17	1.171144E-17
4.238295E+03	9.202306E-17	1.175236E-17
4.248198E+03	9.248487E-17	1.178844E-17
4.258100E+03	9.290590E-17	1.181913E-17
4.268003E+03	9.328470E-17	1.184428E-17
4.277905E+03	9.361671E-17	1.186334E-17
4.287808E+03	9.389896E-17	1.187598E-17
4.297711E+03	9.412775E-17	1.188177E-17
4.307613E+03	9.430196E-17	1.188060E-17
4.317516E+03	9.441671E-17	1.187191E-17
4.327418E+03	9.447144E-17	1.185568E-17
4.337321E+03	9.446447E-17	1.183173E-17
4.347223E+03	9.439546E-17	1.180008E-17
4.357126E+03	9.426668E-17	1.176106E-17
4.367028E+03	9.408127E-17	1.171509E-17
4.376931E+03	9.384458E-17	1.166289E-17
4.386834E+03	9.355916E-17	1.160480E-17
4.396736E+03	9.323104E-17	1.154162E-17
4.406639E+03	9.286405E-17	1.147384E-17
4.416541E+03	9.246294E-17	1.140207E-17
4.426444E+03	9.203404E-17	1.132713E-17
4.436346E+03	9.157964E-17	1.124930E-17
4.446249E+03	9.110673E-17	1.116948E-17
4.456151E+03	9.061734E-17	1.108790E-17
4.466054E+03	9.011730E-17	1.100530E-17
4.475957E+03	8.960986E-17	1.092209E-17
4.485859E+03	8.909882E-17	1.083873E-17
4.495762E+03	8.858778E-17	1.075565E-17
4.505664E+03	8.807850E-17	1.067307E-17
4.515567E+03	8.757566E-17	1.059156E-17
4.525469E+03	8.708055E-17	1.051126E-17
4.535372E+03	8.659584E-17	1.043250E-17
4.545274E+03	8.612393E-17	1.035554E-17
4.555177E+03	8.566701E-17	1.028066E-17
4.565080E+03	8.522634E-17	1.020797E-17
4.574982E+03	8.480293E-17	1.013761E-17
4.584885E+03	8.439842E-17	1.006974E-17
4.594787E+03	8.401429E-17	1.000453E-17
4.604690E+03	8.365184E-17	9.942118E-18
4.614592E+03	8.331074E-17	9.882456E-18
4.624495E+03	8.299284E-17	9.825746E-18
4.634398E+03	8.269833E-17	9.771994E-18
4.644300E+03	8.242732E-17	9.721196E-18
4.654203E+03	8.218064E-17	9.673435E-18
4.664105E+03	8.195827E-17	9.628691E-18
4.674008E+03	8.176013E-17	9.586938E-18
4.683910E+03	8.158611E-17	9.548148E-18
4.693813E+03	8.143616E-17	9.512296E-18
4.703715E+03	8.131016E-17	9.479353E-18
4.713618E+03	8.120797E-17	9.449284E-18
4.723521E+03	8.112939E-17	9.422050E-18
4.733423E+03	8.107336E-17	9.397512E-18
4.743326E+03	8.104031E-17	9.375705E-18
4.753228E+03	8.102828E-17	9.356387E-18
4.763131E+03	8.103832E-17	9.339663E-18
4.773033E+03	8.106827E-17	9.325271E-18
4.782936E+03	8.111825E-17	9.313213E-18
4.792838E+03	8.118753E-17	9.303389E-18
4.802741E+03	8.127371E-17	9.295514E-18
4.812644E+03	8.137753E-17	9.289661E-18
4.822546E+03	8.149730E-17	9.285626E-18
4.832449E+03	8.163294E-17	9.283389E-18
4.842351E+03	8.178112E-17	9.282564E-18
4.852254E+03	8.194334E-17	9.283310E-18
4.862156E+03	8.211710E-17	9.285338E-18
4.872059E+03	8.230228E-17	9.288627E-18
4.881961E+03	8.249721E-17	9.292981E-18
4.891864E+03	8.270182E-17	9.298387E-18
4.901767E+03	8.291362E-17	9.304561E-18
4.911669E+03	8.313260E-17	9.311495E-18
4.921572E+03	8.335878E-17	9.319191E-18
4.931474E+03	8.358977E-17	9.327376E-18
4.941377E+03	8.382485E-17	9.335968E-18
4.951279E+03	8.406420E-17	9.344985E-18
4.961182E+03	8.430719E-17	9.354356E-18
4.971085E+03	8.455159E-17	9.363833E-18
4.980987E+03	8.479770E-17	9.373448E-18
4.990890E+03	8.504498E-17	9.383143E-18
5.000792E+03	8.529295E-17	9.392864E-18
5.010695E+03	8.554027E-17	9.402464E-18
5.020597E+03	8.578639E-17	9.411886E-18
5.030500E+03	8.603167E-17	9.421170E-18
5.040402E+03	8.627384E-17	9.430070E-18
5.050305E+03	8.651317E-17	9.438619E-18
5.060208E+03	8.674819E-17	9.446660E-18
5.070110E+03	8.697824E-17	9.454124E-18
5.080013E+03	8.720259E-17	9.460938E-18
5.089915E+03	8.742046E-17	9.467023E-18
5.099818E+03	8.763016E-17	9.472198E-18
5.109720E+03	8.783160E-17	9.476464E-18
5.119623E+03	8.802201E-17	9.479528E-18
5.129525E+03	8.820116E-17	9.481371E-18
5.139428E+03	8.836693E-17	9.481776E-18
5.149331E+03	8.851798E-17	9.480609E-18
5.159233E+03	8.865284E-17	9.477723E-18
5.169136E+03	8.876996E-17	9.472964E-18
5.179038E+03	8.886586E-17	9.465973E-18
5.188941E+03	8.894053E-17	9.456763E-18
5.198843E+03	8.898941E-17	9.444864E-18
5.208746E+03	8.901227E-17	9.430267E-18
5.218648E+03	8.900525E-17	9.412584E-18
5.228551E+03	8.896713E-17	9.391699E-18
5.238454E+03	8.889481E-17	9.367310E-18
5.248356E+03	8.878523E-17	9.339115E-18
5.258259E+03	8.863713E-17	9.307000E-18
5.268161E+03	8.844663E-17	9.270586E-18
5.278064E+03	8.821263E-17	9.229780E-18
5.287966E+03	8.793239E-17	9.184323E-18
5.297869E+03	8.760342E-17	9.133979E-18
5.307772E+03	8.722430E-17	9.078630E-18
5.317674E+03	8.679395E-17	9.018192E-18
5.327577E+03	8.631162E-17	8.952613E-18
5.337479E+03	8.577523E-17	8.881709E-18
5.347382E+03	8.518576E-17	8.805607E-18
5.357284E+03	8.454296E-17	8.724312E-18
5.367187E+03	8.384883E-17	8.638056E-18
5.377089E+03	8.310339E-17	8.546868E-18
5.386992E+03	8.231140E-17	8.451263E-18
5.396895E+03	8.147646E-17	8.351633E-18
5.406797E+03	8.060668E-17	8.248828E-18
5.416700E+03	7.970409E-17	8.143070E-18
5.426602E+03	7.876725E-17	8.034225E-18
5.436505E+03	7.779697E-17	7.922386E-18
5.446407E+03	7.679716E-17	7.807961E-18
5.456310E+03	7.577595E-17	7.691784E-18
5.466212E+03	7.473788E-17	7.574322E-18
5.476115E+03	7.369216E-17	7.456508E-18
5.486018E+03	7.264420E-17	7.338887E-18
5.495920E+03	7.160151E-17	7.222214E-18
5.505823E+03	7.057145E-17	7.107219E-18
5.515725E+03	6.956109E-17	6.994605E-18
5.525628E+03	6.857578E-17	6.884895E-18
5.535530E+03	6.762196E-17	6.778717E-18
5.545433E+03	6.670559E-17	6.676649E-18
5.555335E+03	6.583150E-17	6.579153E-18
5.565238E+03	6.500395E-17	6.486630E-18
5.575141E+03	6.422788E-17	6.399548E-18
5.585043E+03	6.350556E-17	6.318107E-18
5.594946E+03	6.283985E-17	6.242562E-18
5.604848E+03	6.223216E-17	6.173026E-18
5.614751E+03	6.168377E-17	6.109597E-18
5.624653E+03	6.119456E-17	6.052235E-18
5.634556E+03	6.076374E-17	6.000833E-18
5.644459E+03	6.039049E-17	5.955285E-18
5.654361E+03	6.007352E-17	5.915434E-18
5.664264E+03	5.980986E-17	5.880964E-18
5.674166E+03	5.959752E-17	5.851655E-18
5.684069E+03	5.943375E-17	5.827214E-18
5.693971E+03	5.931574E-17	5.807346E-18
5.703874E+03	5.924208E-17	5.791891E-18
5.713776E+03	5.920892E-17	5.780454E-18
5.723679E+03	5.921521E-17	5.772915E-18
5.733582E+03	5.925824E-17	5.768995E-18
5.743484E+03	5.933683E-17	5.768561E-18
5.753387E+03	5.944945E-17	5.771452E-18
5.763289E+03	5.959483E-17	5.777529E-18
5.773192E+03	5.977252E-17	5.786736E-18
5.783094E+03	5.998104E-17	5.798916E-18
5.792997E+03	6.022029E-17	5.814048E-18
5.802899E+03	6.048973E-17	5.832067E-18
5.812802E+03	6.078823E-17	5.852854E-18
5.822705E+03	6.111680E-17	5.876493E-18
5.832607E+03	6.147383E-17	5.902819E-18
5.842510E+03	6.186050E-17	5.931934E-18
5.852412E+03	6.227598E-17	5.963748E-18
5.862315E+03	6.272011E-17	5.998236E-18
5.872217E+03	6.319340E-17	6.035434E-18
5.882120E+03	6.369414E-17	6.075172E-18
5.892022E+03	6.422269E-17	6.117473E-18
5.901925E+03	6.477929E-17	6.162350E-18
5.911828E+03	6.536190E-17	6.209601E-18
5.921730E+03	6.597058E-17	6.259221E-18
5.931633E+03	6.660453E-17	6.311129E-18
5.941535E+03	6.726210E-17	6.365159E-18
5.951438E+03	6.794229E-17	6.421210E-18
5.961340E+03	6.864403E-17	6.479174E-18
5.971243E+03	6.936534E-17	6.538857E-18
5.981146E+03	7.010492E-17	6.600135E-18
5.991048E+03	7.086225E-17	6.662951E-18
6.000951E+03	7.163335E-17	6.726928E-18
6.010853E+03	7.241827E-17	6.792070E-18
6.020756E+03	7.321268E-17	6.857965E-18
6.030658E+03	7.401636E-17	6.924595E-18
6.040561E+03	7.482456E-17	6.991514E-18
6.050463E+03	7.563580E-17	7.058585E-18
6.060366E+03	7.644576E-17	7.125406E-18
6.070269E+03	7.725257E-17	7.191808E-18
6.080171E+03	7.805151E-17	7.257354E-18
6.090074E+03	7.883854E-17	7.321676E-18
6.099976E+03	7.961153E-17	7.384582E-18
6.109879E+03	8.036551E-17	7.445621E-18
6.119781E+03	8.109866E-17	7.504632E-18
6.129684E+03	8.180857E-17	7.561404E-18
6.139586E+03	8.249348E-17	7.615784E-18
6.149489E+03	8.315236E-17	7.667689E-18
6.159392E+03	8.378689E-17	7.717285E-18
6.169294E+03	8.439717E-17	7.764593E-18
6.179197E+03	8.498469E-17	7.809758E-18
6.189099E+03	8.555128E-17	7.852960E-18
6.199002E+03	8.610117E-17	7.894595E-18
6.208904E+03	8.663425E-17	7.934657E-18
6.218807E+03	8.715277E-17	7.973353E-18
6.228709E+03	8.766005E-17	8.010990E-18
6.238612E+03	8.815822E-17	8.047764E-18
6.248515E+03	8.864850E-17	8.083786E-18
6.258417E+03	8.913159E-17	8.119120E-18
6.268320E+03	8.961069E-17	8.154060E-18
6.278222E+03	9.008524E-17	8.188551E-18
6.288125E+03	9.055712E-17	8.222764E-18
6.298027E+03	9.102650E-17	8.256712E-18
6.307930E+03	9.149373E-17	8.290428E-18
6.317833E+03	9.195875E-17	8.323903E-18
6.327735E+03	9.242150E-17	8.357128E-18
6.337638E+03	9.288156E-17	8.390068E-18
6.347540E+03	9.333712E-17	8.422555E-18
6.357443E+03	9.378886E-17	8.454650E-18
6.367345E+03	9.423580E-17	8.486264E-18
6.377248E+03	9.467852E-17	8.517450E-18
6.387150E+03	9.511731E-17	8.548230E-18
6.397053E+03	9.554984E-17	8.578395E-18
6.406956E+03	9.597787E-17	8.608104E-18
6.416858E+03	9.640050E-17	8.637273E-18
6.426761E+03	9.681824E-17	8.665949E-18
6.436663E+03	9.722886E-17	8.693932E-18
6.446566E+03	9.763453E-17	8.721414E-18
6.456468E+03	9.803326E-17	8.748219E-18
6.466371E+03	9.842590E-17	8.774423E-18
6.476273E+03	9.881054E-17	8.799854E-18
6.486176E+03	9.918836E-17	8.824618E-18
6.496079E+03	9.956069E-17	8.848834E-18
6.505981E+03	9.992439E-17	8.872223E-18
6.515884E+03	1.002809E-16	8.894910E-18
6.525786E+03	1.006320E-16	8.917060E-18
6.535689E+03	1.009744E-16	8.938379E-18
6.545591E+03	1.013116E-16	8.959183E-18
6.555494E+03	1.016406E-16	8.979195E-18
6.565396E+03	1.019647E-16	8.998717E-18
6.575299E+03	1.022808E-16	9.017471E-18
6.585202E+03	1.025905E-16	9.035597E-18
6.595104E+03	1.028936E-16	9.053090E-18
6.605007E+03	1.031884E-16	9.069789E-18
6.614909E+03	1.034762E-16	9.085820E-18
6.624812E+03	1.037550E-16	9.101002E-18
6.634714E+03	1.040245E-16	9.115315E-18
6.644617E+03	1.042862E-16	9.128886E-18
6.654520E+03	1.045378E-16	9.141526E-18
6.664422E+03	1.047773E-16	9.153056E-18
6.674325E+03	1.050082E-16	9.163784E-18
6.684227E+03	1.052265E-16	9.173371E-18
6.694130E+03	1.054339E-16	9.181958E-18
6.704032E+03	1.056302E-16	9.189548E-18
6.713935E+03	1.058135E-16	9.195962E-18
6.723837E+03	1.059836E-16	9.201197E-18
6.733740E+03	1.061402E-16	9.205234E-18
6.743643E+03	1.062854E-16	9.208243E-18
6.753545E+03	1.064169E-16	9.210047E-18
6.763448E+03	1.065325E-16	9.210462E-18
6.773350E+03	1.066343E-16	9.209658E-18
6.783253E+03	1.067220E-16	9.207631E-18
6.793155E+03	1.067957E-16	9.204379E-18
6.803058E+03	1.068530E-16	9.199725E-18
6.812960E+03	1.068943E-16	9.193688E-18
6.822863E+03	1.069215E-16	9.186438E-18
6.832766E+03	1.069325E-16	9.177822E-18
6.842668E+03	1.069276E-16	9.167850E-18
6.852571E+03	1.069067E-16	9.156535E-18
6.862473E+03	1.068701E-16	9.143895E-18
6.872376E+03	1.068178E-16	9.129956E-18
6.882278E+03	1.067501E-16	9.114731E-18
6.892181E+03	1.066649E-16	9.098067E-18
6.902083E+03	1.065625E-16	9.079982E-18
6.911986E+03	1.064451E-16	9.060681E-18
6.921889E+03	1.063132E-16	9.040205E-18
6.931791E+03	1.061628E-16	9.018223E-18
6.941694E+03	1.059984E-16	8.995139E-18
6.951596E+03	1.058187E-16	8.970829E-18
6.961499E+03	1.056240E-16	8.945340E-18
6.971401E+03	1.054129E-16	8.918564E-18
6.981304E+03	1.051883E-16	8.890738E-18
6.991207E+03	1.049508E-16	8.861932E-18
7.001109E+03	1.047012E-16	8.832212E-18
7.011012E+03	1.044381E-16	8.801485E-18
7.020914E+03	1.041624E-16	8.769810E-18
7.030817E+03	1.038769E-16	8.737455E-18
7.040719E+03	1.035806E-16	8.704322E-18
7.050622E+03	1.032722E-16	8.670311E-18
7.060524E+03	1.029568E-16	8.635862E-18
7.070427E+03	1.026334E-16	8.600903E-18
7.080330E+03	1.023031E-16	8.565520E-18
7.090232E+03	1.019650E-16	8.529654E-18
7.100135E+03	1.016224E-16	8.493584E-18
7.110037E+03	1.012768E-16	8.457431E-18
7.119940E+03	1.009275E-16	8.421150E-18
7.129842E+03	1.005762E-16	8.384885E-18
7.139745E+03	1.002265E-16	8.348942E-18
7.149647E+03	9.987798E-17	8.313294E-18
7.159550E+03	9.953242E-17	8.278086E-18
7.169453E+03	9.919154E-17	8.243469E-18
7.179355E+03	9.885679E-17	8.209564E-18
7.189258E+03	9.852772E-17	8.176339E-18
7.199160E+03	9.820961E-17	8.144234E-18
7.209063E+03	9.790143E-17	8.113166E-18
7.218965E+03	9.759987E-17	8.082864E-18
7.228868E+03	9.731156E-17	8.053881E-18
7.238770E+03	9.703073E-17	8.025740E-18
7.248673E+03	9.676119E-17	7.998762E-18
7.258576E+03	9.650084E-17	7.972774E-18
7.268478E+03	9.624882E-17	7.947709E-18
7.278381E+03	9.600240E-17	7.923346E-18
7.288283E+03	9.576046E-17	7.899597E-18
7.298186E+03	9.552173E-17	7.876358E-18
7.308088E+03	9.528498E-17	7.853537E-18
7.317991E+03	9.504441E-17	7.830656E-18
7.327894E+03	9.480057E-17	7.807768E-18
7.337796E+03	9.454788E-17	7.784417E-18
7.347699E+03	9.428254E-17	7.760295E-18
7.357601E+03	9.400099E-17	7.735114E-18
7.367504E+03	9.370377E-17	7.708925E-18
7.377406E+03	9.338956E-17	7.681622E-18
7.387309E+03	9.306105E-17	7.653432E-18
7.397211E+03	9.272130E-17	7.624610E-18
7.407114E+03	9.236717E-17	7.594896E-18
7.417017E+03	9.200008E-17	7.564401E-18
7.426919E+03	9.162361E-17	7.533409E-18
7.436822E+03	9.123342E-17	7.501555E-18
7.446724E+03	9.083448E-17	7.469237E-18
7.456627E+03	9.042908E-17	7.436636E-18
7.466529E+03	9.001979E-17	7.403954E-18
7.476432E+03	8.960937E-17	7.371408E-18
7.486334E+03	8.920066E-17	7.339224E-18
7.496237E+03	8.879861E-17	7.307799E-18
7.506140E+03	8.840398E-17	7.277190E-18
7.516042E+03	8.802122E-17	7.247754E-18
7.525945E+03	8.765062E-17	7.219506E-18
7.535847E+03	8.729644E-17	7.192794E-18
7.545750E+03	8.696015E-17	7.167729E-18
7.555652E+03	8.664129E-17	7.144270E-18
7.565555E+03	8.634292E-17	7.122662E-18
7.575457E+03	8.606583E-17	7.102967E-18
7.585360E+03	8.580858E-17	7.085061E-18
7.595263E+03	8.557347E-17	7.069129E-18
7.605165E+03	8.535860E-17	7.055012E-18
7.615068E+03	8.516792E-17	7.043033E-18
7.624970E+03	8.499720E-17	7.032838E-18
7.634873E+03	8.484809E-17	7.024562E-18
7.644775E+03	8.471809E-17	7.017995E-18
7.654678E+03	8.460863E-17	7.013255E-18
7.664581E+03	8.451902E-17	7.010281E-18
7.674483E+03	8.444847E-17	7.009007E-18
7.684386E+03	8.439410E-17	7.009191E-18
