#wls	flux	fluxerr
1.584409E+03	-1.315446E-17	-3.390641E-17
1.624020E+03	-4.983251E-17	-1.283196E-16
1.663630E+03	-8.996880E-17	-2.314385E-16
1.703240E+03	-1.333630E-16	-3.427153E-16
1.742850E+03	-1.796930E-16	-4.612907E-16
1.782461E+03	-2.271852E-16	-5.822820E-16
1.822071E+03	-2.759277E-16	-7.060635E-16
1.861681E+03	-3.249023E-16	-8.300054E-16
1.901291E+03	-3.728282E-16	-9.508258E-16
1.940902E+03	-4.155034E-16	-1.057198E-15
1.980512E+03	-4.538175E-16	-1.151938E-15
2.020122E+03	-4.872919E-16	-1.233896E-15
2.059732E+03	-5.169617E-16	-1.305762E-15
2.099342E+03	-5.421281E-16	-1.364907E-15
2.138953E+03	-5.714550E-16	-1.433980E-15
2.178563E+03	-6.090898E-16	-1.523228E-15
2.218173E+03	-6.561423E-16	-1.635179E-15
2.257783E+03	-7.047030E-16	-1.748563E-15
2.297394E+03	-7.557676E-16	-1.866888E-15
2.337004E+03	-8.053416E-16	-1.980202E-15
2.376614E+03	-8.504325E-16	-2.081187E-15
2.416224E+03	-8.808242E-16	-2.143181E-15
2.455835E+03	-9.035836E-16	-2.185543E-15
2.495445E+03	-9.185276E-16	-2.208125E-15
2.535055E+03	-9.259910E-16	-2.212044E-15
2.574665E+03	-9.162596E-16	-2.172374E-15
2.614276E+03	-9.000683E-16	-2.117429E-15
2.653886E+03	-8.780896E-16	-2.049142E-15
2.693496E+03	-8.510517E-16	-1.969540E-15
2.733106E+03	-8.091874E-16	-1.854397E-15
2.772716E+03	-7.644329E-16	-1.734108E-15
2.812327E+03	-7.176275E-16	-1.610821E-15
2.851937E+03	-6.695451E-16	-1.486476E-15
2.891547E+03	-6.123425E-16	-1.342430E-15
2.931157E+03	-5.564821E-16	-1.204021E-15
2.970768E+03	-5.026012E-16	-1.072613E-15
2.980670E+03	-4.895006E-16	-1.040977E-15
2.990573E+03	-4.754289E-16	-1.007261E-15
3.000475E+03	-4.615738E-16	-9.741998E-16
3.010378E+03	-4.479487E-16	-9.418177E-16
3.020280E+03	-4.345476E-16	-9.100986E-16
3.030183E+03	-4.208592E-16	-8.778915E-16
3.040086E+03	-4.074474E-16	-8.464632E-16
3.049988E+03	-3.943129E-16	-8.158105E-16
3.059891E+03	-3.814875E-16	-7.859943E-16
3.069793E+03	-3.684706E-16	-7.559091E-16
3.079696E+03	-3.557637E-16	-7.266636E-16
3.089598E+03	-3.433743E-16	-6.982673E-16
3.099501E+03	-3.312832E-16	-6.706749E-16
3.109403E+03	-3.190386E-16	-6.429065E-16
3.119306E+03	-3.071114E-16	-6.159813E-16
3.129209E+03	-2.955020E-16	-5.898935E-16
3.139111E+03	-2.842021E-16	-5.646196E-16
3.149014E+03	-2.727931E-16	-5.392707E-16
3.158916E+03	-2.617150E-16	-5.147767E-16
3.168819E+03	-2.509605E-16	-4.911163E-16
3.178721E+03	-2.405319E-16	-4.682861E-16
3.188624E+03	-2.300398E-16	-4.454778E-16
3.198526E+03	-2.198846E-16	-4.235176E-16
3.208429E+03	-2.100705E-16	-4.024053E-16
3.218332E+03	-2.005860E-16	-3.821105E-16
3.228234E+03	-1.910759E-16	-3.619127E-16
3.238137E+03	-1.819040E-16	-3.425431E-16
3.248039E+03	-1.730664E-16	-3.239856E-16
3.257942E+03	-1.645578E-16	-3.062212E-16
3.267844E+03	-1.560348E-16	-2.885737E-16
3.277747E+03	-1.478407E-16	-2.717123E-16
3.287650E+03	-1.399607E-16	-2.556005E-16
3.297552E+03	-1.323867E-16	-2.402149E-16
3.307455E+03	-1.248019E-16	-2.249497E-16
3.317357E+03	-1.175180E-16	-2.103942E-16
3.327260E+03	-1.105231E-16	-1.965187E-16
3.337162E+03	-1.038042E-16	-1.832911E-16
3.347065E+03	-9.706693E-17	-1.701670E-16
3.356967E+03	-9.059740E-17	-1.576700E-16
3.366870E+03	-8.438344E-17	-1.457705E-16
3.376773E+03	-7.841187E-17	-1.344380E-16
3.386675E+03	-7.240905E-17	-1.231845E-16
3.396578E+03	-6.663855E-17	-1.124751E-16
3.406480E+03	-6.108741E-17	-1.022807E-16
3.416383E+03	-5.574392E-17	-9.257481E-17
3.426285E+03	-5.035319E-17	-8.292058E-17
3.436188E+03	-4.515798E-17	-7.373056E-17
3.446090E+03	-4.014749E-17	-6.498077E-17
3.455993E+03	-3.531005E-17	-5.664636E-17
3.465896E+03	-3.040740E-17	-4.833682E-17
3.475798E+03	-2.566679E-17	-4.042260E-17
3.485701E+03	-2.107699E-17	-3.288078E-17
3.495603E+03	-1.662793E-17	-2.569075E-17
3.505506E+03	-1.209698E-17	-1.850495E-17
3.515408E+03	-7.696763E-18	-1.165495E-17
3.525311E+03	-3.417720E-18	-5.122074E-18
3.535213E+03	7.492287E-19	1.111077E-18
3.545116E+03	5.009144E-18	7.348000E-18
3.555019E+03	9.165174E-18	1.329623E-17
3.564921E+03	1.322538E-17	1.897061E-17
3.574824E+03	1.719759E-17	2.438517E-17
3.584726E+03	2.125939E-17	2.978762E-17
3.594629E+03	2.523976E-17	3.493722E-17
3.604531E+03	2.914469E-17	3.984451E-17
3.614434E+03	3.298066E-17	4.452027E-17
3.624337E+03	3.689778E-17	4.916020E-17
3.634239E+03	4.075044E-17	5.357155E-17
3.644142E+03	4.454318E-17	5.776172E-17
3.654044E+03	4.828130E-17	6.173882E-17
3.663947E+03	5.208903E-17	6.565279E-17
3.673849E+03	5.584463E-17	6.935328E-17
3.683752E+03	5.955164E-17	7.284554E-17
3.693654E+03	6.321492E-17	7.613613E-17
3.703557E+03	6.693344E-17	7.933446E-17
3.713460E+03	7.060874E-17	8.232804E-17
3.723362E+03	7.424371E-17	8.512063E-17
3.733265E+03	7.784158E-17	8.771613E-17
3.743167E+03	8.147874E-17	9.019135E-17
3.753070E+03	8.507868E-17	9.246590E-17
3.762972E+03	8.864237E-17	9.454092E-17
3.772875E+03	9.217270E-17	9.641946E-17
3.782777E+03	9.572372E-17	9.815132E-17
3.792680E+03	9.923942E-17	9.968199E-17
3.802583E+03	1.027214E-16	1.010130E-16
3.812485E+03	1.061699E-16	1.021445E-16
3.822388E+03	1.096181E-16	1.031073E-16
3.832290E+03	1.130311E-16	1.038674E-16
3.842193E+03	1.164085E-16	1.044247E-16
3.852095E+03	1.197517E-16	1.047803E-16
3.861998E+03	1.230694E-16	1.049512E-16
3.871900E+03	1.263485E-16	1.049172E-16
3.881803E+03	1.295878E-16	1.046775E-16
3.891706E+03	1.327888E-16	1.042338E-16
3.901608E+03	1.359371E-16	1.036027E-16
3.911511E+03	1.390413E-16	1.027664E-16
3.921413E+03	1.420992E-16	1.017239E-16
3.931316E+03	1.451096E-16	1.004753E-16
3.941218E+03	1.480392E-16	9.905978E-17
3.951121E+03	1.509136E-16	9.744019E-17
3.961024E+03	1.537322E-16	9.561771E-17
3.970926E+03	1.564929E-16	9.359273E-17
3.980829E+03	1.591394E-16	9.145829E-17
3.990731E+03	1.617190E-16	8.912876E-17
4.000634E+03	1.642291E-16	8.660533E-17
4.010536E+03	1.666684E-16	8.389019E-17
4.020439E+03	1.689598E-16	8.120162E-17
4.030341E+03	1.711680E-16	7.833519E-17
4.040244E+03	1.732944E-16	7.529528E-17
4.050147E+03	1.753331E-16	7.208336E-17
4.060049E+03	1.771878E-16	6.920382E-17
4.069952E+03	1.789449E-16	6.617834E-17
4.079854E+03	1.806027E-16	6.301100E-17
4.089757E+03	1.821579E-16	5.970549E-17
4.099659E+03	1.834919E-16	5.740386E-17
4.109562E+03	1.847118E-16	5.500337E-17
4.119464E+03	1.858141E-16	5.250733E-17
4.129367E+03	1.867967E-16	4.991976E-17
4.139270E+03	1.875314E-16	4.943223E-17
4.149172E+03	1.881338E-16	4.889879E-17
4.159075E+03	1.886005E-16	4.831988E-17
4.168977E+03	1.889278E-16	4.769601E-17
4.178880E+03	1.890040E-16	4.964432E-17
4.188782E+03	1.889308E-16	5.156982E-17
4.198685E+03	1.887051E-16	5.346719E-17
4.208587E+03	1.883222E-16	5.533043E-17
4.218490E+03	1.876642E-16	5.882013E-17
4.228393E+03	1.868410E-16	6.225805E-17
4.238295E+03	1.858500E-16	6.563346E-17
4.248198E+03	1.846894E-16	6.893549E-17
4.258100E+03	1.832239E-16	7.281454E-17
4.268003E+03	1.815843E-16	7.658170E-17
4.277905E+03	1.797674E-16	8.022227E-17
4.287808E+03	1.777735E-16	8.372280E-17
4.297711E+03	1.754589E-16	8.721160E-17
4.307613E+03	1.729708E-16	9.051946E-17
4.317516E+03	1.703079E-16	9.363106E-17
4.327418E+03	1.674768E-16	9.653515E-17
4.337321E+03	1.643298E-16	9.912211E-17
4.347223E+03	1.610280E-16	1.014699E-16
4.357126E+03	1.575831E-16	1.035723E-16
4.367028E+03	1.540077E-16	1.054246E-16
4.376931E+03	1.501586E-16	1.068128E-16
4.386834E+03	1.462075E-16	1.079417E-16
4.396736E+03	1.421705E-16	1.088138E-16
4.406639E+03	1.380599E-16	1.094301E-16
4.416541E+03	1.337272E-16	1.095248E-16
4.426444E+03	1.293515E-16	1.093721E-16
4.436346E+03	1.249417E-16	1.089744E-16
4.446249E+03	1.205120E-16	1.083403E-16
4.456151E+03	1.159113E-16	1.071833E-16
4.466054E+03	1.113135E-16	1.058056E-16
4.475957E+03	1.067261E-16	1.042133E-16
4.485859E+03	1.021572E-16	1.024138E-16
4.495762E+03	9.749711E-17	1.001595E-16
4.505664E+03	9.287077E-17	9.771897E-17
4.515567E+03	8.828529E-17	9.510099E-17
4.525469E+03	8.374375E-17	9.231069E-17
4.535372E+03	7.919860E-17	8.917911E-17
4.545274E+03	7.470776E-17	8.590062E-17
4.555177E+03	7.027384E-17	8.248105E-17
4.565080E+03	6.589808E-17	7.892487E-17
4.574982E+03	6.159142E-17	7.515279E-17
4.584885E+03	5.734739E-17	7.126862E-17
4.594787E+03	5.316651E-17	6.727642E-17
4.604690E+03	4.904888E-17	6.317976E-17
4.614592E+03	4.506243E-17	5.899869E-17
4.624495E+03	4.114011E-17	5.473637E-17
4.634398E+03	3.728080E-17	5.039476E-17
4.644300E+03	3.348329E-17	4.597559E-17
4.654203E+03	2.987218E-17	4.160678E-17
4.664105E+03	2.632165E-17	3.718205E-17
4.674008E+03	2.283024E-17	3.270251E-17
4.683910E+03	1.939649E-17	2.816913E-17
4.693813E+03	1.619980E-17	2.382189E-17
4.703715E+03	1.305829E-17	1.944065E-17
4.713618E+03	9.970566E-18	1.502608E-17
4.723521E+03	6.935298E-18	1.057881E-17
4.733423E+03	4.213253E-18	6.496871E-18
4.743326E+03	1.540091E-18	2.400508E-18
4.753228E+03	-1.085286E-18	-1.709727E-18
4.763131E+03	-3.663839E-18	-5.833125E-18
4.773033E+03	-5.882200E-18	-9.453336E-18
4.782936E+03	-8.057688E-18	-1.307077E-17
4.792838E+03	-1.019087E-17	-1.668452E-17
4.802741E+03	-1.228198E-17	-2.029309E-17
4.812644E+03	-1.404390E-17	-2.339205E-17
4.822546E+03	-1.576675E-17	-2.647260E-17
4.832449E+03	-1.745074E-17	-2.953360E-17
4.842351E+03	-1.909534E-17	-3.257256E-17
4.852254E+03	-2.044361E-17	-3.511149E-17
4.862156E+03	-2.175478E-17	-3.761781E-17
4.872059E+03	-2.302882E-17	-4.009017E-17
4.881961E+03	-2.426522E-17	-4.252637E-17
4.891864E+03	-2.523398E-17	-4.447670E-17
4.901767E+03	-2.616658E-17	-4.638223E-17
4.911669E+03	-2.706286E-17	-4.824161E-17
4.921572E+03	-2.792277E-17	-5.005361E-17
4.931474E+03	-2.854074E-17	-5.139885E-17
4.941377E+03	-2.912349E-17	-5.269052E-17
4.951279E+03	-2.967107E-17	-5.392780E-17
4.961182E+03	-3.018327E-17	-5.510941E-17
4.971085E+03	-3.047785E-17	-5.584986E-17
4.980987E+03	-3.073889E-17	-5.653233E-17
4.990890E+03	-3.096633E-17	-5.715606E-17
5.000792E+03	-3.116011E-17	-5.772028E-17
5.010695E+03	-3.115959E-17	-5.787491E-17
5.020597E+03	-3.112757E-17	-5.797067E-17
5.030500E+03	-3.106446E-17	-5.800787E-17
5.040402E+03	-3.096976E-17	-5.798512E-17
5.050305E+03	-3.070229E-17	-5.758775E-17
5.060208E+03	-3.040590E-17	-5.713406E-17
5.070110E+03	-3.008087E-17	-5.662434E-17
5.080013E+03	-2.972753E-17	-5.605889E-17
5.089915E+03	-2.922057E-17	-5.515484E-17
5.099818E+03	-2.868776E-17	-5.420006E-17
5.109720E+03	-2.812987E-17	-5.319588E-17
5.119623E+03	-2.754686E-17	-5.214210E-17
5.129525E+03	-2.682687E-17	-5.078542E-17
5.139428E+03	-2.608454E-17	-4.938610E-17
5.149331E+03	-2.532062E-17	-4.794555E-17
5.159233E+03	-2.453588E-17	-4.646521E-17
5.169136E+03	-2.362802E-17	-4.471584E-17
5.179038E+03	-2.270167E-17	-4.293390E-17
5.188941E+03	-2.175842E-17	-4.112241E-17
5.198843E+03	-2.079878E-17	-3.928243E-17
5.208746E+03	-1.972728E-17	-3.720493E-17
5.218648E+03	-1.864254E-17	-3.510847E-17
5.228551E+03	-1.754644E-17	-3.299663E-17
5.238454E+03	-1.644057E-17	-3.087252E-17
5.248356E+03	-1.523154E-17	-2.853935E-17
5.258259E+03	-1.401650E-17	-2.620509E-17
5.268161E+03	-1.279764E-17	-2.387379E-17
5.278064E+03	-1.157768E-17	-2.155057E-17
5.285204E+03	-1.457677E-17	-2.708118E-17
5.286195E+03	-1.456861E-17	-2.705884E-17
5.286393E+03	-1.459621E-17	-2.710866E-17
5.286789E+03	-1.461245E-17	-2.713595E-17
5.287779E+03	-1.459408E-17	-2.709436E-17
5.288968E+03	-1.456199E-17	-2.702582E-17
5.289166E+03	-1.458461E-17	-2.706631E-17
5.289364E+03	-1.460636E-17	-2.710519E-17
5.289958E+03	-1.460522E-17	-2.709852E-17
5.290156E+03	-1.462648E-17	-2.713645E-17
5.290354E+03	-1.464641E-17	-2.717191E-17
5.290552E+03	-1.466754E-17	-2.720959E-17
5.290949E+03	-1.467257E-17	-2.721582E-17
5.292732E+03	-1.457881E-17	-2.702805E-17
5.293128E+03	-1.458004E-17	-2.702725E-17
5.294910E+03	-1.447206E-17	-2.681334E-17
5.295108E+03	-1.448501E-17	-2.683576E-17
5.296297E+03	-1.441409E-17	-2.669502E-17
5.297683E+03	-1.432006E-17	-2.651004E-17
5.298277E+03	-1.429316E-17	-2.645561E-17
5.298475E+03	-1.430124E-17	-2.646901E-17
5.298673E+03	-1.430899E-17	-2.648178E-17
5.298871E+03	-1.431589E-17	-2.649299E-17
5.299069E+03	-1.432216E-17	-2.650301E-17
5.299267E+03	-1.432706E-17	-2.651052E-17
5.299465E+03	-1.433116E-17	-2.651652E-17
5.299663E+03	-1.433484E-17	-2.652176E-17
5.300059E+03	-1.431792E-17	-2.648729E-17
5.300456E+03	-1.429994E-17	-2.645086E-17
5.300852E+03	-1.428098E-17	-2.641262E-17
5.301248E+03	-1.426071E-17	-2.637198E-17
5.301446E+03	-1.426058E-17	-2.637015E-17
5.301645E+03	-1.425938E-17	-2.636633E-17
5.301843E+03	-1.425771E-17	-2.636165E-17
5.302041E+03	-1.425543E-17	-2.635584E-17
5.303229E+03	-1.414279E-17	-2.613809E-17
5.303823E+03	-1.409377E-17	-2.604272E-17
5.304021E+03	-1.408825E-17	-2.603092E-17
5.304219E+03	-1.408147E-17	-2.601682E-17
5.304616E+03	-1.405182E-17	-2.595885E-17
5.305012E+03	-1.402163E-17	-2.589988E-17
5.305408E+03	-1.398988E-17	-2.583804E-17
5.306596E+03	-1.385750E-17	-2.558405E-17
5.306794E+03	-1.384634E-17	-2.556188E-17
5.307389E+03	-1.378496E-17	-2.544378E-17
5.307785E+03	-1.374837E-17	-2.537305E-17
5.307983E+03	-1.373645E-17	-2.534947E-17
5.309370E+03	-1.356287E-17	-2.501816E-17
5.309963E+03	-1.349272E-17	-2.488402E-17
5.310161E+03	-1.347480E-17	-2.484940E-17
5.310755E+03	-1.340076E-17	-2.470816E-17
5.311349E+03	-1.332460E-17	-2.456304E-17
5.311547E+03	-1.330395E-17	-2.452341E-17
5.312142E+03	-1.322615E-17	-2.437529E-17
5.312341E+03	-1.320632E-17	-2.433717E-17
5.313529E+03	-1.303370E-17	-2.400980E-17
5.314123E+03	-1.294813E-17	-2.384751E-17
5.314321E+03	-1.292305E-17	-2.379977E-17
5.314519E+03	-1.289915E-17	-2.375420E-17
5.315311E+03	-1.278072E-17	-2.353000E-17
5.316104E+03	-1.265877E-17	-2.329934E-17
5.316302E+03	-1.263269E-17	-2.324982E-17
5.317292E+03	-1.247371E-17	-2.294968E-17
5.317490E+03	-1.244576E-17	-2.289674E-17
5.317689E+03	-1.241673E-17	-2.284182E-17
5.318085E+03	-1.235336E-17	-2.272222E-17
5.318679E+03	-1.225420E-17	-2.253534E-17
5.318877E+03	-1.222319E-17	-2.247681E-17
5.319471E+03	-1.212089E-17	-2.228422E-17
5.319669E+03	-1.208809E-17	-2.222241E-17
5.319868E+03	-1.205477E-17	-2.215969E-17
5.320462E+03	-1.194866E-17	-2.196021E-17
5.321452E+03	-1.176651E-17	-2.161814E-17
5.321847E+03	-1.169276E-17	-2.147974E-17
5.322045E+03	-1.165563E-17	-2.141008E-17
5.322243E+03	-1.161530E-17	-2.133455E-17
5.322441E+03	-1.157553E-17	-2.126005E-17
5.322639E+03	-1.153397E-17	-2.118229E-17
5.323234E+03	-1.141645E-17	-2.096216E-17
5.323432E+03	-1.137424E-17	-2.088323E-17
5.324027E+03	-1.125494E-17	-2.065995E-17
5.324225E+03	-1.121329E-17	-2.058209E-17
5.324423E+03	-1.116824E-17	-2.049798E-17
5.324621E+03	-1.112521E-17	-2.041761E-17
5.324819E+03	-1.107957E-17	-2.033244E-17
5.325215E+03	-1.099457E-17	-2.017365E-17
5.326205E+03	-1.078817E-17	-1.978807E-17
5.327393E+03	-1.053756E-17	-1.932034E-17
5.327988E+03	-1.040476E-17	-1.907283E-17
5.328385E+03	-1.031379E-17	-1.890341E-17
5.329573E+03	-1.005104E-17	-1.841405E-17
5.330167E+03	-9.914713E-18	-1.816046E-17
5.330365E+03	-9.863001E-18	-1.806445E-17
5.330959E+03	-9.724222E-18	-1.780647E-17
5.331554E+03	-9.585041E-18	-1.754786E-17
5.331752E+03	-9.532985E-18	-1.745132E-17
5.331950E+03	-9.478846E-18	-1.735096E-17
5.332544E+03	-9.334185E-18	-1.708248E-17
5.332742E+03	-9.278517E-18	-1.697938E-17
5.333534E+03	-9.087202E-18	-1.662450E-17
5.334128E+03	-8.940676E-18	-1.635288E-17
5.335316E+03	-8.649432E-18	-1.581329E-17
5.335713E+03	-8.544500E-18	-1.561918E-17
5.335911E+03	-8.486517E-18	-1.551206E-17
5.336109E+03	-8.427896E-18	-1.540378E-17
5.336307E+03	-8.369525E-18	-1.529598E-17
5.337297E+03	-8.118956E-18	-1.483260E-17
5.337495E+03	-8.058982E-18	-1.472195E-17
5.337693E+03	-7.998824E-18	-1.461098E-17
5.338089E+03	-7.890165E-18	-1.441037E-17
5.338287E+03	-7.829108E-18	-1.429780E-17
5.339080E+03	-7.620224E-18	-1.391220E-17
5.339278E+03	-7.559120E-18	-1.379962E-17
5.340071E+03	-7.345849E-18	-1.340628E-17
5.340269E+03	-7.283468E-18	-1.329145E-17
5.340665E+03	-7.170533E-18	-1.308340E-17
5.340863E+03	-7.107957E-18	-1.296825E-17
5.341061E+03	-7.044022E-18	-1.285064E-17
5.341853E+03	-6.827924E-18	-1.245267E-17
5.342051E+03	-6.765061E-18	-1.233709E-17
5.342249E+03	-6.701762E-18	-1.222073E-17
5.342447E+03	-6.637694E-18	-1.210299E-17
5.342645E+03	-6.572969E-18	-1.198407E-17
5.343240E+03	-6.404424E-18	-1.167412E-17
5.343438E+03	-6.339122E-18	-1.155421E-17
5.343834E+03	-6.221647E-18	-1.133837E-17
5.344032E+03	-6.155888E-18	-1.121768E-17
5.344230E+03	-6.090500E-18	-1.109768E-17
5.344627E+03	-5.972661E-18	-1.088130E-17
5.344824E+03	-5.907307E-18	-1.076141E-17
5.345023E+03	-5.841076E-18	-1.063994E-17
5.345221E+03	-5.775514E-18	-1.051971E-17
5.345418E+03	-5.709034E-18	-1.039783E-17
5.345814E+03	-5.590261E-18	-1.017995E-17
5.346210E+03	-5.471225E-18	-9.961651E-18
5.346606E+03	-5.351941E-18	-9.742970E-18
5.347201E+03	-5.177355E-18	-9.422957E-18
5.347399E+03	-5.110598E-18	-9.300739E-18
5.347993E+03	-4.935558E-18	-8.980101E-18
5.348191E+03	-4.868900E-18	-8.858134E-18
5.348785E+03	-4.692683E-18	-8.535539E-18
5.348983E+03	-4.625797E-18	-8.413223E-18
5.349181E+03	-4.558984E-18	-8.291060E-18
5.350172E+03	-4.271720E-18	-7.765603E-18
5.350370E+03	-4.204820E-18	-7.643384E-18
5.350568E+03	-4.137955E-18	-7.521248E-18
5.351163E+03	-3.959876E-18	-7.195870E-18
5.351757E+03	-3.781432E-18	-6.869981E-18
5.351955E+03	-3.713769E-18	-6.746517E-18
5.353341E+03	-3.307016E-18	-6.004265E-18
5.353539E+03	-3.240379E-18	-5.882811E-18
5.353737E+03	-3.173734E-18	-5.761362E-18
5.353935E+03	-3.106463E-18	-5.638793E-18
5.354133E+03	-3.039891E-18	-5.517511E-18
5.355125E+03	-2.744003E-18	-4.978470E-18
5.355323E+03	-2.677608E-18	-4.857620E-18
5.355719E+03	-2.553586E-18	-4.631879E-18
5.355917E+03	-2.487606E-18	-4.511835E-18
5.356511E+03	-2.306035E-18	-4.181504E-18
5.356709E+03	-2.240259E-18	-4.061907E-18
5.356907E+03	-2.174771E-18	-3.942850E-18
5.357105E+03	-2.109192E-18	-3.823646E-18
5.357303E+03	-2.044043E-18	-3.705239E-18
5.357500E+03	-1.979407E-18	-3.587785E-18
5.357698E+03	-1.914407E-18	-3.469687E-18
5.357896E+03	-1.849809E-18	-3.352336E-18
5.358490E+03	-1.670478E-18	-3.026603E-18
5.358689E+03	-1.606618E-18	-2.910664E-18
5.359085E+03	-1.485026E-18	-2.689939E-18
5.359283E+03	-1.421721E-18	-2.575058E-18
5.359877E+03	-1.242856E-18	-2.250541E-18
5.360472E+03	-1.063884E-18	-1.925987E-18
5.361066E+03	-8.849558E-19	-1.601671E-18
5.361264E+03	-8.231061E-19	-1.489607E-18
5.361462E+03	-7.615803E-19	-1.378148E-18
5.361858E+03	-6.421925E-19	-1.161914E-18
5.362056E+03	-5.811612E-19	-1.051403E-18
5.362254E+03	-5.205710E-19	-9.417080E-19
5.363245E+03	-2.271340E-19	-4.107123E-19
5.364433E+03	1.258664E-19	2.274828E-19
5.364631E+03	1.844000E-19	3.332448E-19
5.365027E+03	3.016288E-19	5.450072E-19
5.365820E+03	5.370644E-19	9.700849E-19
5.366018E+03	5.938092E-19	1.072491E-18
5.366216E+03	6.502053E-19	1.174250E-18
5.366811E+03	8.245547E-19	1.488743E-18
5.367009E+03	8.798483E-19	1.588442E-18
5.367207E+03	9.346955E-19	1.687318E-18
5.367405E+03	9.890952E-19	1.785368E-18
5.367801E+03	1.101906E-18	1.988658E-18
5.368989E+03	1.450856E-18	2.617086E-18
5.369780E+03	1.680619E-18	3.030507E-18
5.369978E+03	1.731565E-18	3.122104E-18
5.370177E+03	1.782165E-18	3.213063E-18
5.370375E+03	1.831613E-18	3.301930E-18
5.370573E+03	1.881062E-18	3.390783E-18
5.370771E+03	1.930028E-18	3.478748E-18
5.370970E+03	1.978585E-18	3.565960E-18
5.371366E+03	2.085257E-18	3.757565E-18
5.371564E+03	2.132108E-18	3.841658E-18
5.371762E+03	2.178359E-18	3.924654E-18
5.371960E+03	2.224018E-18	4.006571E-18
5.372356E+03	2.327099E-18	4.191544E-18
5.372752E+03	2.429346E-18	4.374953E-18
5.372950E+03	2.473010E-18	4.453199E-18
5.373148E+03	2.516168E-18	4.530521E-18
5.373346E+03	2.558711E-18	4.606722E-18
5.373742E+03	2.657876E-18	4.784426E-18
5.373940E+03	2.699123E-18	4.858250E-18
5.374138E+03	2.739856E-18	4.931136E-18
5.374733E+03	2.893393E-18	5.206102E-18
5.375327E+03	3.045826E-18	5.478939E-18
5.375525E+03	3.083220E-18	5.545716E-18
5.375921E+03	3.176490E-18	5.712472E-18
5.376516E+03	3.325599E-18	5.979043E-18
5.376912E+03	3.417338E-18	6.142896E-18
5.377308E+03	3.508007E-18	6.304762E-18
5.377506E+03	3.541495E-18	6.364383E-18
5.378497E+03	3.798014E-18	6.822344E-18
5.379091E+03	3.940341E-18	7.076120E-18
5.379289E+03	3.969017E-18	7.126980E-18
5.380081E+03	4.164951E-18	7.476135E-18
5.380279E+03	4.191291E-18	7.522742E-18
5.380477E+03	4.216940E-18	7.568102E-18
5.380675E+03	4.242001E-18	7.612394E-18
5.381467E+03	4.431778E-18	7.950094E-18
