#wls	flux	fluxerr
1.584409E+03	-1.184587E-18	-7.001974E-19
1.624020E+03	4.603997E-20	2.697962E-20
1.663630E+03	-1.058945E-18	-6.151883E-19
1.703240E+03	-4.910330E-18	-2.827907E-18
1.742850E+03	-1.189606E-17	-6.791460E-18
1.782461E+03	-2.164771E-17	-1.224750E-17
1.822071E+03	-3.468639E-17	-1.944699E-17
1.861681E+03	-5.107301E-17	-2.837426E-17
1.901291E+03	-7.067478E-17	-3.890623E-17
1.940902E+03	-9.122704E-17	-4.974637E-17
1.980512E+03	-1.135508E-16	-6.133224E-17
2.020122E+03	-1.371267E-16	-7.335995E-17
2.059732E+03	-1.618489E-16	-8.575547E-17
2.099342E+03	-1.851787E-16	-9.714322E-17
2.138953E+03	-2.116455E-16	-1.099189E-16
2.178563E+03	-2.431884E-16	-1.250315E-16
2.218173E+03	-2.809243E-16	-1.429718E-16
2.257783E+03	-3.191277E-16	-1.607158E-16
2.297394E+03	-3.607000E-16	-1.797376E-16
2.337004E+03	-4.036975E-16	-1.990274E-16
2.376614E+03	-4.462536E-16	-2.176541E-16
2.416224E+03	-4.784651E-16	-2.307853E-16
2.455835E+03	-5.068516E-16	-2.417517E-16
2.495445E+03	-5.307461E-16	-2.503018E-16
2.535055E+03	-5.496771E-16	-2.562889E-16
2.574665E+03	-5.530730E-16	-2.548549E-16
2.614276E+03	-5.512664E-16	-2.510209E-16
2.653886E+03	-5.445105E-16	-2.449857E-16
2.693496E+03	-5.330838E-16	-2.369536E-16
2.733106E+03	-5.068090E-16	-2.224809E-16
2.772716E+03	-4.777956E-16	-2.071145E-16
2.812327E+03	-4.467499E-16	-1.912011E-16
2.851937E+03	-4.143912E-16	-1.750775E-16
2.891547E+03	-3.732047E-16	-1.556051E-16
2.931157E+03	-3.335242E-16	-1.372109E-16
2.970768E+03	-2.959263E-16	-1.201034E-16
2.980670E+03	-2.869048E-16	-1.160448E-16
2.990573E+03	-2.770298E-16	-1.116652E-16
3.000475E+03	-2.673754E-16	-1.074017E-16
3.010378E+03	-2.579555E-16	-1.032590E-16
3.020280E+03	-2.487655E-16	-9.923429E-17
3.030183E+03	-2.393551E-16	-9.514707E-17
3.040086E+03	-2.302065E-16	-9.118974E-17
3.049988E+03	-2.213370E-16	-8.736809E-17
3.059891E+03	-2.127431E-16	-8.367958E-17
3.069793E+03	-2.040147E-16	-7.996200E-17
3.079696E+03	-1.955787E-16	-7.638299E-17
3.089598E+03	-1.874320E-16	-7.294006E-17
3.099501E+03	-1.795680E-16	-6.962945E-17
3.109403E+03	-1.716061E-16	-6.630285E-17
3.119306E+03	-1.639388E-16	-6.311183E-17
3.129209E+03	-1.565621E-16	-6.005368E-17
3.139111E+03	-1.494662E-16	-5.712340E-17
3.149014E+03	-1.423091E-16	-5.418963E-17
3.158916E+03	-1.354438E-16	-5.138652E-17
3.168819E+03	-1.288621E-16	-4.870975E-17
3.178721E+03	-1.225579E-16	-4.615583E-17
3.188624E+03	-1.162143E-16	-4.360481E-17
3.198526E+03	-1.101536E-16	-4.117720E-17
3.208429E+03	-1.043604E-16	-3.886611E-17
3.218332E+03	-9.883068E-17	-3.666889E-17
3.228234E+03	-9.327810E-17	-3.447882E-17
3.238137E+03	-8.798662E-17	-3.240034E-17
3.248039E+03	-8.294579E-17	-3.042853E-17
3.257942E+03	-7.814401E-17	-2.855812E-17
3.267844E+03	-7.332817E-17	-2.669615E-17
3.277747E+03	-6.874769E-17	-2.493292E-17
3.287650E+03	-6.439187E-17	-2.326359E-17
3.297552E+03	-6.025207E-17	-2.168409E-17
3.307455E+03	-5.609537E-17	-2.011027E-17
3.317357E+03	-5.214690E-17	-1.862233E-17
3.327260E+03	-4.839599E-17	-1.721561E-17
3.337162E+03	-4.483286E-17	-1.588583E-17
3.347065E+03	-4.124745E-17	-1.455828E-17
3.356967E+03	-3.784160E-17	-1.330377E-17
3.366870E+03	-3.460563E-17	-1.211817E-17
3.376773E+03	-3.152912E-17	-1.099714E-17
3.386675E+03	-2.842305E-17	-9.874528E-18
3.396578E+03	-2.546840E-17	-8.812877E-18
3.406480E+03	-2.265615E-17	-7.808454E-18
3.416383E+03	-1.997726E-17	-6.857569E-18
3.426285E+03	-1.725969E-17	-5.900979E-18
3.436188E+03	-1.466808E-17	-4.994749E-18
3.446090E+03	-1.219384E-17	-4.135445E-18
3.455993E+03	-9.829098E-18	-3.319931E-18
3.465896E+03	-7.417381E-18	-2.495185E-18
3.475798E+03	-5.108701E-18	-1.711558E-18
3.485701E+03	-2.895477E-18	-9.660998E-19
3.495603E+03	-7.706744E-19	-2.560857E-19
3.505506E+03	1.406541E-18	4.654623E-19
3.515408E+03	3.500638E-18	1.153689E-18
3.525311E+03	5.518023E-18	1.811032E-18
3.535213E+03	7.464575E-18	2.439723E-18
3.545116E+03	9.459417E-18	3.078928E-18
3.555019E+03	1.138793E-17	3.691230E-18
3.564921E+03	1.325538E-17	4.278595E-18
3.574824E+03	1.506678E-17	4.842878E-18
3.584726E+03	1.691951E-17	5.415695E-18
3.594629E+03	1.871944E-17	5.966695E-18
3.604531E+03	2.047096E-17	6.497477E-18
3.614434E+03	2.217775E-17	7.009399E-18
3.624337E+03	2.391801E-17	7.527604E-18
3.634239E+03	2.561580E-17	8.027849E-18
3.644142E+03	2.727467E-17	8.511401E-18
3.654044E+03	2.889816E-17	8.979514E-18
3.663947E+03	3.054589E-17	9.451291E-18
3.673849E+03	3.215924E-17	9.908104E-18
3.683752E+03	3.374167E-17	1.035114E-17
3.693654E+03	3.529547E-17	1.078123E-17
3.703557E+03	3.686417E-17	1.121241E-17
3.713460E+03	3.840551E-17	1.163117E-17
3.723362E+03	3.992127E-17	1.203817E-17
3.733265E+03	4.141374E-17	1.243417E-17
3.743167E+03	4.291143E-17	1.282870E-17
3.753070E+03	4.438611E-17	1.321247E-17
3.762972E+03	4.583964E-17	1.358613E-17
3.772875E+03	4.727373E-17	1.395026E-17
3.782777E+03	4.870168E-17	1.430996E-17
3.792680E+03	5.010995E-17	1.466023E-17
3.802583E+03	5.149941E-17	1.500139E-17
3.812485E+03	5.287165E-17	1.533396E-17
3.822388E+03	5.422702E-17	1.565950E-17
3.832290E+03	5.556366E-17	1.597620E-17
3.842193E+03	5.688240E-17	1.628437E-17
3.852095E+03	5.818480E-17	1.658452E-17
3.861998E+03	5.945805E-17	1.687473E-17
3.871900E+03	6.071216E-17	1.715634E-17
3.881803E+03	6.194843E-17	1.742977E-17
3.891706E+03	6.316752E-17	1.769528E-17
3.901608E+03	6.434341E-17	1.794762E-17
3.911511E+03	6.549893E-17	1.819141E-17
3.921413E+03	6.663446E-17	1.842679E-17
3.931316E+03	6.774963E-17	1.865376E-17
3.941218E+03	6.880732E-17	1.886447E-17
3.951121E+03	6.984179E-17	1.906627E-17
3.961024E+03	7.085180E-17	1.925889E-17
3.970926E+03	7.183661E-17	1.944222E-17
3.980829E+03	7.274987E-17	1.960647E-17
3.990731E+03	7.363390E-17	1.976068E-17
4.000634E+03	7.448893E-17	1.990501E-17
4.010536E+03	7.531273E-17	2.003896E-17
4.020439E+03	7.604953E-17	2.015082E-17
4.030341E+03	7.675160E-17	2.025176E-17
4.040244E+03	7.741780E-17	2.034161E-17
4.050147E+03	7.804819E-17	2.042048E-17
4.060049E+03	7.857508E-17	2.047415E-17
4.069952E+03	7.906246E-17	2.051631E-17
4.079854E+03	7.950800E-17	2.054648E-17
4.089757E+03	7.991138E-17	2.056472E-17
4.099659E+03	8.019882E-17	2.055584E-17
4.109562E+03	8.044037E-17	2.053453E-17
4.119464E+03	8.063589E-17	2.050088E-17
4.129367E+03	8.078468E-17	2.045486E-17
4.139270E+03	8.080510E-17	2.037989E-17
4.149172E+03	8.077686E-17	2.029252E-17
4.159075E+03	8.069814E-17	2.019245E-17
4.168977E+03	8.056975E-17	2.008002E-17
4.178880E+03	8.030444E-17	1.993777E-17
4.188782E+03	7.998744E-17	1.978310E-17
4.198685E+03	7.961848E-17	1.961610E-17
4.208587E+03	7.919612E-17	1.943657E-17
4.218490E+03	7.863199E-17	1.922694E-17
4.228393E+03	7.801471E-17	1.900526E-17
4.238295E+03	7.734365E-17	1.877152E-17
4.248198E+03	7.661823E-17	1.852573E-17
4.258100E+03	7.574807E-17	1.824984E-17
4.268003E+03	7.482502E-17	1.796264E-17
4.277905E+03	7.384758E-17	1.766390E-17
4.287808E+03	7.281719E-17	1.735412E-17
4.297711E+03	7.164659E-17	1.701594E-17
4.307613E+03	7.042494E-17	1.666749E-17
4.317516E+03	6.915167E-17	1.630878E-17
4.327418E+03	6.782807E-17	1.594024E-17
4.337321E+03	6.638124E-17	1.554775E-17
4.347223E+03	6.488915E-17	1.514688E-17
4.357126E+03	6.335352E-17	1.473813E-17
4.367028E+03	6.177674E-17	1.432218E-17
4.376931E+03	6.010147E-17	1.388822E-17
4.386834E+03	5.839247E-17	1.344893E-17
4.396736E+03	5.665220E-17	1.300496E-17
4.406639E+03	5.488211E-17	1.255673E-17
4.416541E+03	5.304296E-17	1.209721E-17
4.426444E+03	5.118208E-17	1.163535E-17
4.436346E+03	4.930158E-17	1.117168E-17
4.446249E+03	4.740366E-17	1.070675E-17
4.456151E+03	4.546729E-17	1.023727E-17
4.466054E+03	4.352173E-17	9.768395E-18
4.475957E+03	4.156945E-17	9.300698E-18
4.485859E+03	3.961227E-17	8.834614E-18
4.495762E+03	3.764892E-17	8.370881E-18
4.505664E+03	3.568956E-17	7.910670E-18
4.515567E+03	3.373710E-17	7.454621E-18
4.525469E+03	3.179421E-17	7.003321E-18
4.535372E+03	2.987575E-17	6.560708E-18
4.545274E+03	2.797618E-17	6.124755E-18
4.555177E+03	2.609821E-17	5.696025E-18
4.565080E+03	2.424561E-17	5.275303E-18
4.574982E+03	2.244653E-17	4.869093E-18
4.584885E+03	2.068137E-17	4.472549E-18
4.594787E+03	1.895364E-17	4.086373E-18
4.604690E+03	1.726661E-17	3.711200E-18
4.614592E+03	1.566039E-17	3.355807E-18
4.624495E+03	1.410280E-17	3.012862E-18
4.634398E+03	1.259669E-17	2.682886E-18
4.644300E+03	1.114481E-17	2.366370E-18
4.654203E+03	9.796798E-18	2.073854E-18
4.664105E+03	8.508685E-18	1.795696E-18
4.674008E+03	7.282708E-18	1.532258E-18
4.683910E+03	6.120733E-18	1.283817E-18
4.693813E+03	5.077938E-18	1.061849E-18
4.703715E+03	4.101631E-18	8.550660E-19
4.713618E+03	3.192785E-18	6.635486E-19
4.723521E+03	2.352278E-18	4.873531E-19
4.733423E+03	1.636442E-18	3.380010E-19
4.743326E+03	9.870782E-19	2.032467E-19
4.753228E+03	4.039953E-19	8.292679E-20
4.763131E+03	-1.133249E-19	-2.318902E-20
4.773033E+03	-5.126319E-19	-1.045702E-19
4.782936E+03	-8.516476E-19	-1.731807E-19
4.792838E+03	-1.131697E-18	-2.294028E-19
4.802741E+03	-1.354301E-18	-2.736557E-19
4.812644E+03	-1.477190E-18	-2.975441E-19
4.822546E+03	-1.550203E-18	-3.112580E-19
4.832449E+03	-1.575410E-18	-3.153073E-19
4.842351E+03	-1.555009E-18	-3.102227E-19
4.852254E+03	-1.455933E-18	-2.895247E-19
4.862156E+03	-1.319808E-18	-2.616071E-19
4.872059E+03	-1.149025E-18	-2.270150E-19
4.881961E+03	-9.460423E-19	-1.863001E-19
4.891864E+03	-6.851740E-19	-1.344882E-19
4.901767E+03	-4.007658E-19	-7.840540E-20
4.911669E+03	-9.514989E-20	-1.855354E-20
4.921572E+03	2.293447E-19	4.457191E-20
4.931474E+03	5.912201E-19	1.145199E-19
4.941377E+03	9.639192E-19	1.860897E-19
4.951279E+03	1.345453E-18	2.588757E-19
4.961182E+03	1.733925E-18	3.324947E-19
4.971085E+03	2.138178E-18	4.086373E-19
4.980987E+03	2.542527E-18	4.842732E-19
4.990890E+03	2.945531E-18	5.591261E-19
5.000792E+03	3.345893E-18	6.329511E-19
5.010695E+03	3.743836E-18	7.058302E-19
5.020597E+03	4.133993E-18	7.767284E-19
5.030500E+03	4.515615E-18	8.455181E-19
5.040402E+03	4.888024E-18	9.120873E-19
5.050305E+03	5.244684E-18	9.753039E-19
5.060208E+03	5.588841E-18	1.035740E-18
5.070110E+03	5.920416E-18	1.093402E-18
5.080013E+03	6.239188E-18	1.148273E-18
5.089915E+03	6.533803E-18	1.198401E-18
5.099818E+03	6.814150E-18	1.245541E-18
5.109720E+03	7.080507E-18	1.289767E-18
5.119623E+03	7.333135E-18	1.331153E-18
5.129525E+03	7.557636E-18	1.367280E-18
5.139428E+03	7.768256E-18	1.400617E-18
5.149331E+03	7.965660E-18	1.431307E-18
5.159233E+03	8.150323E-18	1.459458E-18
5.169136E+03	8.306242E-18	1.482464E-18
5.179038E+03	8.450281E-18	1.503159E-18
5.188941E+03	8.583293E-18	1.521714E-18
5.198843E+03	8.705867E-18	1.538252E-18
5.208746E+03	8.801371E-18	1.550161E-18
5.218648E+03	8.887935E-18	1.560379E-18
5.228551E+03	8.966169E-18	1.569027E-18
5.238454E+03	9.036835E-18	1.576254E-18
5.248356E+03	9.083644E-18	1.579614E-18
5.258259E+03	9.124507E-18	1.581880E-18
5.268161E+03	9.160060E-18	1.583174E-18
5.278064E+03	9.191002E-18	1.583622E-18
5.285209E+03	6.042986E-17	1.039009E-17
5.285407E+03	6.032145E-17	1.037084E-17
5.285605E+03	6.021026E-17	1.035111E-17
5.285803E+03	6.009632E-17	1.033091E-17
5.286001E+03	5.997931E-17	1.031020E-17
5.286199E+03	5.986412E-17	1.028980E-17
5.286397E+03	5.974614E-17	1.026892E-17
5.286595E+03	5.962535E-17	1.024756E-17
5.286992E+03	5.951503E-17	1.022741E-17
5.287190E+03	5.939499E-17	1.020619E-17
5.287586E+03	5.927983E-17	1.018521E-17
5.288576E+03	5.918013E-17	1.016513E-17
5.288774E+03	5.905509E-17	1.014306E-17
5.288973E+03	5.892995E-17	1.012098E-17
5.289369E+03	5.880576E-17	1.009848E-17
5.289567E+03	5.868235E-17	1.007671E-17
5.289765E+03	5.854968E-17	1.005334E-17
5.290755E+03	5.843996E-17	1.003161E-17
5.290953E+03	5.831254E-17	1.000916E-17
5.291349E+03	5.818291E-17	9.985749E-18
5.291943E+03	5.805967E-17	9.962880E-18
5.292340E+03	5.793035E-17	9.939543E-18
5.293331E+03	5.781155E-17	9.916308E-18
5.294123E+03	5.768926E-17	9.893054E-18
5.294321E+03	5.754998E-17	9.868604E-18
5.294519E+03	5.741246E-17	9.844458E-18
5.294717E+03	5.727399E-17	9.820152E-18
5.294915E+03	5.713088E-17	9.795053E-18
5.295311E+03	5.698926E-17	9.769656E-18
5.295707E+03	5.684745E-17	9.744232E-18
5.295905E+03	5.670410E-17	9.719104E-18
5.296103E+03	5.656073E-17	9.693976E-18
5.296697E+03	5.641869E-17	9.667984E-18
5.297094E+03	5.627544E-17	9.642335E-18
5.297490E+03	5.612911E-17	9.616166E-18
5.298282E+03	5.598938E-17	9.590043E-18
5.298678E+03	5.583983E-17	9.563344E-18
5.299272E+03	5.569363E-17	9.536683E-18
5.300064E+03	5.554779E-17	9.509556E-18
5.300460E+03	5.539855E-17	9.482931E-18
5.300659E+03	5.524583E-17	9.456253E-18
5.301055E+03	5.509169E-17	9.428805E-18
5.301253E+03	5.493518E-17	9.401488E-18
5.301451E+03	5.478135E-17	9.374633E-18
5.301649E+03	5.462380E-17	9.347145E-18
5.302045E+03	5.446556E-17	9.319018E-18
5.302441E+03	5.430988E-17	9.291335E-18
5.302640E+03	5.415310E-17	9.263988E-18
5.302838E+03	5.399255E-17	9.236004E-18
5.303036E+03	5.383194E-17	9.208012E-18
5.303234E+03	5.366578E-17	9.179075E-18
5.303828E+03	5.350496E-17	9.150027E-18
5.304224E+03	5.334397E-17	9.121474E-18
5.304422E+03	5.317482E-17	9.092041E-18
5.304621E+03	5.300750E-17	9.062924E-18
5.304819E+03	5.284378E-17	9.034427E-18
5.305017E+03	5.267541E-17	9.005137E-18
5.305611E+03	5.250616E-17	8.974699E-18
5.305809E+03	5.233678E-17	8.945247E-18
5.306007E+03	5.216545E-17	8.915466E-18
5.306403E+03	5.199260E-17	8.884934E-18
5.306601E+03	5.182117E-17	8.855145E-18
5.306799E+03	5.164697E-17	8.824887E-18
5.306997E+03	5.146997E-17	8.794152E-18
5.307195E+03	5.129286E-17	8.763406E-18
5.308186E+03	5.112249E-17	8.731872E-18
5.308583E+03	5.094703E-17	8.700937E-18
5.309176E+03	5.077135E-17	8.669492E-18
5.309374E+03	5.059200E-17	8.638390E-18
5.311156E+03	5.041744E-17	8.604308E-18
5.311354E+03	5.023690E-17	8.573025E-18
5.311552E+03	5.005455E-17	8.541435E-18
5.311750E+03	4.987206E-17	8.509826E-18
5.311948E+03	4.968774E-17	8.477909E-18
5.312146E+03	4.950247E-17	8.445834E-18
5.312345E+03	4.931717E-17	8.413757E-18
5.312741E+03	4.913017E-17	8.380935E-18
5.313534E+03	4.894335E-17	8.347235E-18
5.314128E+03	4.875523E-17	8.313785E-18
5.314326E+03	4.856689E-17	8.281214E-18
5.314524E+03	4.837753E-17	8.248478E-18
5.314920E+03	4.818805E-17	8.215275E-18
5.315316E+03	4.799757E-17	8.181909E-18
5.316307E+03	4.780632E-17	8.147087E-18
5.316703E+03	4.761447E-17	8.113514E-18
5.317891E+03	4.742073E-17	8.077873E-18
5.318287E+03	4.722767E-17	8.044115E-18
5.318485E+03	4.703511E-17	8.010881E-18
5.318684E+03	4.684149E-17	7.977474E-18
5.319674E+03	4.664869E-17	7.942502E-18
5.321456E+03	4.645081E-17	7.904982E-18
5.321654E+03	4.625514E-17	7.871261E-18
5.321852E+03	4.605936E-17	7.837525E-18
5.322446E+03	4.586600E-17	7.803375E-18
5.324032E+03	4.566097E-17	7.765172E-18
5.324230E+03	4.546504E-17	7.731439E-18
5.324428E+03	4.527270E-17	7.698323E-18
5.324824E+03	4.507718E-17	7.664263E-18
5.325814E+03	4.487091E-17	7.627169E-18
5.326012E+03	4.467300E-17	7.593125E-18
5.326210E+03	4.447963E-17	7.559858E-18
5.326408E+03	4.427986E-17	7.525507E-18
5.326606E+03	4.408101E-17	7.491315E-18
5.326804E+03	4.388214E-17	7.457125E-18
5.327795E+03	4.367481E-17	7.419940E-18
5.327993E+03	4.347953E-17	7.386377E-18
5.328587E+03	4.327996E-17	7.351312E-18
5.329380E+03	4.307300E-17	7.314617E-18
5.329578E+03	4.287113E-17	7.279958E-18
5.331955E+03	4.264622E-17	7.237240E-18
5.332153E+03	4.244340E-17	7.202445E-18
5.333142E+03	4.223125E-17	7.164579E-18
5.333340E+03	4.203016E-17	7.130095E-18
5.333538E+03	4.182365E-17	7.094694E-18
5.333737E+03	4.161721E-17	7.059308E-18
5.333934E+03	4.141155E-17	7.024062E-18
5.334727E+03	4.119738E-17	6.986293E-18
5.335321E+03	4.098913E-17	6.949903E-18
5.335519E+03	4.078352E-17	6.914684E-18
5.335718E+03	4.057516E-17	6.879003E-18
5.335916E+03	4.036492E-17	6.843009E-18
5.336114E+03	4.015656E-17	6.807338E-18
5.337302E+03	3.993654E-17	6.767958E-18
5.337500E+03	3.973276E-17	6.733079E-18
5.337698E+03	3.952434E-17	6.697420E-18
5.337896E+03	3.931600E-17	6.661777E-18
5.339878E+03	3.908459E-17	6.619196E-18
5.340076E+03	3.887350E-17	6.583111E-18
5.340274E+03	3.866144E-17	6.546869E-18
5.340472E+03	3.844948E-17	6.510646E-18
5.340868E+03	3.823500E-17	6.473674E-18
5.341660E+03	3.801356E-17	6.434879E-18
5.342452E+03	3.779361E-17	6.396361E-18
5.342650E+03	3.758719E-17	6.361106E-18
5.343244E+03	3.737186E-17	6.323710E-18
5.343443E+03	3.715816E-17	6.287233E-18
5.343641E+03	3.694717E-17	6.251222E-18
5.344235E+03	3.673001E-17	6.213547E-18
5.344433E+03	3.651910E-17	6.177558E-18
5.344631E+03	3.630546E-17	6.141112E-18
5.344829E+03	3.609638E-17	6.105442E-18
5.345424E+03	3.587835E-17	6.067655E-18
5.345621E+03	3.566472E-17	6.031227E-18
5.345819E+03	3.544934E-17	5.994506E-18
5.346017E+03	3.523670E-17	5.958253E-18
5.346215E+03	3.502595E-17	5.922322E-18
5.346611E+03	3.481256E-17	5.885659E-18
5.347007E+03	3.460101E-17	5.849311E-18
5.347800E+03	3.438028E-17	5.810850E-18
5.347998E+03	3.416964E-17	5.774963E-18
5.348196E+03	3.395446E-17	5.738312E-18
5.348790E+03	3.373757E-17	5.700814E-18
5.348988E+03	3.352697E-17	5.664948E-18
5.349186E+03	3.331551E-17	5.628942E-18
5.349384E+03	3.310225E-17	5.592636E-18
5.349582E+03	3.288811E-17	5.556182E-18
5.349780E+03	3.267396E-17	5.519734E-18
5.350573E+03	3.245095E-17	5.480986E-18
5.350771E+03	3.223508E-17	5.444260E-18
5.351168E+03	3.202203E-17	5.407747E-18
5.351366E+03	3.180891E-17	5.371495E-18
5.351960E+03	3.158782E-17	5.333381E-18
5.352158E+03	3.137392E-17	5.297008E-18
5.352356E+03	3.115912E-17	5.260486E-18
5.352554E+03	3.094795E-17	5.224583E-18
5.352752E+03	3.073507E-17	5.188393E-18
5.354336E+03	3.050374E-17	5.147349E-18
5.354534E+03	3.029369E-17	5.111656E-18
5.355129E+03	3.007455E-17	5.073948E-18
5.355327E+03	2.986279E-17	5.037979E-18
5.355525E+03	2.965379E-17	5.002478E-18
5.355724E+03	2.944025E-17	4.966216E-18
5.356516E+03	2.922059E-17	4.928218E-18
5.356714E+03	2.900898E-17	4.892295E-18
5.356911E+03	2.879554E-17	4.856068E-18
5.357110E+03	2.858040E-17	4.819555E-18
5.357308E+03	2.836703E-17	4.783345E-18
5.357506E+03	2.815646E-17	4.747613E-18
5.358495E+03	2.793654E-17	4.709411E-18
5.358693E+03	2.772606E-17	4.673707E-18
5.358892E+03	2.751105E-17	4.637244E-18
5.359090E+03	2.729794E-17	4.601104E-18
5.359486E+03	2.708961E-17	4.565557E-18
5.359684E+03	2.688201E-17	4.530355E-18
5.359882E+03	2.666989E-17	4.494394E-18
5.360278E+03	2.645452E-17	4.457679E-18
5.360476E+03	2.624525E-17	4.422209E-18
5.360674E+03	2.603512E-17	4.386596E-18
5.362061E+03	2.581281E-17	4.347712E-18
5.362655E+03	2.559980E-17	4.311229E-18
5.362854E+03	2.538807E-17	4.275372E-18
5.363250E+03	2.517758E-17	4.239527E-18
5.363448E+03	2.496680E-17	4.203839E-18
5.364636E+03	2.474782E-17	4.165809E-18
5.364834E+03	2.454176E-17	4.130930E-18
5.365230E+03	2.433605E-17	4.095925E-18
5.365428E+03	2.413093E-17	4.061214E-18
5.365626E+03	2.392413E-17	4.026224E-18
5.366221E+03	2.371363E-17	3.990247E-18
5.367014E+03	2.350176E-17	3.953866E-18
5.367212E+03	2.329237E-17	3.918461E-18
5.367410E+03	2.308489E-17	3.883377E-18
5.367608E+03	2.288286E-17	3.849215E-18
5.367806E+03	2.267905E-17	3.814757E-18
5.368004E+03	2.247256E-17	3.779851E-18
5.368202E+03	2.226613E-17	3.744960E-18
5.368598E+03	2.206117E-17	3.710148E-18
5.368796E+03	2.186114E-17	3.676341E-18
5.368994E+03	2.165481E-17	3.641477E-18
5.369588E+03	2.144887E-17	3.606354E-18
5.369983E+03	2.124415E-17	3.571611E-18
5.370578E+03	2.103561E-17	3.536068E-18
5.370776E+03	2.083132E-17	3.501570E-18
5.371569E+03	2.062819E-17	3.466799E-18
5.371767E+03	2.043038E-17	3.433401E-18
5.371965E+03	2.023352E-17	3.400164E-18
5.372163E+03	2.003667E-17	3.366933E-18
5.372361E+03	1.983991E-17	3.333722E-18
5.372955E+03	1.964108E-17	3.299867E-18
5.373153E+03	1.944531E-17	3.266830E-18
5.373549E+03	1.924941E-17	3.233629E-18
5.373747E+03	1.905557E-17	3.200926E-18
5.373945E+03	1.886267E-17	3.168381E-18
5.374341E+03	1.866794E-17	3.135392E-18
5.375134E+03	1.847037E-17	3.101659E-18
5.375332E+03	1.827856E-17	3.069313E-18
5.375530E+03	1.808858E-17	3.037277E-18
5.375926E+03	1.789414E-17	3.004362E-18
5.376124E+03	1.770242E-17	2.972042E-18
5.376322E+03	1.751077E-17	2.939736E-18
5.376520E+03	1.732006E-17	2.907591E-18
5.376718E+03	1.712848E-17	2.875303E-18
5.376917E+03	1.693691E-17	2.843019E-18
5.377313E+03	1.674465E-17	2.810500E-18
5.377511E+03	1.655411E-17	2.778396E-18
5.377709E+03	1.636270E-17	2.746151E-18
5.377907E+03	1.617220E-17	2.714061E-18
5.378105E+03	1.598181E-17	2.681991E-18
