#wls	flux	fluxerr
1.584409E+03	1.336086E-16	2.972596E-17
1.624020E+03	1.392243E-16	3.092981E-17
1.663630E+03	1.445536E-16	3.206536E-17
1.703240E+03	1.495754E-16	3.312807E-17
1.742850E+03	1.541914E-16	3.409640E-17
1.782461E+03	1.582709E-16	3.494177E-17
1.822071E+03	1.616470E-16	3.562788E-17
1.861681E+03	1.640919E-16	3.610527E-17
1.901291E+03	1.653736E-16	3.632392E-17
1.940902E+03	1.652861E-16	3.623996E-17
1.980512E+03	1.637225E-16	3.583158E-17
2.020122E+03	1.608927E-16	3.514642E-17
2.059732E+03	1.573979E-16	3.431719E-17
2.099342E+03	1.543092E-16	3.357783E-17
2.138953E+03	1.528504E-16	3.319364E-17
2.178563E+03	1.537734E-16	3.332552E-17
2.218173E+03	1.569524E-16	3.394297E-17
2.257783E+03	1.615841E-16	3.486945E-17
2.297394E+03	1.665661E-16	3.586543E-17
2.337004E+03	1.710071E-16	3.673874E-17
2.376614E+03	1.743435E-16	3.736920E-17
2.416224E+03	1.763115E-16	3.770191E-17
2.455835E+03	1.768617E-16	3.772836E-17
2.495445E+03	1.760327E-16	3.745887E-17
2.535055E+03	1.739503E-16	3.692236E-17
2.574665E+03	1.707282E-16	3.614494E-17
2.614276E+03	1.664954E-16	3.515582E-17
2.653886E+03	1.613703E-16	3.398176E-17
2.693496E+03	1.554773E-16	3.265053E-17
2.733106E+03	1.489300E-16	3.118744E-17
2.772716E+03	1.418389E-16	2.961696E-17
2.812327E+03	1.343248E-16	2.796542E-17
2.851937E+03	1.265035E-16	2.625791E-17
2.891547E+03	1.184985E-16	2.452078E-17
2.931157E+03	1.104321E-16	2.277992E-17
2.970768E+03	1.024222E-16	2.105995E-17
2.980670E+03	1.004410E-16	2.063581E-17
2.990573E+03	9.847214E-17	2.021478E-17
3.000475E+03	9.651664E-17	1.979708E-17
3.010378E+03	9.457782E-17	1.938339E-17
3.020280E+03	9.265466E-17	1.897349E-17
3.030183E+03	9.074842E-17	1.856765E-17
3.040086E+03	8.886503E-17	1.816706E-17
3.049988E+03	8.700516E-17	1.777185E-17
3.059891E+03	8.517654E-17	1.738360E-17
3.069793E+03	8.337666E-17	1.700178E-17
3.079696E+03	8.160513E-17	1.662631E-17
3.089598E+03	7.986476E-17	1.625773E-17
3.099501E+03	7.815210E-17	1.589534E-17
3.109403E+03	7.646878E-17	1.553946E-17
3.119306E+03	7.481484E-17	1.519009E-17
3.129209E+03	7.319186E-17	1.484753E-17
3.139111E+03	7.159858E-17	1.451151E-17
3.149014E+03	7.003672E-17	1.418237E-17
3.158916E+03	6.850656E-17	1.386016E-17
3.168819E+03	6.700726E-17	1.354468E-17
3.178721E+03	6.554046E-17	1.323627E-17
3.188624E+03	6.410775E-17	1.293522E-17
3.198526E+03	6.270724E-17	1.264113E-17
3.208429E+03	6.134154E-17	1.235453E-17
3.218332E+03	6.000893E-17	1.207504E-17
3.228234E+03	5.871279E-17	1.180334E-17
3.238137E+03	5.745045E-17	1.153886E-17
3.248039E+03	5.622319E-17	1.128184E-17
3.257942E+03	5.503213E-17	1.103251E-17
3.267844E+03	5.387649E-17	1.079067E-17
3.277747E+03	5.275725E-17	1.055652E-17
3.287650E+03	5.167281E-17	1.032971E-17
3.297552E+03	5.062401E-17	1.011039E-17
3.307455E+03	4.961082E-17	9.898535E-18
3.317357E+03	4.863314E-17	9.694114E-18
3.327260E+03	4.769082E-17	9.497075E-18
3.337162E+03	4.678297E-17	9.307224E-18
3.347065E+03	4.590943E-17	9.124509E-18
3.356967E+03	4.506996E-17	8.948866E-18
3.366870E+03	4.426429E-17	8.780223E-18
3.376773E+03	4.349152E-17	8.618383E-18
3.386675E+03	4.275135E-17	8.463270E-18
3.396578E+03	4.204347E-17	8.314805E-18
3.406480E+03	4.136698E-17	8.172791E-18
3.416383E+03	4.072156E-17	8.037149E-18
3.426285E+03	4.010685E-17	7.907789E-18
3.436188E+03	3.952147E-17	7.784426E-18
3.446090E+03	3.896561E-17	7.667077E-18
3.455993E+03	3.843842E-17	7.555561E-18
3.465896E+03	3.793911E-17	7.449704E-18
3.475798E+03	3.746733E-17	7.349426E-18
3.485701E+03	3.702192E-17	7.254478E-18
3.495603E+03	3.660257E-17	7.164789E-18
3.505506E+03	3.620858E-17	7.080206E-18
3.515408E+03	3.583929E-17	7.000583E-18
3.525311E+03	3.549404E-17	6.925780E-18
3.535213E+03	3.517222E-17	6.855661E-18
3.545116E+03	3.487286E-17	6.790026E-18
3.555019E+03	3.459578E-17	6.728825E-18
3.564921E+03	3.434008E-17	6.671869E-18
3.574824E+03	3.410560E-17	6.619116E-18
3.584726E+03	3.389114E-17	6.570319E-18
3.594629E+03	3.369696E-17	6.525517E-18
3.604531E+03	3.352155E-17	6.484406E-18
3.614434E+03	3.336486E-17	6.446963E-18
3.624337E+03	3.322614E-17	6.413034E-18
3.634239E+03	3.310535E-17	6.382598E-18
3.644142E+03	3.300147E-17	6.355447E-18
3.654044E+03	3.291446E-17	6.331566E-18
3.663947E+03	3.284366E-17	6.310815E-18
3.673849E+03	3.278906E-17	6.293180E-18
3.683752E+03	3.274999E-17	6.278528E-18
3.693654E+03	3.272677E-17	6.266904E-18
3.703557E+03	3.271843E-17	6.258116E-18
3.713460E+03	3.272528E-17	6.252211E-18
3.723362E+03	3.274696E-17	6.249114E-18
3.733265E+03	3.278347E-17	6.248810E-18
3.743167E+03	3.283445E-17	6.251226E-18
3.753070E+03	3.290018E-17	6.256402E-18
3.762972E+03	3.297999E-17	6.264204E-18
3.772875E+03	3.307416E-17	6.274672E-18
3.782777E+03	3.318259E-17	6.287782E-18
3.792680E+03	3.330526E-17	6.303514E-18
3.802583E+03	3.344206E-17	6.321844E-18
3.812485E+03	3.359263E-17	6.342691E-18
3.822388E+03	3.375748E-17	6.366142E-18
3.832290E+03	3.393650E-17	6.392168E-18
3.842193E+03	3.412931E-17	6.420683E-18
3.852095E+03	3.433607E-17	6.451715E-18
3.861998E+03	3.455668E-17	6.485229E-18
3.871900E+03	3.479130E-17	6.521248E-18
3.881803E+03	3.503948E-17	6.559678E-18
3.891706E+03	3.530167E-17	6.600593E-18
3.901608E+03	3.557741E-17	6.643897E-18
3.911511E+03	3.586712E-17	6.689658E-18
3.921413E+03	3.617032E-17	6.737777E-18
3.931316E+03	3.648677E-17	6.788202E-18
3.941218E+03	3.681689E-17	6.840999E-18
3.951121E+03	3.716012E-17	6.896054E-18
3.961024E+03	3.751652E-17	6.953369E-18
3.970926E+03	3.788580E-17	7.012881E-18
3.980829E+03	3.826798E-17	7.074585E-18
3.990731E+03	3.866273E-17	7.138410E-18
4.000634E+03	3.906972E-17	7.204285E-18
4.010536E+03	3.948889E-17	7.272190E-18
4.020439E+03	3.992017E-17	7.342105E-18
4.030341E+03	4.036247E-17	7.413819E-18
4.040244E+03	4.081633E-17	7.487424E-18
4.050147E+03	4.128057E-17	7.562696E-18
4.060049E+03	4.175536E-17	7.639654E-18
4.069952E+03	4.223977E-17	7.718125E-18
4.079854E+03	4.273353E-17	7.798051E-18
4.089757E+03	4.323601E-17	7.879309E-18
4.099659E+03	4.374648E-17	7.961761E-18
4.109562E+03	4.426420E-17	8.045265E-18
4.119464E+03	4.478836E-17	8.129669E-18
4.129367E+03	4.531848E-17	8.214882E-18
4.139270E+03	4.585364E-17	8.300732E-18
4.149172E+03	4.639250E-17	8.386974E-18
4.159075E+03	4.693404E-17	8.473418E-18
4.168977E+03	4.747715E-17	8.559865E-18
4.178880E+03	4.802108E-17	8.646178E-18
4.188782E+03	4.856425E-17	8.732070E-18
4.198685E+03	4.910538E-17	8.817315E-18
4.208587E+03	4.964274E-17	8.901604E-18
4.218490E+03	5.017539E-17	8.984768E-18
4.228393E+03	5.070150E-17	9.066485E-18
4.238295E+03	5.121961E-17	9.146501E-18
4.248198E+03	5.172824E-17	9.224555E-18
4.258100E+03	5.222503E-17	9.300236E-18
4.268003E+03	5.270932E-17	9.373436E-18
4.277905E+03	5.317873E-17	9.443740E-18
4.287808E+03	5.363177E-17	9.510895E-18
4.297711E+03	5.406651E-17	9.574573E-18
4.307613E+03	5.448247E-17	9.634703E-18
4.317516E+03	5.487696E-17	9.690826E-18
4.327418E+03	5.524971E-17	9.742906E-18
4.337321E+03	5.559961E-17	9.790769E-18
4.347223E+03	5.592627E-17	9.834361E-18
4.357126E+03	5.623007E-17	9.873766E-18
4.367028E+03	5.651129E-17	9.909054E-18
4.376931E+03	5.677136E-17	9.940492E-18
4.386834E+03	5.701001E-17	9.968047E-18
4.396736E+03	5.722901E-17	9.992045E-18
4.406639E+03	5.742882E-17	1.001259E-17
4.416541E+03	5.761054E-17	1.002987E-17
4.426444E+03	5.777635E-17	1.004429E-17
4.436346E+03	5.792599E-17	1.005581E-17
4.446249E+03	5.806233E-17	1.006495E-17
4.456151E+03	5.818520E-17	1.007168E-17
4.466054E+03	5.829706E-17	1.007643E-17
4.475957E+03	5.839879E-17	1.007938E-17
4.485859E+03	5.849186E-17	1.008077E-17
4.495762E+03	5.857769E-17	1.008085E-17
4.505664E+03	5.865667E-17	1.007971E-17
4.515567E+03	5.873125E-17	1.007776E-17
4.525469E+03	5.880177E-17	1.007507E-17
4.535372E+03	5.886956E-17	1.007186E-17
4.545274E+03	5.893595E-17	1.006837E-17
4.555177E+03	5.900222E-17	1.006481E-17
4.565080E+03	5.906908E-17	1.006131E-17
4.574982E+03	5.913718E-17	1.005797E-17
4.584885E+03	5.920768E-17	1.005499E-17
4.594787E+03	5.928168E-17	1.005255E-17
4.604690E+03	5.936026E-17	1.005084E-17
4.614592E+03	5.944335E-17	1.004984E-17
4.624495E+03	5.953248E-17	1.004980E-17
4.634398E+03	5.962804E-17	1.005078E-17
4.644300E+03	5.973037E-17	1.005284E-17
4.654203E+03	5.984035E-17	1.005611E-17
4.664105E+03	5.995824E-17	1.006064E-17
4.674008E+03	6.008425E-17	1.006646E-17
4.683910E+03	6.021855E-17	1.007358E-17
4.693813E+03	6.036128E-17	1.008203E-17
4.703715E+03	6.051251E-17	1.009180E-17
4.713618E+03	6.067229E-17	1.010290E-17
4.723521E+03	6.084062E-17	1.011533E-17
4.733423E+03	6.101687E-17	1.012896E-17
4.743326E+03	6.120156E-17	1.014389E-17
4.753228E+03	6.139338E-17	1.015988E-17
4.763131E+03	6.159335E-17	1.017710E-17
4.773033E+03	6.180011E-17	1.019532E-17
4.782936E+03	6.201402E-17	1.021460E-17
4.792838E+03	6.223482E-17	1.023488E-17
4.802741E+03	6.246102E-17	1.025591E-17
4.812644E+03	6.269350E-17	1.027783E-17
4.822546E+03	6.293132E-17	1.030049E-17
4.832449E+03	6.317472E-17	1.032392E-17
4.842351E+03	6.342147E-17	1.034775E-17
4.852254E+03	6.367300E-17	1.037221E-17
4.862156E+03	6.392766E-17	1.039703E-17
4.872059E+03	6.418562E-17	1.042224E-17
4.881961E+03	6.444582E-17	1.044765E-17
4.891864E+03	6.470840E-17	1.047329E-17
4.901767E+03	6.497164E-17	1.049889E-17
4.911669E+03	6.523567E-17	1.052445E-17
4.921572E+03	6.550065E-17	1.055001E-17
4.931474E+03	6.576479E-17	1.057528E-17
4.941377E+03	6.602759E-17	1.060017E-17
4.951279E+03	6.628918E-17	1.062471E-17
4.961182E+03	6.654903E-17	1.064882E-17
4.971085E+03	6.680528E-17	1.067220E-17
4.980987E+03	6.705805E-17	1.069487E-17
4.990890E+03	6.730678E-17	1.071675E-17
5.000792E+03	6.755088E-17	1.073774E-17
5.010695E+03	6.778907E-17	1.075764E-17
5.020597E+03	6.802074E-17	1.077637E-17
5.030500E+03	6.824592E-17	1.079394E-17
5.040402E+03	6.846255E-17	1.081002E-17
5.050305E+03	6.867062E-17	1.082462E-17
5.060208E+03	6.886871E-17	1.083752E-17
5.070110E+03	6.905603E-17	1.084862E-17
5.080013E+03	6.923178E-17	1.085778E-17
5.089915E+03	6.939510E-17	1.086489E-17
5.099818E+03	6.954442E-17	1.086971E-17
5.109720E+03	6.967952E-17	1.087222E-17
5.119623E+03	6.979804E-17	1.087207E-17
5.129525E+03	6.989970E-17	1.086922E-17
5.139428E+03	6.998278E-17	1.086342E-17
5.149331E+03	7.004624E-17	1.085453E-17
5.159233E+03	7.008904E-17	1.084240E-17
5.169136E+03	7.011012E-17	1.082688E-17
5.179038E+03	7.010701E-17	1.080762E-17
5.188941E+03	7.008007E-17	1.078468E-17
5.198843E+03	7.002620E-17	1.075762E-17
5.208746E+03	6.994580E-17	1.072651E-17
5.218648E+03	6.983659E-17	1.069104E-17
5.228551E+03	6.969842E-17	1.065119E-17
5.238454E+03	6.952984E-17	1.060678E-17
5.248356E+03	6.932956E-17	1.055763E-17
5.258259E+03	6.909778E-17	1.050380E-17
5.268161E+03	6.883280E-17	1.044506E-17
5.278064E+03	6.853518E-17	1.038152E-17
5.287966E+03	6.820428E-17	1.031311E-17
5.297869E+03	6.783973E-17	1.023980E-17
5.307772E+03	6.744206E-17	1.016171E-17
5.317674E+03	6.701205E-17	1.007897E-17
5.327577E+03	6.655077E-17	9.991773E-18
5.337479E+03	6.605821E-17	9.900147E-18
5.347382E+03	6.553667E-17	9.804460E-18
5.357284E+03	6.498740E-17	9.704923E-18
5.367187E+03	6.441324E-17	9.601981E-18
5.377089E+03	6.381533E-17	9.495826E-18
5.386992E+03	6.319830E-17	9.387165E-18
5.396895E+03	6.256561E-17	9.276529E-18
5.406797E+03	6.192404E-17	9.164931E-18
5.416700E+03	6.127539E-17	9.052647E-18
5.426602E+03	6.061854E-17	8.939519E-18
5.436505E+03	5.995379E-17	8.825593E-18
5.446407E+03	5.928320E-17	8.711182E-18
5.456310E+03	5.861110E-17	8.596921E-18
5.466212E+03	5.793871E-17	8.482991E-18
5.476115E+03	5.727072E-17	8.370076E-18
5.486018E+03	5.660884E-17	8.258423E-18
5.495920E+03	5.595641E-17	8.148513E-18
5.505823E+03	5.531672E-17	8.040814E-18
5.515725E+03	5.469289E-17	7.935771E-18
5.525628E+03	5.408685E-17	7.833648E-18
5.535530E+03	5.350144E-17	7.734844E-18
5.545433E+03	5.293938E-17	7.639732E-18
5.555335E+03	5.240260E-17	7.548571E-18
5.565238E+03	5.189285E-17	7.461595E-18
5.575141E+03	5.141271E-17	7.379153E-18
5.585043E+03	5.096295E-17	7.301330E-18
5.594946E+03	5.054516E-17	7.228328E-18
5.604848E+03	5.016015E-17	7.160242E-18
5.614751E+03	4.980905E-17	7.097204E-18
5.624653E+03	4.949222E-17	7.039240E-18
5.634556E+03	4.920985E-17	6.986350E-18
5.644459E+03	4.896241E-17	6.938573E-18
5.654361E+03	4.875021E-17	6.895927E-18
5.664264E+03	4.857240E-17	6.858265E-18
5.674166E+03	4.842901E-17	6.825564E-18
5.684069E+03	4.831945E-17	6.797715E-18
5.693971E+03	4.824304E-17	6.774598E-18
5.703874E+03	4.820008E-17	6.756228E-18
5.713776E+03	4.818877E-17	6.742328E-18
5.723679E+03	4.820933E-17	6.732906E-18
5.733582E+03	4.826044E-17	6.727753E-18
5.743484E+03	4.834180E-17	6.726806E-18
5.753387E+03	4.845262E-17	6.729933E-18
5.763289E+03	4.859214E-17	6.737005E-18
5.773192E+03	4.876014E-17	6.747972E-18
5.783094E+03	4.895538E-17	6.762641E-18
5.792997E+03	4.917770E-17	6.780972E-18
5.802899E+03	4.942645E-17	6.802855E-18
5.812802E+03	4.970047E-17	6.828111E-18
5.822705E+03	5.000023E-17	6.856790E-18
5.832607E+03	5.032406E-17	6.888642E-18
5.842510E+03	5.067248E-17	6.923722E-18
5.852412E+03	5.104438E-17	6.961862E-18
5.862315E+03	5.143917E-17	7.002967E-18
5.872217E+03	5.185686E-17	7.047023E-18
5.882120E+03	5.229572E-17	7.093779E-18
5.892022E+03	5.275574E-17	7.143219E-18
5.901925E+03	5.323688E-17	7.195327E-18
5.911828E+03	5.373734E-17	7.249844E-18
5.921730E+03	5.425706E-17	7.306751E-18
5.931633E+03	5.479538E-17	7.365948E-18
5.941535E+03	5.535098E-17	7.427248E-18
5.951438E+03	5.592318E-17	7.490547E-18
5.961340E+03	5.651125E-17	7.555740E-18
5.971243E+03	5.711382E-17	7.622634E-18
5.981146E+03	5.773016E-17	7.691126E-18
5.991048E+03	5.836022E-17	7.761203E-18
6.000951E+03	5.900128E-17	7.832495E-18
6.010853E+03	5.965403E-17	7.905091E-18
6.020756E+03	6.031572E-17	7.978622E-18
6.030658E+03	6.098716E-17	8.053193E-18
6.040561E+03	6.166564E-17	8.128443E-18
6.050463E+03	6.235141E-17	8.204403E-18
6.060366E+03	6.304256E-17	8.280822E-18
6.070269E+03	6.373952E-17	8.357756E-18
6.080171E+03	6.444052E-17	8.434975E-18
6.090074E+03	6.514458E-17	8.512352E-18
6.099976E+03	6.585237E-17	8.589976E-18
6.109879E+03	6.656209E-17	8.667617E-18
6.119781E+03	6.727426E-17	8.745343E-18
6.129684E+03	6.798833E-17	8.823088E-18
6.139586E+03	6.870341E-17	8.900739E-18
6.149489E+03	6.941821E-17	8.978136E-18
6.159392E+03	7.013290E-17	9.055305E-18
6.169294E+03	7.084567E-17	9.132017E-18
6.179197E+03	7.155561E-17	9.208164E-18
6.189099E+03	7.226181E-17	9.283635E-18
6.199002E+03	7.296529E-17	9.358571E-18
6.208904E+03	7.366361E-17	9.432663E-18
6.218807E+03	7.435627E-17	9.505856E-18
6.228709E+03	7.504375E-17	9.578216E-18
6.238612E+03	7.572606E-17	9.649746E-18
6.248515E+03	7.640208E-17	9.720311E-18
6.258417E+03	7.707084E-17	9.789791E-18
6.268320E+03	7.773366E-17	9.858360E-18
6.278222E+03	7.838875E-17	9.925793E-18
6.288125E+03	7.903645E-17	9.992141E-18
6.298027E+03	7.967621E-17	1.005734E-17
6.307930E+03	8.030735E-17	1.012131E-17
6.317833E+03	8.092938E-17	1.018399E-17
6.327735E+03	8.154176E-17	1.024532E-17
6.337638E+03	8.214401E-17	1.030526E-17
6.347540E+03	8.273434E-17	1.036357E-17
6.357443E+03	8.331352E-17	1.042036E-17
6.367345E+03	8.388108E-17	1.047559E-17
6.377248E+03	8.443766E-17	1.052934E-17
6.387150E+03	8.498424E-17	1.058173E-17
6.397053E+03	8.551917E-17	1.063257E-17
6.406956E+03	8.604454E-17	1.068213E-17
6.416858E+03	8.656022E-17	1.073039E-17
6.426761E+03	8.706720E-17	1.077748E-17
6.436663E+03	8.756403E-17	1.082323E-17
6.446566E+03	8.805315E-17	1.086795E-17
6.456468E+03	8.853318E-17	1.091146E-17
6.466371E+03	8.900538E-17	1.095394E-17
6.476273E+03	8.946831E-17	1.099520E-17
6.486176E+03	8.992337E-17	1.103543E-17
6.496079E+03	9.037201E-17	1.107480E-17
6.505981E+03	9.081142E-17	1.111299E-17
6.515884E+03	9.124307E-17	1.115016E-17
6.525786E+03	9.166847E-17	1.118652E-17
6.535689E+03	9.208488E-17	1.122173E-17
6.545591E+03	9.249521E-17	1.125615E-17
6.555494E+03	9.289659E-17	1.128943E-17
6.565396E+03	9.329211E-17	1.132196E-17
6.575299E+03	9.367884E-17	1.135339E-17
6.585202E+03	9.405817E-17	1.138389E-17
6.595104E+03	9.443023E-17	1.141347E-17
6.605007E+03	9.479341E-17	1.144196E-17
6.614909E+03	9.514923E-17	1.146954E-17
6.624812E+03	9.549598E-17	1.149600E-17
6.634714E+03	9.583355E-17	1.152134E-17
6.644617E+03	9.616345E-17	1.154576E-17
6.654520E+03	9.648386E-17	1.156902E-17
6.664422E+03	9.679295E-17	1.159093E-17
6.674325E+03	9.709388E-17	1.161187E-17
6.684227E+03	9.738304E-17	1.163141E-17
6.694130E+03	9.766183E-17	1.164972E-17
6.704032E+03	9.793012E-17	1.166680E-17
6.713935E+03	9.818583E-17	1.168241E-17
6.723837E+03	9.842863E-17	1.169651E-17
6.733740E+03	9.865835E-17	1.170910E-17
6.743643E+03	9.887636E-17	1.172034E-17
6.753545E+03	9.908059E-17	1.173000E-17
6.763448E+03	9.926901E-17	1.173784E-17
6.773350E+03	9.944308E-17	1.174405E-17
6.783253E+03	9.960243E-17	1.174860E-17
6.793155E+03	9.974687E-17	1.175146E-17
6.803058E+03	9.987420E-17	1.175240E-17
6.812960E+03	9.998417E-17	1.175138E-17
6.822863E+03	1.000783E-16	1.174861E-17
6.832766E+03	1.001546E-16	1.174385E-17
6.842668E+03	1.002127E-16	1.173707E-17
6.852571E+03	1.002524E-16	1.172827E-17
6.862473E+03	1.002736E-16	1.171743E-17
6.872376E+03	1.002761E-16	1.170455E-17
6.882278E+03	1.002596E-16	1.168961E-17
6.892181E+03	1.002222E-16	1.167238E-17
6.902083E+03	1.001639E-16	1.165288E-17
6.911986E+03	1.000864E-16	1.163133E-17
6.921889E+03	9.998974E-17	1.160775E-17
6.931791E+03	9.987022E-17	1.158169E-17
6.941694E+03	9.973163E-17	1.155363E-17
6.951596E+03	9.957218E-17	1.152336E-17
6.961499E+03	9.939212E-17	1.149092E-17
6.971401E+03	9.918967E-17	1.145613E-17
6.981304E+03	9.896701E-17	1.141923E-17
6.991207E+03	9.872453E-17	1.138028E-17
7.001109E+03	9.846252E-17	1.133934E-17
7.011012E+03	9.817948E-17	1.129623E-17
7.020914E+03	9.787586E-17	1.125102E-17
7.030817E+03	9.755416E-17	1.120400E-17
7.040719E+03	9.721302E-17	1.115503E-17
7.050622E+03	9.685106E-17	1.110396E-17
7.060524E+03	9.647288E-17	1.105131E-17
7.070427E+03	9.607730E-17	1.099698E-17
7.080330E+03	9.566502E-17	1.094103E-17
7.090232E+03	9.523501E-17	1.088337E-17
7.100135E+03	9.479003E-17	1.082431E-17
7.110037E+03	9.433099E-17	1.076397E-17
7.119940E+03	9.385697E-17	1.070223E-17
7.129842E+03	9.336887E-17	1.063923E-17
7.139745E+03	9.286971E-17	1.057529E-17
7.149647E+03	9.235859E-17	1.051033E-17
7.159550E+03	9.183653E-17	1.044445E-17
7.169453E+03	9.130462E-17	1.037780E-17
7.179355E+03	9.076393E-17	1.031050E-17
7.189258E+03	9.021368E-17	1.024245E-17
7.199160E+03	8.965869E-17	1.017421E-17
7.209063E+03	8.909817E-17	1.010570E-17
7.218965E+03	8.852946E-17	1.003660E-17
7.228868E+03	8.795937E-17	9.967695E-18
7.238770E+03	8.738331E-17	9.898465E-18
7.248673E+03	8.680620E-17	9.829468E-18
7.258576E+03	8.622745E-17	9.760636E-18
7.268478E+03	8.564833E-17	9.692113E-18
7.278381E+03	8.506838E-17	9.623846E-18
7.288283E+03	8.448911E-17	9.556006E-18
7.298186E+03	8.391207E-17	9.488767E-18
7.308088E+03	8.333902E-17	9.422327E-18
7.317991E+03	8.276831E-17	9.356500E-18
7.327894E+03	8.220391E-17	9.291731E-18
7.337796E+03	8.164455E-17	9.227876E-18
7.347699E+03	8.109102E-17	9.165024E-18
7.357601E+03	8.054444E-17	9.103299E-18
7.367504E+03	8.000947E-17	9.043227E-18
7.377406E+03	7.948946E-17	8.985185E-18
7.387309E+03	7.899111E-17	8.929930E-18
7.397211E+03	7.852137E-17	8.878246E-18
7.407114E+03	7.808170E-17	8.830295E-18
7.417017E+03	7.767688E-17	8.786604E-18
7.426919E+03	7.731288E-17	8.747846E-18
7.436822E+03	7.698789E-17	8.713806E-18
7.446724E+03	7.670546E-17	8.684881E-18
7.456627E+03	7.646414E-17	8.660904E-18
7.466529E+03	7.626179E-17	8.641629E-18
7.476432E+03	7.609552E-17	8.626726E-18
7.486334E+03	7.596220E-17	8.615840E-18
7.496237E+03	7.586061E-17	8.608829E-18
7.506140E+03	7.578594E-17	8.605146E-18
7.516042E+03	7.573721E-17	8.604681E-18
7.525945E+03	7.571002E-17	8.606930E-18
7.535847E+03	7.570375E-17	8.611824E-18
7.545750E+03	7.571635E-17	8.619128E-18
7.555652E+03	7.574400E-17	8.628405E-18
7.565555E+03	7.578675E-17	8.639661E-18
7.575457E+03	7.584301E-17	8.652714E-18
7.585360E+03	7.590958E-17	8.667195E-18
7.595263E+03	7.598682E-17	8.683147E-18
7.605165E+03	7.607179E-17	8.700230E-18
7.615068E+03	7.616691E-17	8.718719E-18
7.624970E+03	7.626759E-17	8.738089E-18
7.634873E+03	7.637467E-17	8.758432E-18
7.644775E+03	7.648542E-17	8.779434E-18
7.654678E+03	7.660082E-17	8.801203E-18
7.664581E+03	7.672007E-17	8.823646E-18
7.674483E+03	7.684252E-17	8.846687E-18
7.684386E+03	7.696551E-17	8.870014E-18
