#wls	flux	fluxerr
1.584409E+03	1.361640E-16	3.193367E-17
1.624020E+03	1.415523E-16	3.313668E-17
1.663630E+03	1.466342E-16	3.426194E-17
1.703240E+03	1.513925E-16	3.530566E-17
1.742850E+03	1.557326E-16	3.624605E-17
1.782461E+03	1.595276E-16	3.705405E-17
1.822071E+03	1.626156E-16	3.769277E-17
1.861681E+03	1.647748E-16	3.811174E-17
1.901291E+03	1.657798E-16	3.826026E-17
1.940902E+03	1.654327E-16	3.809443E-17
1.980512E+03	1.636347E-16	3.759363E-17
2.020122E+03	1.606030E-16	3.680997E-17
2.059732E+03	1.569425E-16	3.588384E-17
2.099342E+03	1.537223E-16	3.506025E-17
2.138953E+03	1.521602E-16	3.461557E-17
2.178563E+03	1.530022E-16	3.471622E-17
2.218173E+03	1.561226E-16	3.532940E-17
2.257783E+03	1.607255E-16	3.627117E-17
2.297394E+03	1.657203E-16	3.729315E-17
2.337004E+03	1.702273E-16	3.819694E-17
2.376614E+03	1.736912E-16	3.885904E-17
2.416224E+03	1.758530E-16	3.922357E-17
2.455835E+03	1.766648E-16	3.928239E-17
2.495445E+03	1.761631E-16	3.904635E-17
2.535055E+03	1.744701E-16	3.854520E-17
2.574665E+03	1.716934E-16	3.780529E-17
2.614276E+03	1.679547E-16	3.685577E-17
2.653886E+03	1.633631E-16	3.572284E-17
2.693496E+03	1.580325E-16	3.443347E-17
2.733106E+03	1.520646E-16	3.301171E-17
2.772716E+03	1.455575E-16	3.148052E-17
2.812327E+03	1.386182E-16	2.986461E-17
2.851937E+03	1.313485E-16	2.818721E-17
2.891547E+03	1.238577E-16	2.647285E-17
2.931157E+03	1.162537E-16	2.474543E-17
2.970768E+03	1.086401E-16	2.302755E-17
2.980670E+03	1.067460E-16	2.260192E-17
2.990573E+03	1.048591E-16	2.217855E-17
3.000475E+03	1.029803E-16	2.175765E-17
3.010378E+03	1.011129E-16	2.133990E-17
3.020280E+03	9.925567E-17	2.092505E-17
3.030183E+03	9.740951E-17	2.051329E-17
3.040086E+03	9.558079E-17	2.010595E-17
3.049988E+03	9.376998E-17	1.970314E-17
3.059891E+03	9.198531E-17	1.930655E-17
3.069793E+03	9.022393E-17	1.891560E-17
3.079696E+03	8.848533E-17	1.853016E-17
3.089598E+03	8.677256E-17	1.815085E-17
3.099501E+03	8.508178E-17	1.777687E-17
3.109403E+03	8.341463E-17	1.740854E-17
3.119306E+03	8.177129E-17	1.704588E-17
3.129209E+03	8.015354E-17	1.668926E-17
3.139111E+03	7.856014E-17	1.633841E-17
3.149014E+03	7.699312E-17	1.599374E-17
3.158916E+03	7.545308E-17	1.565534E-17
3.168819E+03	7.393948E-17	1.532311E-17
3.178721E+03	7.245447E-17	1.499746E-17
3.188624E+03	7.100016E-17	1.467882E-17
3.198526E+03	6.957495E-17	1.436685E-17
3.208429E+03	6.818219E-17	1.406220E-17
3.218332E+03	6.682043E-17	1.376456E-17
3.228234E+03	6.549386E-17	1.347479E-17
3.238137E+03	6.419996E-17	1.319232E-17
3.248039E+03	6.294053E-17	1.291753E-17
3.257942E+03	6.171719E-17	1.265071E-17
3.267844E+03	6.052945E-17	1.239174E-17
3.277747E+03	5.937866E-17	1.214087E-17
3.287650E+03	5.826333E-17	1.189778E-17
3.297552E+03	5.718467E-17	1.166268E-17
3.307455E+03	5.614286E-17	1.143560E-17
3.317357E+03	5.513802E-17	1.121651E-17
3.327260E+03	5.417017E-17	1.100542E-17
3.337162E+03	5.323852E-17	1.080212E-17
3.347065E+03	5.234306E-17	1.060660E-17
3.356967E+03	5.148369E-17	1.041880E-17
3.366870E+03	5.066029E-17	1.023867E-17
3.376773E+03	4.987198E-17	1.006602E-17
3.386675E+03	4.911860E-17	9.900782E-18
3.396578E+03	4.839993E-17	9.742885E-18
3.406480E+03	4.771510E-17	9.592132E-18
3.416383E+03	4.706387E-17	9.448448E-18
3.426285E+03	4.644598E-17	9.311754E-18
3.436188E+03	4.585998E-17	9.181739E-18
3.446090E+03	4.530622E-17	9.058445E-18
3.455993E+03	4.478385E-17	8.941678E-18
3.465896E+03	4.429205E-17	8.831251E-18
3.475798E+03	4.383059E-17	8.727094E-18
3.485701E+03	4.339817E-17	8.628926E-18
3.495603E+03	4.299456E-17	8.536677E-18
3.505506E+03	4.261906E-17	8.450187E-18
3.515408E+03	4.227097E-17	8.369292E-18
3.525311E+03	4.194960E-17	8.293837E-18
3.535213E+03	4.165433E-17	8.223677E-18
3.545116E+03	4.138407E-17	8.158576E-18
3.555019E+03	4.113870E-17	8.098490E-18
3.564921E+03	4.091720E-17	8.043198E-18
3.574824E+03	4.071946E-17	7.992659E-18
3.584726E+03	4.054409E-17	7.946580E-18
3.594629E+03	4.039146E-17	7.905015E-18
3.604531E+03	4.025980E-17	7.867601E-18
3.614434E+03	4.014910E-17	7.834317E-18
3.624337E+03	4.005850E-17	7.804977E-18
3.634239E+03	3.998798E-17	7.779561E-18
3.644142E+03	3.993634E-17	7.757818E-18
3.654044E+03	3.990357E-17	7.739731E-18
3.663947E+03	3.988888E-17	7.725131E-18
3.673849E+03	3.989229E-17	7.714003E-18
3.683752E+03	3.991301E-17	7.706184E-18
3.693654E+03	3.995142E-17	7.701727E-18
3.703557E+03	4.000637E-17	7.700398E-18
3.713460E+03	4.007821E-17	7.702249E-18
3.723362E+03	4.016654E-17	7.707189E-18
3.733265E+03	4.027132E-17	7.715194E-18
3.743167E+03	4.039212E-17	7.726167E-18
3.753070E+03	4.052924E-17	7.740152E-18
3.762972E+03	4.068186E-17	7.756979E-18
3.772875E+03	4.085028E-17	7.776688E-18
3.782777E+03	4.103440E-17	7.799246E-18
3.792680E+03	4.123408E-17	7.824614E-18
3.802583E+03	4.144923E-17	7.852761E-18
3.812485E+03	4.167934E-17	7.883573E-18
3.822388E+03	4.192499E-17	7.917150E-18
3.832290E+03	4.218605E-17	7.953449E-18
3.842193E+03	4.246197E-17	7.992354E-18
3.852095E+03	4.275294E-17	8.033888E-18
3.861998E+03	4.305877E-17	8.077997E-18
3.871900E+03	4.337962E-17	8.124702E-18
3.881803E+03	4.371489E-17	8.173873E-18
3.891706E+03	4.406509E-17	8.225594E-18
3.901608E+03	4.442958E-17	8.279730E-18
3.911511E+03	4.480883E-17	8.336356E-18
3.921413E+03	4.520217E-17	8.395333E-18
3.931316E+03	4.560928E-17	8.456587E-18
3.941218E+03	4.603057E-17	8.520181E-18
3.951121E+03	4.646527E-17	8.585961E-18
3.961024E+03	4.691339E-17	8.653915E-18
3.970926E+03	4.737450E-17	8.723951E-18
3.980829E+03	4.784854E-17	8.796043E-18
3.990731E+03	4.833502E-17	8.870094E-18
4.000634E+03	4.883345E-17	8.945997E-18
4.010536E+03	4.934368E-17	9.023715E-18
4.020439E+03	4.986556E-17	9.103211E-18
4.030341E+03	5.039768E-17	9.184213E-18
4.040244E+03	5.094062E-17	9.266822E-18
4.050147E+03	5.149290E-17	9.350753E-18
4.060049E+03	5.205463E-17	9.436020E-18
4.069952E+03	5.262462E-17	9.522400E-18
4.079854E+03	5.320251E-17	9.609818E-18
4.089757E+03	5.378744E-17	9.698112E-18
4.099659E+03	5.437849E-17	9.787108E-18
4.109562E+03	5.497468E-17	9.876628E-18
4.119464E+03	5.557496E-17	9.966477E-18
4.129367E+03	5.617870E-17	1.005654E-17
4.139270E+03	5.678472E-17	1.014660E-17
4.149172E+03	5.739132E-17	1.023635E-17
4.159075E+03	5.799717E-17	1.032556E-17
4.168977E+03	5.860086E-17	1.041398E-17
4.178880E+03	5.920142E-17	1.050144E-17
4.188782E+03	5.979681E-17	1.058758E-17
4.198685E+03	6.038542E-17	1.067212E-17
4.208587E+03	6.096507E-17	1.075469E-17
4.218490E+03	6.153450E-17	1.083507E-17
4.228393E+03	6.209140E-17	1.091287E-17
4.238295E+03	6.263391E-17	1.098777E-17
4.248198E+03	6.316013E-17	1.105946E-17
4.258100E+03	6.366710E-17	1.112744E-17
4.268003E+03	6.415391E-17	1.119156E-17
4.277905E+03	6.461758E-17	1.125134E-17
4.287808E+03	6.505620E-17	1.130646E-17
4.297711E+03	6.546738E-17	1.135654E-17
4.307613E+03	6.585045E-17	1.140148E-17
4.317516E+03	6.620213E-17	1.144075E-17
4.327418E+03	6.652206E-17	1.147433E-17
4.337321E+03	6.680897E-17	1.150201E-17
4.347223E+03	6.706242E-17	1.152376E-17
4.357126E+03	6.728316E-17	1.153976E-17
4.367028E+03	6.747199E-17	1.155015E-17
4.376931E+03	6.763115E-17	1.155537E-17
4.386834E+03	6.776083E-17	1.155547E-17
4.396736E+03	6.786373E-17	1.155095E-17
4.406639E+03	6.794103E-17	1.154202E-17
4.416541E+03	6.799460E-17	1.152904E-17
4.426444E+03	6.802762E-17	1.151255E-17
4.436346E+03	6.804040E-17	1.149264E-17
4.446249E+03	6.803683E-17	1.146998E-17
4.456151E+03	6.801729E-17	1.144465E-17
4.466054E+03	6.798512E-17	1.141722E-17
4.475957E+03	6.794185E-17	1.138797E-17
4.485859E+03	6.788958E-17	1.135725E-17
4.495762E+03	6.783041E-17	1.132542E-17
4.505664E+03	6.776512E-17	1.129263E-17
4.515567E+03	6.769686E-17	1.125939E-17
4.525469E+03	6.762633E-17	1.122583E-17
4.535372E+03	6.755530E-17	1.119225E-17
4.545274E+03	6.748551E-17	1.115892E-17
4.555177E+03	6.741858E-17	1.112613E-17
4.565080E+03	6.735548E-17	1.109402E-17
4.574982E+03	6.729705E-17	1.106272E-17
4.584885E+03	6.724470E-17	1.103248E-17
4.594787E+03	6.719972E-17	1.100348E-17
4.604690E+03	6.716336E-17	1.097593E-17
4.614592E+03	6.713557E-17	1.094981E-17
4.624495E+03	6.711806E-17	1.092540E-17
4.634398E+03	6.711127E-17	1.090275E-17
4.644300E+03	6.711556E-17	1.088191E-17
4.654203E+03	6.713188E-17	1.086302E-17
4.664105E+03	6.716050E-17	1.084612E-17
4.674008E+03	6.720165E-17	1.083124E-17
4.683910E+03	6.725550E-17	1.081838E-17
4.693813E+03	6.732216E-17	1.080756E-17
4.703715E+03	6.740168E-17	1.079876E-17
4.713618E+03	6.749407E-17	1.079199E-17
4.723521E+03	6.759931E-17	1.078722E-17
4.733423E+03	6.771666E-17	1.078432E-17
4.743326E+03	6.784662E-17	1.078337E-17
4.753228E+03	6.798768E-17	1.078410E-17
4.763131E+03	6.814089E-17	1.078668E-17
4.773033E+03	6.830463E-17	1.079084E-17
4.782936E+03	6.847919E-17	1.079661E-17
4.792838E+03	6.866414E-17	1.080392E-17
4.802741E+03	6.885769E-17	1.081248E-17
4.812644E+03	6.906067E-17	1.082240E-17
4.822546E+03	6.927188E-17	1.083350E-17
4.832449E+03	6.949143E-17	1.084577E-17
4.842351E+03	6.971670E-17	1.085881E-17
4.852254E+03	6.994916E-17	1.087285E-17
4.862156E+03	7.018685E-17	1.088755E-17
4.872059E+03	7.042985E-17	1.090295E-17
4.881961E+03	7.067689E-17	1.091883E-17
4.891864E+03	7.092806E-17	1.093521E-17
4.901767E+03	7.118138E-17	1.095178E-17
4.911669E+03	7.143696E-17	1.096856E-17
4.921572E+03	7.169499E-17	1.098557E-17
4.931474E+03	7.195350E-17	1.100250E-17
4.941377E+03	7.221196E-17	1.101929E-17
4.951279E+03	7.247059E-17	1.103596E-17
4.961182E+03	7.272893E-17	1.105245E-17
4.971085E+03	7.298507E-17	1.106847E-17
4.980987E+03	7.323927E-17	1.108405E-17
4.990890E+03	7.349111E-17	1.109914E-17
5.000792E+03	7.374015E-17	1.111368E-17
5.010695E+03	7.398521E-17	1.112750E-17
5.020597E+03	7.422582E-17	1.114052E-17
5.030500E+03	7.446226E-17	1.115279E-17
5.040402E+03	7.469255E-17	1.116404E-17
5.050305E+03	7.491689E-17	1.117428E-17
5.060208E+03	7.513399E-17	1.118334E-17
5.070110E+03	7.534323E-17	1.119113E-17
5.080013E+03	7.554396E-17	1.119757E-17
5.089915E+03	7.573549E-17	1.120256E-17
5.099818E+03	7.591630E-17	1.120590E-17
5.109720E+03	7.608632E-17	1.120757E-17
5.119623E+03	7.624316E-17	1.120725E-17
5.129525E+03	7.638660E-17	1.120491E-17
5.139428E+03	7.651486E-17	1.120031E-17
5.149331E+03	7.662684E-17	1.119330E-17
5.159233E+03	7.672135E-17	1.118373E-17
5.169136E+03	7.679714E-17	1.117143E-17
5.179038E+03	7.685138E-17	1.115601E-17
5.188941E+03	7.688423E-17	1.113751E-17
5.198843E+03	7.689198E-17	1.111543E-17
5.208746E+03	7.687469E-17	1.108979E-17
5.218648E+03	7.682939E-17	1.106020E-17
5.228551E+03	7.675535E-17	1.102657E-17
5.238454E+03	7.665039E-17	1.098861E-17
5.248356E+03	7.651232E-17	1.094606E-17
5.258259E+03	7.634061E-17	1.089885E-17
5.268161E+03	7.613253E-17	1.084664E-17
5.278064E+03	7.588779E-17	1.078942E-17
5.287966E+03	7.560475E-17	1.072699E-17
5.297869E+03	7.528201E-17	1.065918E-17
5.307772E+03	7.491916E-17	1.058597E-17
5.317674E+03	7.451610E-17	1.050740E-17
5.327577E+03	7.407304E-17	1.042351E-17
5.337479E+03	7.358909E-17	1.033423E-17
5.347382E+03	7.306593E-17	1.023982E-17
5.357284E+03	7.250420E-17	1.014041E-17
5.367187E+03	7.190641E-17	1.003638E-17
5.377089E+03	7.127331E-17	9.927864E-18
5.386992E+03	7.060964E-17	9.815557E-18
5.396895E+03	6.991903E-17	9.699985E-18
5.406797E+03	6.920892E-17	9.582202E-18
5.416700E+03	6.848143E-17	9.462514E-18
5.426602E+03	6.773559E-17	9.340802E-18
5.436505E+03	6.697218E-17	9.217184E-18
5.446407E+03	6.619426E-17	9.092091E-18
5.456310E+03	6.540753E-17	8.966310E-18
5.466212E+03	6.461446E-17	8.840184E-18
5.476115E+03	6.382154E-17	8.714600E-18
5.486018E+03	6.303202E-17	8.589996E-18
5.495920E+03	6.225107E-17	8.467068E-18
5.505823E+03	6.148376E-17	8.346493E-18
5.515725E+03	6.073501E-17	8.228923E-18
5.525628E+03	6.000833E-17	8.114816E-18
5.535530E+03	5.930829E-17	8.004766E-18
5.545433E+03	5.863915E-17	7.899321E-18
5.555335E+03	5.800425E-17	7.798906E-18
5.565238E+03	5.740658E-17	7.703892E-18
5.575141E+03	5.684991E-17	7.614751E-18
5.585043E+03	5.633580E-17	7.531659E-18
5.594946E+03	5.586648E-17	7.454879E-18
5.604848E+03	5.544313E-17	7.384530E-18
5.614751E+03	5.506700E-17	7.320744E-18
5.624653E+03	5.473828E-17	7.263508E-18
5.634556E+03	5.445671E-17	7.212752E-18
5.644459E+03	5.422220E-17	7.168426E-18
5.654361E+03	5.403429E-17	7.130434E-18
5.664264E+03	5.389111E-17	7.098496E-18
5.674166E+03	5.379171E-17	7.072454E-18
5.684069E+03	5.373445E-17	7.052058E-18
5.693971E+03	5.371757E-17	7.037051E-18
5.703874E+03	5.374052E-17	7.027327E-18
5.713776E+03	5.380047E-17	7.022492E-18
5.723679E+03	5.389698E-17	7.022463E-18
5.733582E+03	5.402804E-17	7.026951E-18
5.743484E+03	5.419290E-17	7.035837E-18
5.753387E+03	5.439043E-17	7.048951E-18
5.763289E+03	5.461964E-17	7.066142E-18
5.773192E+03	5.488026E-17	7.087357E-18
5.783094E+03	5.517099E-17	7.112406E-18
5.792997E+03	5.549180E-17	7.141268E-18
5.802899E+03	5.584224E-17	7.173865E-18
5.812802E+03	5.622126E-17	7.210044E-18
5.822705E+03	5.662975E-17	7.249904E-18
5.832607E+03	5.706618E-17	7.293230E-18
5.842510E+03	5.753154E-17	7.340133E-18
5.852412E+03	5.802497E-17	7.390487E-18
5.862315E+03	5.854619E-17	7.444239E-18
5.872217E+03	5.909557E-17	7.501423E-18
5.882120E+03	5.967143E-17	7.561810E-18
5.892022E+03	6.027404E-17	7.625421E-18
5.901925E+03	6.090359E-17	7.692267E-18
5.911828E+03	6.155815E-17	7.762090E-18
5.921730E+03	6.223778E-17	7.834885E-18
5.931633E+03	6.294175E-17	7.910552E-18
5.941535E+03	6.366858E-17	7.988891E-18
5.951438E+03	6.441739E-17	8.069784E-18
5.961340E+03	6.518727E-17	8.153107E-18
5.971243E+03	6.597647E-17	8.238634E-18
5.981146E+03	6.678393E-17	8.326228E-18
5.991048E+03	6.760936E-17	8.415846E-18
6.000951E+03	6.844924E-17	8.507045E-18
6.010853E+03	6.930394E-17	8.599868E-18
6.020756E+03	7.016971E-17	8.693849E-18
6.030658E+03	7.104680E-17	8.789017E-18
6.040561E+03	7.193122E-17	8.884880E-18
6.050463E+03	7.282218E-17	8.981343E-18
6.060366E+03	7.371621E-17	9.077981E-18
6.070269E+03	7.461230E-17	9.174674E-18
6.080171E+03	7.550665E-17	9.270963E-18
6.090074E+03	7.639615E-17	9.366475E-18
6.099976E+03	7.727944E-17	9.461051E-18
6.109879E+03	7.815228E-17	9.554185E-18
6.119781E+03	7.901319E-17	9.645709E-18
6.129684E+03	7.985980E-17	9.735346E-18
6.139586E+03	8.069020E-17	9.822882E-18
6.149489E+03	8.150336E-17	9.908205E-18
6.159392E+03	8.230050E-17	9.991481E-18
6.169294E+03	8.308088E-17	1.007263E-17
6.179197E+03	8.384505E-17	1.015175E-17
6.189099E+03	8.459358E-17	1.022891E-17
6.199002E+03	8.532938E-17	1.030448E-17
6.208904E+03	8.605099E-17	1.037830E-17
6.218807E+03	8.675934E-17	1.045049E-17
6.228709E+03	8.745652E-17	1.052131E-17
6.238612E+03	8.814373E-17	1.059090E-17
6.248515E+03	8.882063E-17	1.065923E-17
6.258417E+03	8.948737E-17	1.072632E-17
6.268320E+03	9.014612E-17	1.079244E-17
6.278222E+03	9.079559E-17	1.085742E-17
6.288125E+03	9.143681E-17	1.092140E-17
6.298027E+03	9.206971E-17	1.098437E-17
6.307930E+03	9.269402E-17	1.104629E-17
6.317833E+03	9.330934E-17	1.110713E-17
6.327735E+03	9.391543E-17	1.116686E-17
6.337638E+03	9.451163E-17	1.122540E-17
6.347540E+03	9.509618E-17	1.128253E-17
6.357443E+03	9.566972E-17	1.133835E-17
6.367345E+03	9.623161E-17	1.139278E-17
6.377248E+03	9.678242E-17	1.144588E-17
6.387150E+03	9.732289E-17	1.149775E-17
6.397053E+03	9.785085E-17	1.154813E-17
6.406956E+03	9.836857E-17	1.159729E-17
6.416858E+03	9.887534E-17	1.164515E-17
6.426761E+03	9.937214E-17	1.169183E-17
6.436663E+03	9.985688E-17	1.173708E-17
6.446566E+03	1.003323E-16	1.178123E-17
6.456468E+03	1.007964E-16	1.182403E-17
6.466371E+03	1.012507E-16	1.186567E-17
6.476273E+03	1.016931E-16	1.190591E-17
6.486176E+03	1.021254E-16	1.194497E-17
6.496079E+03	1.025491E-16	1.198300E-17
6.505981E+03	1.029610E-16	1.201966E-17
6.515884E+03	1.033630E-16	1.205514E-17
6.525786E+03	1.037569E-16	1.208966E-17
6.535689E+03	1.041394E-16	1.212286E-17
6.545591E+03	1.045143E-16	1.215516E-17
6.555494E+03	1.048783E-16	1.218619E-17
6.565396E+03	1.052352E-16	1.221637E-17
6.575299E+03	1.055815E-16	1.224533E-17
6.585202E+03	1.059192E-16	1.227327E-17
6.595104E+03	1.062481E-16	1.230020E-17
6.605007E+03	1.065667E-16	1.232592E-17
6.614909E+03	1.068763E-16	1.235060E-17
6.624812E+03	1.071753E-16	1.237405E-17
6.634714E+03	1.074633E-16	1.239623E-17
6.644617E+03	1.077420E-16	1.241733E-17
6.654520E+03	1.080093E-16	1.243711E-17
6.664422E+03	1.082630E-16	1.245534E-17
6.674325E+03	1.085067E-16	1.247242E-17
6.684227E+03	1.087364E-16	1.248789E-17
6.694130E+03	1.089538E-16	1.250195E-17
6.704032E+03	1.091586E-16	1.251460E-17
6.713935E+03	1.093486E-16	1.252555E-17
6.723837E+03	1.095238E-16	1.253482E-17
6.733740E+03	1.096838E-16	1.254237E-17
6.743643E+03	1.098304E-16	1.254842E-17
6.753545E+03	1.099613E-16	1.255270E-17
6.763448E+03	1.100744E-16	1.255498E-17
6.773350E+03	1.101713E-16	1.255545E-17
6.783253E+03	1.102519E-16	1.255411E-17
6.793155E+03	1.103160E-16	1.255092E-17
6.803058E+03	1.103613E-16	1.254566E-17
6.812960E+03	1.103878E-16	1.253830E-17
6.822863E+03	1.103972E-16	1.252907E-17
6.832766E+03	1.103875E-16	1.251774E-17
6.842668E+03	1.103585E-16	1.250428E-17
6.852571E+03	1.103101E-16	1.248872E-17
6.862473E+03	1.102423E-16	1.247103E-17
6.872376E+03	1.101551E-16	1.245124E-17
6.882278E+03	1.100483E-16	1.242935E-17
6.892181E+03	1.099200E-16	1.240511E-17
6.902083E+03	1.097702E-16	1.237856E-17
6.911986E+03	1.096010E-16	1.234993E-17
6.921889E+03	1.094125E-16	1.231927E-17
6.931791E+03	1.092007E-16	1.228610E-17
6.941694E+03	1.089701E-16	1.225096E-17
6.951596E+03	1.087188E-16	1.221363E-17
6.961499E+03	1.084472E-16	1.217417E-17
6.971401E+03	1.081535E-16	1.213238E-17
6.981304E+03	1.078404E-16	1.208859E-17
6.991207E+03	1.075084E-16	1.204284E-17
7.001109E+03	1.071579E-16	1.199520E-17
7.011012E+03	1.067875E-16	1.194552E-17
7.020914E+03	1.063978E-16	1.189387E-17
7.030817E+03	1.059915E-16	1.184058E-17
7.040719E+03	1.055674E-16	1.178548E-17
7.050622E+03	1.051240E-16	1.172845E-17
7.060524E+03	1.046665E-16	1.167005E-17
7.070427E+03	1.041937E-16	1.161018E-17
7.080330E+03	1.037064E-16	1.154892E-17
7.090232E+03	1.032038E-16	1.148619E-17
7.100135E+03	1.026890E-16	1.142235E-17
7.110037E+03	1.021633E-16	1.135753E-17
7.119940E+03	1.016260E-16	1.129167E-17
7.129842E+03	1.010784E-16	1.122492E-17
7.139745E+03	1.005241E-16	1.115768E-17
7.149647E+03	9.996233E-17	1.108989E-17
7.159550E+03	9.939483E-17	1.102172E-17
7.169453E+03	9.882305E-17	1.095334E-17
7.179355E+03	9.824839E-17	1.088493E-17
7.189258E+03	9.767028E-17	1.081640E-17
7.199160E+03	9.709405E-17	1.074836E-17
7.209063E+03	9.651891E-17	1.068073E-17
7.218965E+03	9.594188E-17	1.061317E-17
7.228868E+03	9.537007E-17	1.054648E-17
7.238770E+03	9.479824E-17	1.048008E-17
7.248673E+03	9.423118E-17	1.041449E-17
7.258576E+03	9.366761E-17	1.034958E-17
7.268478E+03	9.310814E-17	1.028543E-17
7.278381E+03	9.255134E-17	1.022187E-17
7.288283E+03	9.199784E-17	1.015897E-17
7.298186E+03	9.144838E-17	1.009682E-17
7.308088E+03	9.090350E-17	1.003548E-17
7.317991E+03	9.036027E-17	9.974633E-18
7.327894E+03	8.982141E-17	9.914572E-18
7.337796E+03	8.928414E-17	9.854995E-18
7.347699E+03	8.874771E-17	9.795822E-18
7.357601E+03	8.821145E-17	9.736979E-18
7.367504E+03	8.767891E-17	9.678860E-18
7.377406E+03	8.715130E-17	9.621599E-18
7.387309E+03	8.663417E-17	9.565808E-18
7.397211E+03	8.613267E-17	9.512054E-18
7.407114E+03	8.564625E-17	9.460263E-18
7.417017E+03	8.517799E-17	9.410768E-18
7.426919E+03	8.473288E-17	9.364106E-18
7.436822E+03	8.430784E-17	9.319930E-18
7.446724E+03	8.390725E-17	9.278714E-18
7.456627E+03	8.353126E-17	9.240467E-18
7.466529E+03	8.317981E-17	9.205177E-18
7.476432E+03	8.285255E-17	9.172796E-18
7.486334E+03	8.254920E-17	9.143288E-18
7.496237E+03	8.227104E-17	9.116790E-18
7.506140E+03	8.201564E-17	9.093027E-18
7.516042E+03	8.178414E-17	9.072121E-18
7.525945E+03	8.157397E-17	9.053782E-18
7.535847E+03	8.138595E-17	9.038100E-18
7.545750E+03	8.121940E-17	9.024991E-18
7.555652E+03	8.107136E-17	9.014128E-18
7.565555E+03	8.094276E-17	9.005609E-18
7.575457E+03	8.083276E-17	8.999337E-18
7.585360E+03	8.073827E-17	8.994968E-18
7.595263E+03	8.066031E-17	8.992610E-18
7.605165E+03	8.059603E-17	8.991944E-18
7.615068E+03	8.054815E-17	8.993272E-18
7.624970E+03	8.051197E-17	8.996066E-18
7.634873E+03	8.048851E-17	9.000438E-18
7.644775E+03	8.047479E-17	9.006052E-18
7.654678E+03	8.047198E-17	9.013037E-18
7.664581E+03	8.047910E-17	9.021280E-18
7.674483E+03	8.049525E-17	9.030679E-18
7.684386E+03	8.051768E-17	9.040923E-18
