#wls	flux	fluxerr
1.584409E+03	5.519854E-17	2.626701E-17
1.624020E+03	5.757341E-17	2.739155E-17
1.663630E+03	5.980115E-17	2.844543E-17
1.703240E+03	6.183724E-17	2.940748E-17
1.742850E+03	6.365752E-17	3.026625E-17
1.782461E+03	6.519038E-17	3.098774E-17
1.822071E+03	6.635742E-17	3.153476E-17
1.861681E+03	6.708000E-17	3.187006E-17
1.901291E+03	6.725277E-17	3.194375E-17
1.940902E+03	6.680253E-17	3.172125E-17
1.980512E+03	6.569973E-17	3.118880E-17
2.020122E+03	6.404069E-17	3.039236E-17
2.059732E+03	6.208001E-17	2.945298E-17
2.099342E+03	6.025234E-17	2.857695E-17
2.138953E+03	5.902554E-17	2.798607E-17
2.178563E+03	5.865734E-17	2.780223E-17
2.218173E+03	5.906432E-17	2.798550E-17
2.257783E+03	5.989755E-17	2.837022E-17
2.297394E+03	6.073342E-17	2.875558E-17
2.337004E+03	6.125880E-17	2.899336E-17
2.376614E+03	6.128906E-17	2.899636E-17
2.416224E+03	6.075633E-17	2.873275E-17
2.455835E+03	5.967726E-17	2.821073E-17
2.495445E+03	5.809515E-17	2.745110E-17
2.535055E+03	5.607860E-17	2.648657E-17
2.574665E+03	5.369838E-17	2.535086E-17
2.614276E+03	5.102787E-17	2.407888E-17
2.653886E+03	4.813229E-17	2.270161E-17
2.693496E+03	4.507459E-17	2.124893E-17
2.733106E+03	4.191331E-17	1.974861E-17
2.772716E+03	3.870273E-17	1.822632E-17
2.812327E+03	3.549387E-17	1.670619E-17
2.851937E+03	3.233548E-17	1.521120E-17
2.891547E+03	2.927190E-17	1.376223E-17
2.931157E+03	2.634300E-17	1.237799E-17
2.970768E+03	2.358167E-17	1.107388E-17
2.980670E+03	2.292124E-17	1.076211E-17
2.990573E+03	2.227266E-17	1.045598E-17
3.000475E+03	2.163710E-17	1.015606E-17
3.010378E+03	2.101421E-17	9.862158E-18
3.020280E+03	2.040457E-17	9.574553E-18
3.030183E+03	1.980866E-17	9.293474E-18
3.040086E+03	1.922592E-17	9.018649E-18
3.049988E+03	1.865834E-17	8.751017E-18
3.059891E+03	1.810577E-17	8.490493E-18
3.069793E+03	1.756854E-17	8.237242E-18
3.079696E+03	1.704591E-17	7.990905E-18
3.089598E+03	1.653756E-17	7.751335E-18
3.099501E+03	1.604385E-17	7.518693E-18
3.109403E+03	1.556384E-17	7.292545E-18
3.119306E+03	1.509819E-17	7.073185E-18
3.129209E+03	1.464576E-17	6.860086E-18
3.139111E+03	1.420716E-17	6.653524E-18
3.149014E+03	1.378162E-17	6.453145E-18
3.158916E+03	1.336943E-17	6.259077E-18
3.168819E+03	1.297012E-17	6.071094E-18
3.178721E+03	1.258371E-17	5.889207E-18
3.188624E+03	1.220995E-17	5.713300E-18
3.198526E+03	1.184865E-17	5.543271E-18
3.208429E+03	1.149937E-17	5.378922E-18
3.218332E+03	1.116228E-17	5.220325E-18
3.228234E+03	1.083697E-17	5.067284E-18
3.238137E+03	1.052337E-17	4.919772E-18
3.248039E+03	1.022108E-17	4.777588E-18
3.257942E+03	9.929870E-18	4.640631E-18
3.267844E+03	9.649650E-18	4.508854E-18
3.277747E+03	9.380030E-18	4.382071E-18
3.287650E+03	9.120914E-18	4.260237E-18
3.297552E+03	8.872029E-18	4.143220E-18
3.307455E+03	8.632889E-18	4.030792E-18
3.317357E+03	8.403499E-18	3.922954E-18
3.327260E+03	8.183481E-18	3.819525E-18
3.337162E+03	7.972592E-18	3.720392E-18
3.347065E+03	7.770596E-18	3.625441E-18
3.356967E+03	7.577051E-18	3.534464E-18
3.366870E+03	7.391921E-18	3.447443E-18
3.376773E+03	7.214880E-18	3.364223E-18
3.386675E+03	7.045612E-18	3.284656E-18
3.396578E+03	6.883894E-18	3.208635E-18
3.406480E+03	6.729528E-18	3.136066E-18
3.416383E+03	6.582133E-18	3.066770E-18
3.426285E+03	6.441599E-18	3.000694E-18
3.436188E+03	6.307581E-18	2.937677E-18
3.446090E+03	6.179903E-18	2.877633E-18
3.455993E+03	6.058320E-18	2.820448E-18
3.465896E+03	5.942601E-18	2.766012E-18
3.475798E+03	5.832524E-18	2.714220E-18
3.485701E+03	5.727880E-18	2.664975E-18
3.495603E+03	5.628408E-18	2.618153E-18
3.505506E+03	5.533864E-18	2.573638E-18
3.515408E+03	5.444078E-18	2.531352E-18
3.525311E+03	5.358829E-18	2.491190E-18
3.535213E+03	5.277968E-18	2.453081E-18
3.545116E+03	5.201243E-18	2.416907E-18
3.555019E+03	5.128525E-18	2.382608E-18
3.564921E+03	5.059638E-18	2.350100E-18
3.574824E+03	4.994516E-18	2.319351E-18
3.584726E+03	4.932947E-18	2.290263E-18
3.594629E+03	4.874826E-18	2.262785E-18
3.604531E+03	4.819914E-18	2.236805E-18
3.614434E+03	4.768121E-18	2.212282E-18
3.624337E+03	4.719318E-18	2.189154E-18
3.634239E+03	4.673380E-18	2.167362E-18
3.644142E+03	4.630229E-18	2.146869E-18
3.654044E+03	4.589790E-18	2.127640E-18
3.663947E+03	4.551948E-18	2.109621E-18
3.673849E+03	4.516672E-18	2.092797E-18
3.683752E+03	4.483853E-18	2.077116E-18
3.693654E+03	4.453498E-18	2.062581E-18
3.703557E+03	4.425538E-18	2.049159E-18
3.713460E+03	4.399903E-18	2.036817E-18
3.723362E+03	4.376563E-18	2.025541E-18
3.733265E+03	4.355523E-18	2.015331E-18
3.743167E+03	4.336713E-18	2.006156E-18
3.753070E+03	4.320137E-18	1.998016E-18
3.762972E+03	4.305726E-18	1.990878E-18
3.772875E+03	4.293445E-18	1.984726E-18
3.782777E+03	4.283298E-18	1.979561E-18
3.792680E+03	4.275287E-18	1.975383E-18
3.802583E+03	4.269341E-18	1.972158E-18
3.812485E+03	4.265497E-18	1.969904E-18
3.822388E+03	4.263650E-18	1.968570E-18
3.832290E+03	4.263871E-18	1.968188E-18
3.842193E+03	4.266054E-18	1.968711E-18
3.852095E+03	4.270272E-18	1.970169E-18
3.861998E+03	4.276453E-18	1.972530E-18
3.871900E+03	4.284598E-18	1.975793E-18
3.881803E+03	4.294673E-18	1.979941E-18
3.891706E+03	4.306679E-18	1.984975E-18
3.901608E+03	4.320580E-18	1.990878E-18
3.911511E+03	4.336413E-18	1.997665E-18
3.921413E+03	4.354107E-18	2.005304E-18
3.931316E+03	4.373666E-18	2.013794E-18
3.941218E+03	4.395054E-18	2.023120E-18
3.951121E+03	4.418307E-18	2.033297E-18
3.961024E+03	4.443394E-18	2.044310E-18
3.970926E+03	4.470280E-18	2.056142E-18
3.980829E+03	4.498932E-18	2.068778E-18
3.990731E+03	4.529389E-18	2.082234E-18
4.000634E+03	4.561582E-18	2.096479E-18
4.010536E+03	4.595551E-18	2.111530E-18
4.020439E+03	4.631228E-18	2.127354E-18
4.030341E+03	4.668619E-18	2.143955E-18
4.040244E+03	4.707726E-18	2.161332E-18
4.050147E+03	4.748521E-18	2.179472E-18
4.060049E+03	4.790972E-18	2.198359E-18
4.069952E+03	4.835049E-18	2.217980E-18
4.079854E+03	4.880797E-18	2.238353E-18
4.089757E+03	4.928149E-18	2.259448E-18
4.099659E+03	4.977114E-18	2.281268E-18
4.109562E+03	5.027623E-18	2.303780E-18
4.119464E+03	5.079686E-18	2.326990E-18
4.129367E+03	5.133315E-18	2.350901E-18
4.139270E+03	5.188441E-18	2.375481E-18
4.149172E+03	5.245076E-18	2.400735E-18
4.159075E+03	5.303150E-18	2.426631E-18
4.168977E+03	5.362675E-18	2.453173E-18
4.178880E+03	5.423581E-18	2.480328E-18
4.188782E+03	5.485879E-18	2.508102E-18
4.198685E+03	5.549498E-18	2.536460E-18
4.208587E+03	5.614404E-18	2.565388E-18
4.218490E+03	5.680522E-18	2.594849E-18
4.228393E+03	5.747862E-18	2.624848E-18
4.238295E+03	5.816343E-18	2.655348E-18
4.248198E+03	5.885930E-18	2.686332E-18
4.258100E+03	5.956536E-18	2.717759E-18
4.268003E+03	6.028073E-18	2.749590E-18
4.277905E+03	6.100494E-18	2.781802E-18
4.287808E+03	6.173755E-18	2.814374E-18
4.297711E+03	6.247754E-18	2.847260E-18
4.307613E+03	6.322439E-18	2.880436E-18
4.317516E+03	6.397704E-18	2.913853E-18
4.327418E+03	6.473538E-18	2.947506E-18
4.337321E+03	6.549883E-18	2.981367E-18
4.347223E+03	6.626834E-18	3.015481E-18
4.357126E+03	6.704331E-18	3.049819E-18
4.367028E+03	6.782421E-18	3.084402E-18
4.376931E+03	6.861100E-18	3.119229E-18
4.386834E+03	6.940475E-18	3.154347E-18
4.396736E+03	7.020489E-18	3.189730E-18
4.406639E+03	7.101143E-18	3.225379E-18
4.416541E+03	7.182496E-18	3.261320E-18
4.426444E+03	7.264556E-18	3.297555E-18
4.436346E+03	7.347327E-18	3.334087E-18
4.446249E+03	7.430756E-18	3.370891E-18
4.456151E+03	7.514916E-18	3.408000E-18
4.466054E+03	7.599752E-18	3.445389E-18
4.475957E+03	7.685285E-18	3.483066E-18
4.485859E+03	7.771524E-18	3.521035E-18
4.495762E+03	7.858357E-18	3.559245E-18
4.505664E+03	7.945868E-18	3.597734E-18
4.515567E+03	8.034014E-18	3.636482E-18
4.525469E+03	8.122809E-18	3.675495E-18
4.535372E+03	8.212141E-18	3.714721E-18
4.545274E+03	8.302109E-18	3.754206E-18
4.555177E+03	8.392608E-18	3.793901E-18
4.565080E+03	8.483730E-18	3.833847E-18
4.574982E+03	8.575375E-18	3.873999E-18
4.584885E+03	8.667584E-18	3.914375E-18
4.594787E+03	8.760309E-18	3.954953E-18
4.604690E+03	8.853683E-18	3.995793E-18
4.614592E+03	8.947606E-18	4.036848E-18
4.624495E+03	9.042210E-18	4.078179E-18
4.634398E+03	9.137480E-18	4.119778E-18
4.644300E+03	9.233395E-18	4.161635E-18
4.654203E+03	9.330110E-18	4.203820E-18
4.664105E+03	9.427533E-18	4.246290E-18
4.674008E+03	9.525751E-18	4.289085E-18
4.683910E+03	9.624672E-18	4.332161E-18
4.693813E+03	9.724375E-18	4.375555E-18
4.703715E+03	9.824688E-18	4.419189E-18
4.713618E+03	9.925699E-18	4.463102E-18
4.723521E+03	1.002731E-17	4.507250E-18
4.733423E+03	1.012963E-17	4.551677E-18
4.743326E+03	1.023256E-17	4.596343E-18
4.753228E+03	1.033608E-17	4.641241E-18
4.763131E+03	1.044022E-17	4.686378E-18
4.773033E+03	1.054497E-17	4.731750E-18
4.782936E+03	1.065033E-17	4.777360E-18
4.792838E+03	1.075619E-17	4.823155E-18
4.802741E+03	1.086266E-17	4.869184E-18
4.812644E+03	1.096973E-17	4.915444E-18
4.822546E+03	1.107728E-17	4.961880E-18
4.832449E+03	1.118531E-17	5.008496E-18
4.842351E+03	1.129391E-17	5.055324E-18
4.852254E+03	1.140285E-17	5.102263E-18
4.862156E+03	1.151232E-17	5.149398E-18
4.872059E+03	1.162219E-17	5.196672E-18
4.881961E+03	1.173230E-17	5.244017E-18
4.891864E+03	1.184275E-17	5.291466E-18
4.901767E+03	1.195347E-17	5.338999E-18
4.911669E+03	1.206432E-17	5.386543E-18
4.921572E+03	1.217533E-17	5.434121E-18
4.931474E+03	1.228622E-17	5.481601E-18
4.941377E+03	1.239713E-17	5.529049E-18
4.951279E+03	1.250787E-17	5.576381E-18
4.961182E+03	1.261822E-17	5.623495E-18
4.971085E+03	1.272821E-17	5.670405E-18
4.980987E+03	1.283760E-17	5.717003E-18
4.990890E+03	1.294626E-17	5.763234E-18
5.000792E+03	1.305405E-17	5.809039E-18
5.010695E+03	1.316084E-17	5.854356E-18
5.020597E+03	1.326636E-17	5.899061E-18
5.030500E+03	1.337055E-17	5.943137E-18
5.040402E+03	1.347312E-17	5.986451E-18
5.050305E+03	1.357389E-17	6.028926E-18
5.060208E+03	1.367255E-17	6.070422E-18
5.070110E+03	1.376902E-17	6.110903E-18
5.080013E+03	1.386282E-17	6.150164E-18
5.089915E+03	1.395403E-17	6.188235E-18
5.099818E+03	1.404215E-17	6.224897E-18
5.109720E+03	1.412709E-17	6.260116E-18
5.119623E+03	1.420848E-17	6.293726E-18
5.129525E+03	1.428597E-17	6.325574E-18
5.139428E+03	1.435945E-17	6.355613E-18
5.149331E+03	1.442857E-17	6.383688E-18
5.159233E+03	1.449309E-17	6.409699E-18
5.169136E+03	1.455278E-17	6.433545E-18
5.179038E+03	1.460728E-17	6.455072E-18
5.188941E+03	1.465639E-17	6.474187E-18
5.198843E+03	1.469975E-17	6.490743E-18
5.208746E+03	1.473732E-17	6.504719E-18
5.218648E+03	1.476877E-17	6.515976E-18
5.228551E+03	1.479396E-17	6.524456E-18
5.238454E+03	1.481274E-17	6.530092E-18
5.248356E+03	1.482486E-17	6.532778E-18
5.258259E+03	1.483023E-17	6.532482E-18
5.268161E+03	1.482878E-17	6.529174E-18
5.278064E+03	1.482050E-17	6.522852E-18
5.287966E+03	1.480524E-17	6.513455E-18
5.297869E+03	1.478317E-17	6.501067E-18
5.307772E+03	1.475441E-17	6.485734E-18
5.317674E+03	1.471904E-17	6.467504E-18
5.327577E+03	1.467709E-17	6.446390E-18
5.337479E+03	1.462905E-17	6.422609E-18
5.347382E+03	1.457502E-17	6.396213E-18
5.357284E+03	1.451557E-17	6.367449E-18
5.367187E+03	1.445086E-17	6.336398E-18
5.377089E+03	1.438141E-17	6.303288E-18
5.386992E+03	1.430761E-17	6.268291E-18
5.396895E+03	1.423018E-17	6.231721E-18
5.406797E+03	1.414942E-17	6.193721E-18
5.416700E+03	1.406568E-17	6.154440E-18
5.426602E+03	1.397920E-17	6.113987E-18
5.436505E+03	1.389051E-17	6.072593E-18
5.446407E+03	1.379988E-17	6.030382E-18
5.456310E+03	1.370775E-17	5.987543E-18
5.466212E+03	1.361456E-17	5.944272E-18
5.476115E+03	1.352078E-17	5.900772E-18
5.486018E+03	1.342684E-17	5.857232E-18
5.495920E+03	1.333334E-17	5.813911E-18
5.505823E+03	1.324070E-17	5.771001E-18
5.515725E+03	1.314963E-17	5.728804E-18
5.525628E+03	1.306040E-17	5.687439E-18
5.535530E+03	1.297381E-17	5.647249E-18
5.545433E+03	1.289008E-17	5.608335E-18
5.555335E+03	1.280982E-17	5.570959E-18
5.565238E+03	1.273361E-17	5.535365E-18
5.575141E+03	1.266160E-17	5.501626E-18
5.585043E+03	1.259457E-17	5.470069E-18
5.594946E+03	1.253273E-17	5.440789E-18
5.604848E+03	1.247627E-17	5.413868E-18
5.614751E+03	1.242590E-17	5.389600E-18
5.624653E+03	1.238160E-17	5.367981E-18
5.634556E+03	1.234374E-17	5.349167E-18
5.644459E+03	1.231266E-17	5.333303E-18
5.654361E+03	1.228856E-17	5.320465E-18
5.664264E+03	1.227158E-17	5.310719E-18
5.674166E+03	1.226189E-17	5.304129E-18
5.684069E+03	1.225974E-17	5.300796E-18
5.693971E+03	1.226537E-17	5.300826E-18
5.703874E+03	1.227863E-17	5.304145E-18
5.713776E+03	1.229998E-17	5.310950E-18
5.723679E+03	1.232926E-17	5.321168E-18
5.733582E+03	1.236679E-17	5.334927E-18
5.743484E+03	1.241252E-17	5.352204E-18
5.753387E+03	1.246662E-17	5.373074E-18
5.763289E+03	1.252916E-17	5.397550E-18
5.773192E+03	1.260033E-17	5.425716E-18
5.783094E+03	1.268003E-17	5.457525E-18
5.792997E+03	1.276832E-17	5.492991E-18
5.802899E+03	1.286536E-17	5.532185E-18
5.812802E+03	1.297132E-17	5.575176E-18
5.822705E+03	1.308598E-17	5.621854E-18
5.832607E+03	1.320961E-17	5.672342E-18
5.842510E+03	1.334212E-17	5.726587E-18
5.852412E+03	1.348363E-17	5.784639E-18
5.862315E+03	1.363416E-17	5.846503E-18
5.872217E+03	1.379354E-17	5.912097E-18
5.882120E+03	1.396189E-17	5.981470E-18
5.892022E+03	1.413917E-17	6.054597E-18
5.901925E+03	1.432515E-17	6.131376E-18
5.911828E+03	1.452008E-17	6.211912E-18
5.921730E+03	1.472352E-17	6.296006E-18
5.931633E+03	1.493552E-17	6.383677E-18
5.941535E+03	1.515592E-17	6.474851E-18
5.951438E+03	1.538436E-17	6.569371E-18
5.961340E+03	1.562081E-17	6.667216E-18
5.971243E+03	1.586465E-17	6.768122E-18
5.981146E+03	1.611598E-17	6.872125E-18
5.991048E+03	1.637411E-17	6.978923E-18
6.000951E+03	1.663887E-17	7.088446E-18
6.010853E+03	1.690969E-17	7.200441E-18
6.020756E+03	1.718613E-17	7.314725E-18
6.030658E+03	1.746755E-17	7.431013E-18
6.040561E+03	1.775321E-17	7.548997E-18
6.050463E+03	1.804279E-17	7.668538E-18
6.060366E+03	1.833508E-17	7.789112E-18
6.070269E+03	1.862969E-17	7.910560E-18
6.080171E+03	1.892554E-17	8.032415E-18
6.090074E+03	1.922197E-17	8.154404E-18
6.099976E+03	1.951734E-17	8.275831E-18
6.109879E+03	1.981120E-17	8.396503E-18
6.119781E+03	2.010210E-17	8.515806E-18
6.129684E+03	2.038906E-17	8.633329E-18
6.139586E+03	2.067084E-17	8.748553E-18
6.149489E+03	2.094731E-17	8.861424E-18
6.159392E+03	2.121862E-17	8.972011E-18
6.169294E+03	2.148508E-17	9.080444E-18
6.179197E+03	2.174705E-17	9.186881E-18
6.189099E+03	2.200416E-17	9.291169E-18
6.199002E+03	2.225752E-17	9.393780E-18
6.208904E+03	2.250659E-17	9.494491E-18
6.218807E+03	2.275208E-17	9.593602E-18
6.228709E+03	2.299444E-17	9.691306E-18
6.238612E+03	2.323332E-17	9.787457E-18
6.248515E+03	2.346926E-17	9.882284E-18
6.258417E+03	2.370259E-17	9.975930E-18
6.268320E+03	2.393367E-17	1.006855E-17
6.278222E+03	2.416222E-17	1.016002E-17
6.288125E+03	2.438866E-17	1.025053E-17
6.298027E+03	2.461312E-17	1.034012E-17
6.307930E+03	2.483568E-17	1.042884E-17
6.317833E+03	2.505615E-17	1.051661E-17
6.327735E+03	2.527428E-17	1.060332E-17
6.337638E+03	2.548984E-17	1.068887E-17
6.347540E+03	2.570295E-17	1.077332E-17
6.357443E+03	2.591336E-17	1.085657E-17
6.367345E+03	2.612002E-17	1.093817E-17
6.377248E+03	2.632418E-17	1.101866E-17
6.387150E+03	2.652594E-17	1.109808E-17
6.397053E+03	2.672584E-17	1.117664E-17
6.406956E+03	2.692480E-17	1.125475E-17
6.416858E+03	2.712260E-17	1.133230E-17
6.426761E+03	2.732022E-17	1.140971E-17
6.436663E+03	2.751783E-17	1.148706E-17
6.446566E+03	2.771606E-17	1.156459E-17
6.456468E+03	2.791424E-17	1.164203E-17
6.466371E+03	2.811383E-17	1.172000E-17
6.476273E+03	2.831416E-17	1.179821E-17
6.486176E+03	2.851584E-17	1.187691E-17
6.496079E+03	2.871906E-17	1.195619E-17
6.505981E+03	2.892353E-17	1.203592E-17
6.515884E+03	2.912985E-17	1.211635E-17
6.525786E+03	2.933820E-17	1.219755E-17
6.535689E+03	2.954825E-17	1.227940E-17
6.545591E+03	2.976013E-17	1.236193E-17
6.555494E+03	2.997397E-17	1.244520E-17
6.565396E+03	3.019036E-17	1.252947E-17
6.575299E+03	3.040844E-17	1.261436E-17
6.585202E+03	3.062879E-17	1.270012E-17
6.595104E+03	3.085150E-17	1.278679E-17
6.605007E+03	3.107612E-17	1.287417E-17
6.614909E+03	3.130325E-17	1.296252E-17
6.624812E+03	3.153241E-17	1.305164E-17
6.634714E+03	3.176419E-17	1.314177E-17
6.644617E+03	3.199753E-17	1.323246E-17
6.654520E+03	3.223301E-17	1.332396E-17
6.664422E+03	3.247118E-17	1.341650E-17
6.674325E+03	3.271095E-17	1.350962E-17
6.684227E+03	3.295286E-17	1.360355E-17
6.694130E+03	3.319634E-17	1.369804E-17
6.704032E+03	3.344193E-17	1.379333E-17
6.713935E+03	3.368902E-17	1.388916E-17
6.723837E+03	3.393756E-17	1.398551E-17
6.733740E+03	3.418810E-17	1.408260E-17
6.743643E+03	3.443936E-17	1.417991E-17
6.753545E+03	3.469252E-17	1.427792E-17
6.763448E+03	3.494624E-17	1.437609E-17
6.773350E+03	3.520171E-17	1.447489E-17
6.783253E+03	3.545757E-17	1.457378E-17
6.793155E+03	3.571369E-17	1.467269E-17
6.803058E+03	3.597062E-17	1.477186E-17
6.812960E+03	3.622827E-17	1.487124E-17
6.822863E+03	3.648514E-17	1.497023E-17
6.832766E+03	3.674248E-17	1.506933E-17
6.842668E+03	3.699946E-17	1.516821E-17
6.852571E+03	3.725666E-17	1.526711E-17
6.862473E+03	3.751253E-17	1.536538E-17
6.872376E+03	3.776763E-17	1.546326E-17
6.882278E+03	3.802180E-17	1.556069E-17
6.892181E+03	3.827419E-17	1.565732E-17
6.902083E+03	3.852537E-17	1.575338E-17
6.911986E+03	3.877521E-17	1.584882E-17
6.921889E+03	3.902284E-17	1.594329E-17
6.931791E+03	3.926810E-17	1.603673E-17
6.941694E+03	3.951087E-17	1.612909E-17
6.951596E+03	3.975180E-17	1.622063E-17
6.961499E+03	3.998924E-17	1.631068E-17
6.971401E+03	4.022464E-17	1.639984E-17
6.981304E+03	4.045633E-17	1.648743E-17
6.991207E+03	4.068502E-17	1.657374E-17
7.001109E+03	4.090983E-17	1.665842E-17
7.011012E+03	4.113152E-17	1.674177E-17
7.020914E+03	4.135004E-17	1.682378E-17
7.030817E+03	4.156454E-17	1.690411E-17
7.040719E+03	4.177416E-17	1.698240E-17
7.050622E+03	4.198053E-17	1.705933E-17
7.060524E+03	4.218282E-17	1.713457E-17
7.070427E+03	4.238106E-17	1.720811E-17
7.080330E+03	4.257525E-17	1.727998E-17
7.090232E+03	4.276454E-17	1.734982E-17
7.100135E+03	4.294983E-17	1.741801E-17
7.110037E+03	4.313028E-17	1.748421E-17
7.119940E+03	4.330592E-17	1.754843E-17
7.129842E+03	4.347769E-17	1.761105E-17
7.139745E+03	4.364474E-17	1.767174E-17
7.149647E+03	4.380803E-17	1.773090E-17
7.159550E+03	4.396578E-17	1.778779E-17
7.169453E+03	4.411894E-17	1.784281E-17
7.179355E+03	4.426756E-17	1.789598E-17
7.189258E+03	4.441169E-17	1.794733E-17
7.199160E+03	4.455136E-17	1.799686E-17
7.209063E+03	4.468662E-17	1.804462E-17
7.218965E+03	4.481655E-17	1.809022E-17
7.228868E+03	4.494214E-17	1.813407E-17
7.238770E+03	4.506344E-17	1.817619E-17
7.248673E+03	4.518048E-17	1.821660E-17
7.258576E+03	4.529232E-17	1.825492E-17
7.268478E+03	4.539997E-17	1.829157E-17
7.278381E+03	4.550450E-17	1.832697E-17
7.288283E+03	4.560396E-17	1.836034E-17
7.298186E+03	4.569940E-17	1.839212E-17
7.308088E+03	4.579089E-17	1.842233E-17
7.317991E+03	4.587952E-17	1.845141E-17
7.327894E+03	4.596437E-17	1.847899E-17
7.337796E+03	4.604656E-17	1.850554E-17
7.347699E+03	4.612723E-17	1.853150E-17
7.357601E+03	4.620549E-17	1.855653E-17
7.367504E+03	4.628355E-17	1.858151E-17
7.377406E+03	4.635947E-17	1.860566E-17
7.387309E+03	4.643443E-17	1.862947E-17
7.397211E+03	4.650753E-17	1.865257E-17
7.407114E+03	4.657996E-17	1.867544E-17
7.417017E+03	4.664972E-17	1.869728E-17
7.426919E+03	4.671799E-17	1.871857E-17
7.436822E+03	4.678486E-17	1.873934E-17
7.446724E+03	4.684936E-17	1.875921E-17
7.456627E+03	4.691377E-17	1.877910E-17
7.466529E+03	4.697599E-17	1.879815E-17
7.476432E+03	4.703720E-17	1.881686E-17
7.486334E+03	4.709634E-17	1.883478E-17
7.496237E+03	4.715457E-17	1.885239E-17
7.506140E+03	4.721079E-17	1.886925E-17
7.516042E+03	4.726614E-17	1.888581E-17
7.525945E+03	4.731951E-17	1.890162E-17
7.535847E+03	4.737087E-17	1.891669E-17
7.545750E+03	4.742135E-17	1.893146E-17
7.555652E+03	4.746977E-17	1.894546E-17
7.565555E+03	4.751608E-17	1.895866E-17
7.575457E+03	4.756139E-17	1.897152E-17
7.585360E+03	4.760446E-17	1.898353E-17
7.595263E+03	4.764638E-17	1.899514E-17
7.605165E+03	4.768475E-17	1.900539E-17
7.615068E+03	4.772178E-17	1.901516E-17
7.624970E+03	4.775739E-17	1.902441E-17
7.634873E+03	4.779026E-17	1.903262E-17
7.644775E+03	4.782148E-17	1.904023E-17
7.654678E+03	4.784969E-17	1.904670E-17
7.664581E+03	4.787477E-17	1.905197E-17
7.674483E+03	4.789773E-17	1.905646E-17
7.684386E+03	4.791845E-17	1.906011E-17
