#wls	flux	fluxerr
1.584409E+03	1.140434E-12	3.688635E-12
1.624020E+03	1.134389E-12	3.688657E-12
1.663630E+03	1.122227E-12	3.668890E-12
1.703240E+03	1.102598E-12	3.624403E-12
1.742850E+03	1.076874E-12	3.559503E-12
1.782461E+03	1.043552E-12	3.468630E-12
1.822071E+03	1.003650E-12	3.354971E-12
1.861681E+03	9.558291E-13	3.213365E-12
1.901291E+03	9.014151E-13	3.048070E-12
1.940902E+03	8.396554E-13	2.855800E-12
1.980512E+03	7.730930E-13	2.645065E-12
2.020122E+03	7.031953E-13	2.420250E-12
2.059732E+03	6.349042E-13	2.198505E-12
2.099342E+03	5.721558E-13	1.993268E-12
2.138953E+03	5.193916E-13	1.820699E-12
2.178563E+03	4.767401E-13	1.681545E-12
2.218173E+03	4.425100E-13	1.570718E-12
2.257783E+03	4.119924E-13	1.471629E-12
2.297394E+03	3.826493E-13	1.375670E-12
2.337004E+03	3.522304E-13	1.274453E-12
2.376614E+03	3.207849E-13	1.168343E-12
2.416224E+03	2.882819E-13	1.056831E-12
2.455835E+03	2.559052E-13	9.444553E-13
2.495445E+03	2.241384E-13	8.327177E-13
2.535055E+03	1.939888E-13	7.256479E-13
2.574665E+03	1.657515E-13	6.242123E-13
2.614276E+03	1.400149E-13	5.309703E-13
2.653886E+03	1.168106E-13	4.460150E-13
2.693496E+03	9.636118E-14	3.705475E-13
2.733106E+03	7.852680E-14	3.040720E-13
2.772716E+03	6.327900E-14	2.468009E-13
2.812327E+03	5.037742E-14	1.978731E-13
2.851937E+03	3.966647E-14	1.569491E-13
2.891547E+03	3.087790E-14	1.230543E-13
2.931157E+03	2.379607E-14	9.554294E-14
2.964700E+03	2.841249E-14	1.147932E-13
2.977178E+03	2.753327E-14	1.115065E-13
2.994409E+03	2.631749E-14	1.069301E-13
2.997776E+03	2.610789E-14	1.061467E-13
2.998766E+03	2.606549E-14	1.059942E-13
3.003718E+03	2.574058E-14	1.047715E-13
3.006094E+03	2.558885E-14	1.042008E-13
3.010650E+03	2.528921E-14	1.030701E-13
3.013423E+03	2.511003E-14	1.023939E-13
3.013819E+03	2.509776E-14	1.023516E-13
3.015403E+03	2.500603E-14	1.020082E-13
3.018176E+03	2.483169E-14	1.013507E-13
3.018374E+03	2.483472E-14	1.013669E-13
3.018572E+03	2.482675E-14	1.013381E-13
3.018770E+03	2.481876E-14	1.013094E-13
3.021543E+03	2.463423E-14	1.006094E-13
3.021741E+03	2.462445E-14	1.005732E-13
3.022335E+03	2.458426E-14	1.004205E-13
3.023326E+03	2.452996E-14	1.002176E-13
3.024119E+03	2.447650E-14	1.000144E-13
3.026099E+03	2.433960E-14	9.949265E-14
3.026891E+03	2.428464E-14	9.928302E-14
3.027089E+03	2.426957E-14	9.922517E-14
3.027684E+03	2.422797E-14	9.906636E-14
3.027882E+03	2.420935E-14	9.899398E-14
3.028476E+03	2.417139E-14	9.885000E-14
3.029466E+03	2.410881E-14	9.861274E-14
3.030257E+03	2.404540E-14	9.836827E-14
3.031447E+03	2.395315E-14	9.801319E-14
3.032635E+03	2.386877E-14	9.769019E-14
3.032833E+03	2.384329E-14	9.758958E-14
3.033229E+03	2.380468E-14	9.743898E-14
3.034813E+03	2.369285E-14	9.701066E-14
3.035606E+03	2.363010E-14	9.676844E-14
3.036200E+03	2.357353E-14	9.654779E-14
3.036992E+03	2.350932E-14	9.629942E-14
3.037586E+03	2.344951E-14	9.606539E-14
3.038181E+03	2.339150E-14	9.583869E-14
3.039172E+03	2.330441E-14	9.550003E-14
3.039766E+03	2.324331E-14	9.526050E-14
3.040360E+03	2.318060E-14	9.501434E-14
3.040558E+03	2.314364E-14	9.486643E-14
3.043924E+03	2.290285E-14	9.394016E-14
3.044122E+03	2.286455E-14	9.378663E-14
3.044320E+03	2.282628E-14	9.363322E-14
3.044518E+03	2.278804E-14	9.347994E-14
3.045112E+03	2.272290E-14	9.322338E-14
3.045905E+03	2.264358E-14	9.291213E-14
3.046103E+03	2.260215E-14	9.274566E-14
3.046301E+03	2.256076E-14	9.257936E-14
3.047292E+03	2.246774E-14	9.221521E-14
3.048282E+03	2.237335E-14	9.184528E-14
3.049074E+03	2.228997E-14	9.151699E-14
3.049470E+03	2.223156E-14	9.128412E-14
3.050460E+03	2.213290E-14	9.089636E-14
3.050659E+03	2.208204E-14	9.069094E-14
3.050857E+03	2.203122E-14	9.048568E-14
3.051055E+03	2.197878E-14	9.027372E-14
3.051253E+03	2.192638E-14	9.006196E-14
3.051847E+03	2.184802E-14	8.975035E-14
3.052045E+03	2.179411E-14	8.953233E-14
3.052441E+03	2.172647E-14	8.926128E-14
3.052639E+03	2.167104E-14	8.903692E-14
3.053035E+03	2.160194E-14	8.875980E-14
3.054620E+03	2.145937E-14	8.820095E-14
3.054818E+03	2.140102E-14	8.796448E-14
3.055412E+03	2.131891E-14	8.763702E-14
3.055808E+03	2.125051E-14	8.736254E-14
3.056006E+03	2.119077E-14	8.712025E-14
3.056600E+03	2.110749E-14	8.678783E-14
3.056798E+03	2.104134E-14	8.651913E-14
3.056996E+03	2.098019E-14	8.627100E-14
3.058184E+03	2.086400E-14	8.581291E-14
3.058383E+03	2.079986E-14	8.555237E-14
3.058581E+03	2.074069E-14	8.531228E-14
3.060166E+03	2.059578E-14	8.474216E-14
3.060364E+03	2.053369E-14	8.448994E-14
3.060760E+03	2.045532E-14	8.417390E-14
3.060958E+03	2.038525E-14	8.388877E-14
3.061552E+03	2.029088E-14	8.351001E-14
3.062741E+03	2.016119E-14	8.299532E-14
3.062939E+03	2.009484E-14	8.272534E-14
3.063137E+03	2.002208E-14	8.242897E-14
3.063731E+03	1.993994E-14	8.210027E-14
3.063929E+03	1.986578E-14	8.179806E-14
3.064325E+03	1.978705E-14	8.148012E-14
3.064918E+03	1.969263E-14	8.110059E-14
3.065314E+03	1.960619E-14	8.075082E-14
3.065512E+03	1.952606E-14	8.042388E-14
3.066503E+03	1.941518E-14	7.998251E-14
3.066701E+03	1.934019E-14	7.967664E-14
3.066899E+03	1.926208E-14	7.935787E-14
3.067097E+03	1.918084E-14	7.902623E-14
3.067295E+03	1.910609E-14	7.872126E-14
3.067493E+03	1.902342E-14	7.838364E-14
3.067890E+03	1.892853E-14	7.799868E-14
3.068484E+03	1.882647E-14	7.758706E-14
3.068682E+03	1.873942E-14	7.723125E-14
3.069276E+03	1.863623E-14	7.681480E-14
3.069474E+03	1.855580E-14	7.648624E-14
3.069870E+03	1.846347E-14	7.611149E-14
3.070069E+03	1.838325E-14	7.578373E-14
3.071257E+03	1.824370E-14	7.522575E-14
3.071455E+03	1.815439E-14	7.486036E-14
3.071653E+03	1.806201E-14	7.448231E-14
3.072049E+03	1.795960E-14	7.406570E-14
3.072247E+03	1.786905E-14	7.369508E-14
3.073237E+03	1.773534E-14	7.315772E-14
3.073435E+03	1.764204E-14	7.277563E-14
3.073633E+03	1.754883E-14	7.239393E-14
3.073831E+03	1.745572E-14	7.201260E-14
3.075219E+03	1.730388E-14	7.140539E-14
3.075813E+03	1.719181E-14	7.095113E-14
3.076604E+03	1.706889E-14	7.045466E-14
3.076803E+03	1.697358E-14	7.006394E-14
3.078189E+03	1.682274E-14	6.946001E-14
3.078585E+03	1.671851E-14	6.903495E-14
3.078981E+03	1.661294E-14	6.860433E-14
3.079179E+03	1.651695E-14	6.821054E-14
3.079971E+03	1.639313E-14	6.770965E-14
3.080169E+03	1.629751E-14	6.731727E-14
3.080367E+03	1.620352E-14	6.693163E-14
3.080565E+03	1.610963E-14	6.654639E-14
3.080763E+03	1.600969E-14	6.613610E-14
3.080961E+03	1.590832E-14	6.571985E-14
3.081952E+03	1.577731E-14	6.519121E-14
3.082745E+03	1.564809E-14	6.466725E-14
3.083933E+03	1.550785E-14	6.410251E-14
3.084131E+03	1.541520E-14	6.372200E-14
3.084329E+03	1.531960E-14	6.332926E-14
3.085121E+03	1.519538E-14	6.282544E-14
3.085319E+03	1.509043E-14	6.239392E-14
3.086706E+03	1.493699E-14	6.177620E-14
3.087300E+03	1.481827E-14	6.129228E-14
3.087498E+03	1.471819E-14	6.088070E-14
3.088883E+03	1.457113E-14	6.028867E-14
3.090667E+03	1.439850E-14	5.959513E-14
3.090865E+03	1.429698E-14	5.917726E-14
3.091063E+03	1.419021E-14	5.873756E-14
3.093242E+03	1.400697E-14	5.800378E-14
3.094430E+03	1.386240E-14	5.741843E-14
3.094628E+03	1.376070E-14	5.699940E-14
3.095024E+03	1.365054E-14	5.654746E-14
3.095222E+03	1.354735E-14	5.612217E-14
3.096410E+03	1.340469E-14	5.554407E-14
3.096608E+03	1.330025E-14	5.511345E-14
3.097004E+03	1.318746E-14	5.465030E-14
3.098986E+03	1.301410E-14	5.395279E-14
3.099184E+03	1.290810E-14	5.351545E-14
3.099976E+03	1.277925E-14	5.298947E-14
3.100174E+03	1.267164E-14	5.254528E-14
3.100569E+03	1.255592E-14	5.206947E-14
3.101165E+03	1.243233E-14	5.156294E-14
3.101363E+03	1.232497E-14	5.111964E-14
3.101560E+03	1.221326E-14	5.065828E-14
3.102748E+03	1.206706E-14	5.006350E-14
3.103144E+03	1.195864E-14	4.961756E-14
3.103936E+03	1.182899E-14	4.908727E-14
3.104729E+03	1.169667E-14	4.854571E-14
3.104928E+03	1.158816E-14	4.809724E-14
3.105126E+03	1.148838E-14	4.768494E-14
3.105324E+03	1.137982E-14	4.723618E-14
3.105522E+03	1.127196E-14	4.679026E-14
3.106710E+03	1.112665E-14	4.619788E-14
3.106908E+03	1.101463E-14	4.573452E-14
3.109087E+03	1.083797E-14	4.502029E-14
3.109483E+03	1.072783E-14	4.456624E-14
3.110869E+03	1.057880E-14	4.395910E-14
3.111265E+03	1.046339E-14	4.348292E-14
3.112454E+03	1.032724E-14	4.292714E-14
3.113048E+03	1.020247E-14	4.241344E-14
3.113445E+03	1.008740E-14	4.193839E-14
3.113840E+03	9.974608E-15	4.147266E-14
3.114434E+03	9.857536E-15	4.099069E-14
3.115424E+03	9.727247E-15	4.045680E-14
3.115622E+03	9.622693E-15	4.002351E-14
3.116414E+03	9.498821E-15	3.951445E-14
3.116613E+03	9.396906E-15	3.909202E-14
3.117009E+03	9.289115E-15	3.864661E-14
3.117603E+03	9.170393E-15	3.815715E-14
3.118989E+03	9.030608E-15	3.758578E-14
3.119386E+03	8.915351E-15	3.710899E-14
3.120376E+03	8.791777E-15	3.660178E-14
3.120575E+03	8.679591E-15	3.613614E-14
3.121367E+03	8.558351E-15	3.563694E-14
3.121763E+03	8.451350E-15	3.519414E-14
3.121961E+03	8.344572E-15	3.475085E-14
3.122951E+03	8.213282E-15	3.421078E-14
3.123149E+03	8.115704E-15	3.380566E-14
3.123347E+03	8.008988E-15	3.336244E-14
3.123743E+03	7.891510E-15	3.287564E-14
3.125723E+03	7.751169E-15	3.230363E-14
3.126317E+03	7.634417E-15	3.182079E-14
3.128100E+03	7.491334E-15	3.123543E-14
3.130675E+03	7.330298E-15	3.057957E-14
3.130873E+03	7.224546E-15	3.013959E-14
3.131071E+03	7.126890E-15	2.973335E-14
3.131269E+03	7.018456E-15	2.928211E-14
3.132062E+03	6.900409E-15	2.879412E-14
3.132656E+03	6.791777E-15	2.834416E-14
3.133250E+03	6.677431E-15	2.787024E-14
3.133448E+03	6.571385E-15	2.742871E-14
3.133646E+03	6.464671E-15	2.698434E-14
3.134043E+03	6.361270E-15	2.655483E-14
3.134637E+03	6.247834E-15	2.608437E-14
3.135033E+03	6.140263E-15	2.563728E-14
3.135231E+03	6.032841E-15	2.518975E-14
3.135429E+03	5.933803E-15	2.477720E-14
3.135627E+03	5.828725E-15	2.433939E-14
3.136222E+03	5.716317E-15	2.387282E-14
3.136816E+03	5.610160E-15	2.343224E-14
3.137211E+03	5.507648E-15	2.300588E-14
3.137410E+03	5.405300E-15	2.257926E-14
3.138003E+03	5.293668E-15	2.211555E-14
3.138597E+03	5.184867E-15	2.166357E-14
3.138795E+03	5.080665E-15	2.122902E-14
3.140380E+03	4.964777E-15	2.075133E-14
3.141371E+03	4.860457E-15	2.031931E-14
3.141569E+03	4.761917E-15	1.990814E-14
3.141965E+03	4.663791E-15	1.949945E-14
3.142559E+03	4.562783E-15	1.907938E-14
3.142757E+03	4.461807E-15	1.865789E-14
3.143351E+03	4.358685E-15	1.822882E-14
3.143549E+03	4.258450E-15	1.781032E-14
3.143946E+03	4.161853E-15	1.740769E-14
3.144144E+03	4.067273E-15	1.701276E-14
3.144738E+03	3.965246E-15	1.658796E-14
3.145530E+03	3.865960E-15	1.617517E-14
3.146124E+03	3.764301E-15	1.575169E-14
3.146322E+03	3.668657E-15	1.535208E-14
3.146520E+03	3.573506E-15	1.495449E-14
3.147114E+03	3.477840E-15	1.455587E-14
3.147312E+03	3.383151E-15	1.416013E-14
3.147907E+03	3.288416E-15	1.376525E-14
3.148500E+03	3.198682E-15	1.339120E-14
3.148699E+03	3.110583E-15	1.302290E-14
3.149293E+03	3.022740E-15	1.265663E-14
3.149491E+03	2.931444E-15	1.227485E-14
3.149887E+03	2.838046E-15	1.188470E-14
3.152264E+03	2.733493E-15	1.145231E-14
3.152462E+03	2.652137E-15	1.111190E-14
3.153452E+03	2.564434E-15	1.074657E-14
3.154244E+03	2.476123E-15	1.037813E-14
3.154640E+03	2.390366E-15	1.001949E-14
3.155433E+03	2.301902E-15	9.650218E-15
3.155631E+03	2.217499E-15	9.296745E-15
3.155829E+03	2.133691E-15	8.945737E-15
3.156424E+03	2.048112E-15	8.587960E-15
3.157018E+03	1.963455E-15	8.233965E-15
3.157612E+03	1.879464E-15	7.882679E-15
3.158008E+03	1.797594E-15	7.539904E-15
3.158206E+03	1.717571E-15	7.204538E-15
3.158404E+03	1.638256E-15	6.872115E-15
3.158998E+03	1.557756E-15	6.535215E-15
3.159197E+03	1.480069E-15	6.209542E-15
3.159593E+03	1.402355E-15	5.883965E-15
3.159989E+03	1.325436E-15	5.561671E-15
3.160187E+03	1.250433E-15	5.247158E-15
3.160978E+03	1.174134E-15	4.927771E-15
3.161176E+03	1.101084E-15	4.621368E-15
3.161375E+03	1.028992E-15	4.318960E-15
3.161968E+03	9.567000E-16	4.016010E-15
3.162562E+03	8.855944E-16	3.717968E-15
3.162760E+03	8.167383E-16	3.429028E-15
3.163554E+03	7.475612E-16	3.139091E-15
3.163752E+03	6.808497E-16	2.859076E-15
3.164940E+03	6.132603E-16	2.575865E-15
3.165138E+03	5.539086E-16	2.326663E-15
3.166326E+03	4.880844E-16	2.050662E-15
3.166524E+03	4.277358E-16	1.797182E-15
3.166722E+03	3.659709E-16	1.537731E-15
3.166921E+03	3.041739E-16	1.278124E-15
3.167317E+03	2.461238E-16	1.034283E-15
3.167911E+03	1.941222E-16	8.158546E-16
3.168109E+03	1.348634E-16	5.668251E-16
3.168703E+03	7.719479E-17	3.244851E-16
3.169099E+03	2.046415E-17	8.602706E-17
3.169297E+03	-3.096719E-17	-1.301849E-16
3.169495E+03	-8.405536E-17	-3.533796E-16
3.170287E+03	-1.362807E-16	-5.730332E-16
3.170883E+03	-1.887799E-16	-7.938769E-16
3.171675E+03	-2.307119E-16	-9.703685E-16
3.172467E+03	-2.763483E-16	-1.162500E-15
3.172664E+03	-3.252213E-16	-1.368146E-15
3.172863E+03	-3.719149E-16	-1.564640E-15
3.173061E+03	-4.169973E-16	-1.754371E-15
3.173258E+03	-4.586488E-16	-1.929682E-15
3.173852E+03	-5.036095E-16	-2.119099E-15
3.174050E+03	-5.383208E-16	-2.265249E-15
3.174843E+03	-5.789885E-16	-2.436768E-15
3.175239E+03	-6.207152E-16	-2.612590E-15
3.175635E+03	-6.575479E-16	-2.767840E-15
3.175833E+03	-6.973828E-16	-2.935636E-15
3.176031E+03	-7.359983E-16	-3.098312E-15
3.176229E+03	-7.657686E-16	-3.223765E-15
3.176625E+03	-7.975776E-16	-3.357944E-15
3.176823E+03	-8.295528E-16	-3.492705E-15
3.177021E+03	-8.624468E-16	-3.631345E-15
3.177417E+03	-8.880009E-16	-3.739241E-15
3.177615E+03	-9.150796E-16	-3.853419E-15
3.177813E+03	-9.451659E-16	-3.980272E-15
3.178012E+03	-9.738872E-16	-4.101389E-15
3.178210E+03	-9.969390E-16	-4.198636E-15
3.178408E+03	-1.020743E-15	-4.299060E-15
3.178805E+03	-1.042621E-15	-4.391552E-15
3.179003E+03	-1.063861E-15	-4.481197E-15
3.179201E+03	-1.083847E-15	-4.565566E-15
3.179993E+03	-1.100469E-15	-4.636326E-15
3.180191E+03	-1.117899E-15	-4.709947E-15
3.180389E+03	-1.133981E-15	-4.777896E-15
3.180587E+03	-1.148661E-15	-4.839942E-15
3.180785E+03	-1.162101E-15	-4.896769E-15
3.181181E+03	-1.173314E-15	-4.944415E-15
3.181973E+03	-1.181893E-15	-4.981366E-15
3.182369E+03	-1.190989E-15	-5.020105E-15
3.182964E+03	-1.197389E-15	-5.047689E-15
3.183162E+03	-1.201404E-15	-5.064818E-15
3.183360E+03	-1.205639E-15	-5.082877E-15
3.183558E+03	-1.208172E-15	-5.093760E-15
3.184547E+03	-1.203753E-15	-5.076145E-15
3.184746E+03	-1.205030E-15	-5.081735E-15
3.185736E+03	-1.200053E-15	-5.061763E-15
3.185934E+03	-1.197510E-15	-5.051239E-15
3.186529E+03	-1.193146E-15	-5.033439E-15
3.186727E+03	-1.184226E-15	-4.996011E-15
3.186925E+03	-1.171287E-15	-4.941620E-15
3.187717E+03	-1.160108E-15	-4.895244E-15
3.187915E+03	-1.147667E-15	-4.842943E-15
3.188707E+03	-1.131449E-15	-4.775275E-15
3.188905E+03	-1.117393E-15	-4.716142E-15
3.189103E+03	-1.096862E-15	-4.629671E-15
3.189301E+03	-1.078833E-15	-4.553756E-15
3.190093E+03	-1.056047E-15	-4.458296E-15
3.191084E+03	-1.035118E-15	-4.370819E-15
3.191480E+03	-1.011467E-15	-4.271296E-15
3.192669E+03	-9.842886E-16	-4.157533E-15
3.192867E+03	-9.610396E-16	-4.059495E-15
3.193461E+03	-9.343529E-16	-3.947246E-15
3.194848E+03	-8.987830E-16	-3.798050E-15
3.195046E+03	-8.685080E-16	-3.670263E-15
3.195244E+03	-8.388700E-16	-3.545158E-15
3.195442E+03	-8.078959E-16	-3.414396E-15
3.195640E+03	-7.693694E-16	-3.251703E-15
3.195838E+03	-7.316421E-16	-3.092375E-15
3.196036E+03	-6.930043E-16	-2.929186E-15
3.197619E+03	-6.491073E-16	-2.744529E-15
3.197817E+03	-6.057717E-16	-2.561402E-15
3.198016E+03	-5.613770E-16	-2.373783E-15
3.198412E+03	-5.182238E-16	-2.191487E-15
3.198610E+03	-4.676989E-16	-1.977905E-15
3.198808E+03	-4.168493E-16	-1.762933E-15
3.199006E+03	-3.684882E-16	-1.558468E-15
3.199204E+03	-3.173016E-16	-1.342036E-15
3.199402E+03	-2.649634E-16	-1.120715E-15
3.199600E+03	-2.070665E-16	-8.758640E-16
3.200195E+03	-1.485922E-16	-6.286018E-16
3.200393E+03	-8.936834E-17	-3.780776E-16
3.201581E+03	-2.956282E-17	-1.250975E-16
3.201779E+03	3.405753E-17	1.441230E-16
3.201978E+03	9.694644E-17	4.102700E-16
3.202770E+03	1.615473E-16	6.837666E-16
3.202968E+03	2.292406E-16	9.703253E-16
3.203166E+03	3.023454E-16	1.279814E-15
3.204552E+03	3.725900E-16	1.577603E-15
3.205741E+03	4.460393E-16	1.889059E-15
3.206137E+03	5.228647E-16	2.214608E-15
3.206335E+03	6.024014E-16	2.551592E-15
3.206533E+03	6.807743E-16	2.883673E-15
3.206731E+03	7.611606E-16	3.224310E-15
3.206929E+03	8.434509E-16	3.573040E-15
3.207722E+03	9.257572E-16	3.922345E-15
3.207920E+03	1.013209E-15	4.293044E-15
3.208315E+03	1.103629E-15	4.676541E-15
3.208909E+03	1.191823E-15	5.050869E-15
3.209108E+03	1.284952E-15	5.445768E-15
3.209305E+03	1.380785E-15	5.852157E-15
3.210494E+03	1.473252E-15	6.245578E-15
3.210692E+03	1.573304E-15	6.670005E-15
3.210890E+03	1.673333E-15	7.094361E-15
3.211088E+03	1.776549E-15	7.532272E-15
3.212870E+03	1.871711E-15	7.938650E-15
3.213068E+03	1.980522E-15	8.400501E-15
3.213266E+03	2.089399E-15	8.862670E-15
3.213663E+03	2.198479E-15	9.326119E-15
3.214257E+03	2.309495E-15	9.798253E-15
3.214456E+03	2.425422E-15	1.029050E-14
3.214654E+03	2.545715E-15	1.080132E-14
3.214852E+03	2.667491E-15	1.131847E-14
3.215446E+03	2.784724E-15	1.181735E-14
3.215842E+03	2.906315E-15	1.233434E-14
3.216238E+03	3.029932E-15	1.286002E-14
3.216436E+03	3.158305E-15	1.340542E-14
3.216634E+03	3.287530E-15	1.395449E-14
3.217030E+03	3.416127E-15	1.450152E-14
3.217228E+03	3.549609E-15	1.506877E-14
3.217625E+03	3.685730E-15	1.564791E-14
3.218021E+03	3.822914E-15	1.623166E-14
3.218417E+03	3.321650E-15	1.410450E-14
3.219011E+03	2.855620E-15	1.212711E-14
3.219209E+03	2.885189E-15	1.225319E-14
3.219407E+03	2.971431E-15	1.261997E-14
3.219605E+03	2.355973E-15	1.000646E-14
3.219803E+03	2.348815E-15	9.976466E-15
3.220001E+03	2.430094E-15	1.032212E-14
3.220198E+03	2.503324E-15	1.063360E-14
3.220594E+03	2.364902E-15	1.004644E-14
3.220792E+03	2.292758E-15	9.740358E-15
3.220991E+03	2.279831E-15	9.685836E-15
3.221189E+03	2.317198E-15	9.844991E-15
3.221387E+03	2.285828E-15	9.712107E-15
3.221586E+03	2.249179E-15	9.556784E-15
3.222180E+03	2.277837E-15	9.679743E-15
3.222576E+03	2.170631E-15	9.224922E-15
3.223566E+03	2.116253E-15	8.995663E-15
3.223962E+03	2.009125E-15	8.540986E-15
3.224160E+03	1.961723E-15	8.339820E-15
3.224556E+03	1.944306E-15	8.266451E-15
3.225151E+03	1.985605E-15	8.443077E-15
3.225745E+03	2.033061E-15	8.645929E-15
3.225943E+03	2.059110E-15	8.757068E-15
3.226339E+03	2.089992E-15	8.889131E-15
3.226537E+03	2.140500E-15	9.104328E-15
3.226933E+03	2.061419E-15	8.768685E-15
3.227527E+03	2.053584E-15	8.736434E-15
3.227725E+03	1.960720E-15	8.341710E-15
3.227923E+03	1.961511E-15	8.345418E-15
3.228121E+03	1.941310E-15	8.259809E-15
3.228319E+03	1.936032E-15	8.237694E-15
3.228517E+03	1.947904E-15	8.288547E-15
3.229113E+03	1.935312E-15	8.235981E-15
3.229509E+03	1.957700E-15	8.331942E-15
3.229707E+03	1.996827E-15	8.498813E-15
3.230697E+03	1.920324E-15	8.174887E-15
3.230895E+03	1.869602E-15	7.959290E-15
3.231093E+03	1.838956E-15	7.829142E-15
3.231291E+03	1.737582E-15	7.397862E-15
3.231489E+03	1.699784E-15	7.237229E-15
3.231687E+03	1.678611E-15	7.147375E-15
3.232875E+03	1.700175E-15	7.240979E-15
3.233074E+03	1.667988E-15	7.104191E-15
3.233469E+03	1.662834E-15	7.082819E-15
3.233667E+03	1.671382E-15	7.119524E-15
3.233865E+03	1.666539E-15	7.099187E-15
3.234063E+03	1.649870E-15	7.028469E-15
3.234459E+03	1.610158E-15	6.859860E-15
3.234657E+03	1.627829E-15	6.935430E-15
3.234855E+03	1.639815E-15	6.986785E-15
3.235053E+03	1.630979E-15	6.949424E-15
3.235251E+03	1.629532E-15	6.943543E-15
3.236242E+03	1.552873E-15	6.618263E-15
3.236638E+03	1.549891E-15	6.606098E-15
3.236837E+03	1.567942E-15	6.683310E-15
3.237035E+03	1.555772E-15	6.631712E-15
3.237431E+03	1.505032E-15	6.415956E-15
3.237629E+03	1.510798E-15	6.440800E-15
3.238421E+03	1.516804E-15	6.467471E-15
3.238619E+03	1.515811E-15	6.463504E-15
3.238817E+03	1.526182E-15	6.507995E-15
3.239411E+03	1.531501E-15	6.531489E-15
3.239609E+03	1.530309E-15	6.526673E-15
3.240798E+03	1.531448E-15	6.533151E-15
3.241590E+03	1.535594E-15	6.551923E-15
3.241788E+03	1.519302E-15	6.482677E-15
3.242184E+03	1.463555E-15	6.245330E-15
3.242382E+03	1.452674E-15	6.199154E-15
3.242976E+03	1.422632E-15	6.071708E-15
3.243373E+03	1.413202E-15	6.031962E-15
3.243967E+03	1.424378E-15	6.080419E-15
3.244165E+03	1.421673E-15	6.069123E-15
3.244760E+03	1.432979E-15	6.118149E-15
3.245156E+03	1.437861E-15	6.139499E-15
3.245551E+03	1.397727E-15	5.968625E-15
3.245947E+03	1.401525E-15	5.985343E-15
