#wls	flux	fluxerr
1.584409E+03	1.712907E-16	5.846536E-17
1.624020E+03	1.780472E-16	6.077050E-17
1.663630E+03	1.841491E-16	6.285212E-17
1.703240E+03	1.894842E-16	6.467195E-17
1.742850E+03	1.939169E-16	6.618370E-17
1.782461E+03	1.972630E-16	6.732451E-17
1.822071E+03	1.992722E-16	6.800897E-17
1.861681E+03	1.997096E-16	6.815697E-17
1.901291E+03	1.983251E-16	6.768314E-17
1.940902E+03	1.949159E-16	6.651835E-17
1.980512E+03	1.894880E-16	6.466466E-17
2.020122E+03	1.823594E-16	6.223064E-17
2.059732E+03	1.743442E-16	5.949417E-17
2.099342E+03	1.667251E-16	5.689291E-17
2.138953E+03	1.607505E-16	5.485292E-17
2.178563E+03	1.570701E-16	5.359580E-17
2.218173E+03	1.553518E-16	5.300824E-17
2.257783E+03	1.544875E-16	5.271203E-17
2.297394E+03	1.534237E-16	5.234776E-17
2.337004E+03	1.513849E-16	5.165079E-17
2.376614E+03	1.479674E-16	5.048343E-17
2.416224E+03	1.430845E-16	4.881619E-17
2.455835E+03	1.368590E-16	4.669092E-17
2.495445E+03	1.295115E-16	4.418298E-17
2.535055E+03	1.212924E-16	4.137784E-17
2.574665E+03	1.124639E-16	3.836494E-17
2.614276E+03	1.032709E-16	3.522782E-17
2.653886E+03	9.393424E-17	3.204189E-17
2.693496E+03	8.464950E-17	2.887385E-17
2.733106E+03	7.559083E-17	2.578309E-17
2.772716E+03	6.689446E-17	2.281610E-17
2.812327E+03	5.867503E-17	2.001195E-17
2.851937E+03	5.102724E-17	1.740295E-17
2.891547E+03	4.402049E-17	1.501273E-17
2.931157E+03	3.770145E-17	1.285721E-17
2.970768E+03	3.208779E-17	1.094238E-17
2.980670E+03	3.079363E-17	1.050095E-17
2.990573E+03	2.954253E-17	1.007421E-17
3.000475E+03	2.833444E-17	9.662151E-18
3.010378E+03	2.716856E-17	9.264491E-18
3.020280E+03	2.604409E-17	8.880955E-18
3.030183E+03	2.496070E-17	8.511438E-18
3.040086E+03	2.391725E-17	8.155545E-18
3.049988E+03	2.291471E-17	7.813612E-18
3.059891E+03	2.195232E-17	7.485372E-18
3.069793E+03	2.102900E-17	7.170461E-18
3.079696E+03	2.014328E-17	6.868376E-18
3.089598E+03	1.929413E-17	6.578768E-18
3.099501E+03	1.848018E-17	6.301169E-18
3.109403E+03	1.770020E-17	6.035155E-18
3.119306E+03	1.695330E-17	5.780428E-18
3.129209E+03	1.623800E-17	5.536478E-18
3.139111E+03	1.555379E-17	5.303135E-18
3.149014E+03	1.489931E-17	5.079933E-18
3.158916E+03	1.427377E-17	4.866600E-18
3.168819E+03	1.367610E-17	4.662775E-18
3.178721E+03	1.310530E-17	4.468115E-18
3.188624E+03	1.256057E-17	4.282346E-18
3.198526E+03	1.204092E-17	4.105134E-18
3.208429E+03	1.154519E-17	3.936082E-18
3.218332E+03	1.107303E-17	3.775065E-18
3.228234E+03	1.062294E-17	3.621576E-18
3.238137E+03	1.019454E-17	3.475488E-18
3.248039E+03	9.786628E-18	3.336385E-18
3.257942E+03	9.398487E-18	3.204026E-18
3.267844E+03	9.029407E-18	3.078167E-18
3.277747E+03	8.678289E-18	2.958435E-18
3.287650E+03	8.344603E-18	2.844648E-18
3.297552E+03	8.027559E-18	2.736536E-18
3.307455E+03	7.726291E-18	2.633805E-18
3.317357E+03	7.440083E-18	2.536209E-18
3.327260E+03	7.168250E-18	2.443516E-18
3.337162E+03	6.910227E-18	2.355532E-18
3.347065E+03	6.665186E-18	2.271976E-18
3.356967E+03	6.432700E-18	2.192701E-18
3.366870E+03	6.212012E-18	2.117449E-18
3.376773E+03	6.002572E-18	2.046033E-18
3.386675E+03	5.803923E-18	1.978297E-18
3.396578E+03	5.615345E-18	1.913995E-18
3.406480E+03	5.436505E-18	1.853014E-18
3.416383E+03	5.266875E-18	1.795173E-18
3.426285E+03	5.105848E-18	1.740266E-18
3.436188E+03	4.953146E-18	1.688198E-18
3.446090E+03	4.808221E-18	1.638781E-18
3.455993E+03	4.670724E-18	1.591897E-18
3.465896E+03	4.540272E-18	1.547416E-18
3.475798E+03	4.416359E-18	1.505164E-18
3.485701E+03	4.298714E-18	1.465049E-18
3.495603E+03	4.186938E-18	1.426935E-18
3.505506E+03	4.080665E-18	1.390698E-18
3.515408E+03	3.979601E-18	1.356237E-18
3.525311E+03	3.883388E-18	1.323430E-18
3.535213E+03	3.791739E-18	1.292179E-18
3.545116E+03	3.704347E-18	1.262379E-18
3.555019E+03	3.621002E-18	1.233960E-18
3.564921E+03	3.541470E-18	1.206840E-18
3.574824E+03	3.465503E-18	1.180936E-18
3.584726E+03	3.392930E-18	1.156189E-18
3.594629E+03	3.323590E-18	1.132544E-18
3.604531E+03	3.257273E-18	1.109930E-18
3.614434E+03	3.193923E-18	1.088328E-18
3.624337E+03	3.133343E-18	1.067670E-18
3.634239E+03	3.075458E-18	1.047930E-18
3.644142E+03	3.020163E-18	1.029074E-18
3.654044E+03	2.967358E-18	1.011067E-18
3.663947E+03	2.916970E-18	9.938831E-19
3.673849E+03	2.868950E-18	9.775068E-19
3.683752E+03	2.823146E-18	9.618864E-19
3.693654E+03	2.779563E-18	9.470227E-19
3.703557E+03	2.738074E-18	9.328728E-19
3.713460E+03	2.698631E-18	9.194203E-19
3.723362E+03	2.661181E-18	9.066471E-19
3.733265E+03	2.625608E-18	8.945138E-19
3.743167E+03	2.591904E-18	8.830176E-19
3.753070E+03	2.559979E-18	8.721277E-19
3.762972E+03	2.529785E-18	8.618275E-19
3.772875E+03	2.501254E-18	8.520945E-19
3.782777E+03	2.474345E-18	8.429141E-19
3.792680E+03	2.448995E-18	8.342647E-19
3.802583E+03	2.425163E-18	8.261331E-19
3.812485E+03	2.402794E-18	8.184997E-19
3.822388E+03	2.381870E-18	8.113590E-19
3.832290E+03	2.362339E-18	8.046927E-19
3.842193E+03	2.344151E-18	7.984839E-19
3.852095E+03	2.327273E-18	7.927218E-19
3.861998E+03	2.311659E-18	7.873900E-19
3.871900E+03	2.297297E-18	7.824850E-19
3.881803E+03	2.284138E-18	7.779898E-19
3.891706E+03	2.272159E-18	7.738965E-19
3.901608E+03	2.261311E-18	7.701886E-19
3.911511E+03	2.251552E-18	7.668515E-19
3.921413E+03	2.242892E-18	7.638889E-19
3.931316E+03	2.235253E-18	7.612739E-19
3.941218E+03	2.228631E-18	7.590051E-19
3.951121E+03	2.222984E-18	7.570688E-19
3.961024E+03	2.218292E-18	7.554573E-19
3.970926E+03	2.214533E-18	7.541637E-19
3.980829E+03	2.211653E-18	7.531696E-19
3.990731E+03	2.209653E-18	7.524747E-19
4.000634E+03	2.208494E-18	7.520664E-19
4.010536E+03	2.208160E-18	7.519390E-19
4.020439E+03	2.208616E-18	7.520804E-19
4.030341E+03	2.209829E-18	7.524796E-19
4.040244E+03	2.211801E-18	7.531371E-19
4.050147E+03	2.214485E-18	7.540369E-19
4.060049E+03	2.217866E-18	7.551742E-19
4.069952E+03	2.221936E-18	7.565456E-19
4.079854E+03	2.226650E-18	7.581363E-19
4.089757E+03	2.232017E-18	7.599492E-19
4.099659E+03	2.237995E-18	7.619700E-19
4.109562E+03	2.244578E-18	7.641965E-19
4.119464E+03	2.251758E-18	7.666260E-19
4.129367E+03	2.259492E-18	7.692439E-19
4.139270E+03	2.267790E-18	7.720540E-19
4.149172E+03	2.276594E-18	7.750359E-19
4.159075E+03	2.285933E-18	7.781997E-19
4.168977E+03	2.295748E-18	7.815254E-19
4.178880E+03	2.306032E-18	7.850104E-19
4.188782E+03	2.316763E-18	7.886477E-19
4.198685E+03	2.327940E-18	7.924362E-19
4.208587E+03	2.339504E-18	7.963562E-19
4.218490E+03	2.351471E-18	8.004133E-19
4.228393E+03	2.363805E-18	8.045951E-19
4.238295E+03	2.376467E-18	8.088881E-19
4.248198E+03	2.389460E-18	8.132934E-19
4.258100E+03	2.402761E-18	8.178034E-19
4.268003E+03	2.416318E-18	8.224002E-19
4.277905E+03	2.430110E-18	8.270767E-19
4.287808E+03	2.444118E-18	8.318264E-19
4.297711E+03	2.458321E-18	8.366423E-19
4.307613E+03	2.472700E-18	8.415175E-19
4.317516E+03	2.487251E-18	8.464511E-19
4.327418E+03	2.501953E-18	8.514356E-19
4.337321E+03	2.516782E-18	8.564632E-19
4.347223E+03	2.531774E-18	8.615461E-19
4.357126E+03	2.546906E-18	8.666760E-19
4.367028E+03	2.562172E-18	8.718513E-19
4.376931E+03	2.577589E-18	8.770774E-19
4.386834E+03	2.593151E-18	8.823528E-19
4.396736E+03	2.608833E-18	8.876685E-19
4.406639E+03	2.624649E-18	8.930295E-19
4.416541E+03	2.640576E-18	8.984277E-19
4.426444E+03	2.656611E-18	9.038626E-19
4.436346E+03	2.672749E-18	9.093319E-19
4.446249E+03	2.688949E-18	9.148223E-19
4.456151E+03	2.705234E-18	9.203409E-19
4.466054E+03	2.721587E-18	9.258823E-19
4.475957E+03	2.737988E-18	9.314397E-19
4.485859E+03	2.754447E-18	9.370161E-19
4.495762E+03	2.770922E-18	9.425981E-19
4.505664E+03	2.787428E-18	9.481897E-19
4.515567E+03	2.803973E-18	9.537947E-19
4.525469E+03	2.820546E-18	9.594085E-19
4.535372E+03	2.837115E-18	9.650207E-19
4.545274E+03	2.853694E-18	9.706357E-19
4.555177E+03	2.870276E-18	9.762512E-19
4.565080E+03	2.886854E-18	9.818652E-19
4.574982E+03	2.903448E-18	9.874839E-19
4.584885E+03	2.920026E-18	9.930971E-19
4.594787E+03	2.936613E-18	9.987127E-19
4.604690E+03	2.953205E-18	1.004329E-18
4.614592E+03	2.969802E-18	1.009948E-18
4.624495E+03	2.986406E-18	1.015568E-18
4.634398E+03	3.003015E-18	1.021189E-18
4.644300E+03	3.019633E-18	1.026813E-18
4.654203E+03	3.036312E-18	1.032457E-18
4.664105E+03	3.053055E-18	1.038123E-18
4.674008E+03	3.069862E-18	1.043810E-18
4.683910E+03	3.086792E-18	1.049538E-18
4.693813E+03	3.103822E-18	1.055300E-18
4.703715E+03	3.120958E-18	1.061097E-18
4.713618E+03	3.138233E-18	1.066941E-18
4.723521E+03	3.155655E-18	1.072835E-18
4.733423E+03	3.173204E-18	1.078771E-18
4.743326E+03	3.190916E-18	1.084762E-18
4.753228E+03	3.208801E-18	1.090811E-18
4.763131E+03	3.226839E-18	1.096912E-18
4.773033E+03	3.245070E-18	1.103078E-18
4.782936E+03	3.263505E-18	1.109313E-18
4.792838E+03	3.282158E-18	1.115621E-18
4.802741E+03	3.301038E-18	1.122006E-18
4.812644E+03	3.320130E-18	1.128462E-18
4.822546E+03	3.339508E-18	1.135015E-18
4.832449E+03	3.359125E-18	1.141649E-18
4.842351E+03	3.378997E-18	1.148369E-18
4.852254E+03	3.399171E-18	1.155191E-18
4.862156E+03	3.419665E-18	1.162121E-18
4.872059E+03	3.440497E-18	1.169165E-18
4.881961E+03	3.461620E-18	1.176307E-18
4.891864E+03	3.483115E-18	1.183576E-18
4.901767E+03	3.504967E-18	1.190964E-18
4.911669E+03	3.527194E-18	1.198480E-18
4.921572E+03	3.549815E-18	1.206129E-18
4.931474E+03	3.572849E-18	1.213917E-18
4.941377E+03	3.596281E-18	1.221840E-18
4.951279E+03	3.620126E-18	1.229903E-18
4.961182E+03	3.644433E-18	1.238121E-18
4.971085E+03	3.669177E-18	1.246488E-18
4.980987E+03	3.694331E-18	1.254993E-18
4.990890E+03	3.719973E-18	1.263663E-18
5.000792E+03	3.746000E-18	1.272462E-18
5.010695E+03	3.772489E-18	1.281418E-18
5.020597E+03	3.799445E-18	1.290532E-18
5.030500E+03	3.826765E-18	1.299769E-18
5.040402E+03	3.854560E-18	1.309166E-18
5.050305E+03	3.882762E-18	1.318700E-18
5.060208E+03	3.911373E-18	1.328373E-18
5.070110E+03	3.940432E-18	1.338196E-18
5.080013E+03	3.969865E-18	1.348146E-18
5.089915E+03	3.999673E-18	1.358222E-18
5.099818E+03	4.029895E-18	1.368438E-18
5.109720E+03	4.060486E-18	1.378778E-18
5.119623E+03	4.091449E-18	1.389243E-18
5.129525E+03	4.122741E-18	1.399819E-18
5.139428E+03	4.154402E-18	1.410520E-18
5.149331E+03	4.186351E-18	1.421317E-18
5.159233E+03	4.218664E-18	1.432236E-18
5.169136E+03	4.251297E-18	1.443263E-18
5.179038E+03	4.284206E-18	1.454383E-18
5.188941E+03	4.317379E-18	1.465591E-18
5.198843E+03	4.350854E-18	1.476901E-18
5.208746E+03	4.384534E-18	1.488279E-18
5.218648E+03	4.418451E-18	1.499736E-18
5.228551E+03	4.452630E-18	1.511282E-18
5.238454E+03	4.486931E-18	1.522867E-18
5.248356E+03	4.521458E-18	1.534527E-18
5.258259E+03	4.556060E-18	1.546213E-18
5.268161E+03	4.590846E-18	1.557959E-18
5.278064E+03	4.625647E-18	1.569709E-18
5.287966E+03	4.660520E-18	1.581482E-18
5.297869E+03	4.695429E-18	1.593267E-18
5.307772E+03	4.730296E-18	1.605036E-18
5.317674E+03	4.765184E-18	1.616810E-18
5.327577E+03	4.799915E-18	1.628530E-18
5.337479E+03	4.834605E-18	1.640235E-18
5.347382E+03	4.869175E-18	1.651898E-18
5.357284E+03	4.903596E-18	1.663509E-18
5.367187E+03	4.937842E-18	1.675059E-18
5.377089E+03	4.971888E-18	1.686541E-18
5.386992E+03	5.005661E-18	1.697928E-18
5.396895E+03	5.039137E-18	1.709213E-18
5.406797E+03	5.072295E-18	1.720389E-18
5.416700E+03	5.105113E-18	1.731449E-18
5.426602E+03	5.137510E-18	1.742364E-18
5.436505E+03	5.169398E-18	1.753106E-18
5.446407E+03	5.200796E-18	1.763679E-18
5.456310E+03	5.231610E-18	1.774054E-18
5.466212E+03	5.261749E-18	1.784198E-18
5.476115E+03	5.291115E-18	1.794079E-18
5.486018E+03	5.319714E-18	1.803699E-18
5.495920E+03	5.347396E-18	1.813007E-18
5.505823E+03	5.374168E-18	1.822005E-18
5.515725E+03	5.399876E-18	1.830640E-18
5.525628E+03	5.424472E-18	1.838898E-18
5.535530E+03	5.447964E-18	1.846780E-18
5.545433E+03	5.470192E-18	1.854233E-18
5.555335E+03	5.491161E-18	1.861257E-18
5.565238E+03	5.510821E-18	1.867838E-18
5.575141E+03	5.529062E-18	1.873936E-18
5.585043E+03	5.545830E-18	1.879534E-18
5.594946E+03	5.561138E-18	1.884635E-18
5.604848E+03	5.574934E-18	1.889224E-18
5.614751E+03	5.587119E-18	1.893266E-18
5.624653E+03	5.597715E-18	1.896769E-18
5.634556E+03	5.606744E-18	1.899740E-18
5.644459E+03	5.614068E-18	1.902132E-18
5.654361E+03	5.619720E-18	1.903957E-18
5.664264E+03	5.623745E-18	1.905231E-18
5.674166E+03	5.626131E-18	1.905949E-18
5.684069E+03	5.626874E-18	1.906109E-18
5.693971E+03	5.625968E-18	1.905711E-18
5.703874E+03	5.623415E-18	1.904754E-18
5.713776E+03	5.619280E-18	1.903260E-18
5.723679E+03	5.613503E-18	1.901211E-18
5.733582E+03	5.606212E-18	1.898648E-18
5.743484E+03	5.597359E-18	1.895556E-18
5.753387E+03	5.586955E-18	1.891939E-18
5.763289E+03	5.575135E-18	1.887842E-18
5.773192E+03	5.561798E-18	1.883232E-18
5.783094E+03	5.547030E-18	1.878136E-18
5.792997E+03	5.530918E-18	1.872586E-18
5.802899E+03	5.513437E-18	1.866573E-18
5.812802E+03	5.494688E-18	1.860130E-18
5.822705E+03	5.474661E-18	1.853255E-18
5.832607E+03	5.453529E-18	1.846006E-18
5.842510E+03	5.431309E-18	1.838389E-18
5.852412E+03	5.408085E-18	1.830432E-18
5.862315E+03	5.384003E-18	1.822186E-18
5.872217E+03	5.359078E-18	1.813654E-18
5.882120E+03	5.333455E-18	1.804887E-18
5.892022E+03	5.307151E-18	1.795890E-18
5.901925E+03	5.280301E-18	1.786708E-18
5.911828E+03	5.252977E-18	1.777367E-18
5.921730E+03	5.225255E-18	1.767891E-18
5.931633E+03	5.197140E-18	1.758283E-18
5.941535E+03	5.168762E-18	1.748587E-18
5.951438E+03	5.140188E-18	1.738825E-18
5.961340E+03	5.111419E-18	1.728998E-18
5.971243E+03	5.082576E-18	1.719146E-18
5.981146E+03	5.053660E-18	1.709270E-18
5.991048E+03	5.024665E-18	1.699368E-18
6.000951E+03	4.995765E-18	1.689498E-18
6.010853E+03	4.966891E-18	1.679639E-18
6.020756E+03	4.938152E-18	1.669825E-18
6.030658E+03	4.909473E-18	1.660033E-18
6.040561E+03	4.880960E-18	1.650297E-18
6.050463E+03	4.852593E-18	1.640611E-18
6.060366E+03	4.824411E-18	1.630989E-18
6.070269E+03	4.796449E-18	1.621441E-18
6.080171E+03	4.768684E-18	1.611961E-18
6.090074E+03	4.741143E-18	1.602557E-18
6.099976E+03	4.713859E-18	1.593241E-18
6.109879E+03	4.686855E-18	1.584020E-18
6.119781E+03	4.660159E-18	1.574903E-18
6.129684E+03	4.633731E-18	1.565878E-18
6.139586E+03	4.607652E-18	1.556972E-18
6.149489E+03	4.581940E-18	1.548190E-18
6.159392E+03	4.556612E-18	1.539538E-18
6.169294E+03	4.531741E-18	1.531042E-18
6.179197E+03	4.507398E-18	1.522724E-18
6.189099E+03	4.483657E-18	1.514611E-18
6.199002E+03	4.460583E-18	1.506723E-18
6.208904E+03	4.438247E-18	1.499085E-18
6.218807E+03	4.416775E-18	1.491739E-18
6.228709E+03	4.396114E-18	1.484668E-18
6.238612E+03	4.376507E-18	1.477954E-18
6.248515E+03	4.357903E-18	1.471578E-18
6.258417E+03	4.340424E-18	1.465583E-18
6.268320E+03	4.324135E-18	1.459989E-18
6.278222E+03	4.309100E-18	1.454820E-18
6.288125E+03	4.295326E-18	1.450076E-18
6.298027E+03	4.282876E-18	1.445780E-18
6.307930E+03	4.271816E-18	1.441952E-18
6.317833E+03	4.262153E-18	1.438597E-18
6.327735E+03	4.253891E-18	1.435714E-18
6.337638E+03	4.247098E-18	1.433328E-18
6.347540E+03	4.241659E-18	1.431397E-18
6.357443E+03	4.237578E-18	1.429926E-18
6.367345E+03	4.234797E-18	1.428892E-18
6.377248E+03	4.233199E-18	1.428257E-18
6.387150E+03	4.232850E-18	1.428044E-18
6.397053E+03	4.233626E-18	1.428209E-18
6.406956E+03	4.235597E-18	1.428778E-18
6.416858E+03	4.238769E-18	1.429750E-18
6.426761E+03	4.243077E-18	1.431106E-18
6.436663E+03	4.248532E-18	1.432847E-18
6.446566E+03	4.255132E-18	1.434975E-18
6.456468E+03	4.262887E-18	1.437491E-18
6.466371E+03	4.271800E-18	1.440396E-18
6.476273E+03	4.281944E-18	1.443716E-18
6.486176E+03	4.293257E-18	1.447429E-18
6.496079E+03	4.305676E-18	1.451515E-18
6.505981E+03	4.319347E-18	1.456021E-18
6.515884E+03	4.334133E-18	1.460901E-18
6.525786E+03	4.350111E-18	1.466183E-18
6.535689E+03	4.367288E-18	1.471868E-18
6.545591E+03	4.385669E-18	1.477957E-18
6.555494E+03	4.405262E-18	1.484453E-18
6.565396E+03	4.426002E-18	1.491334E-18
6.575299E+03	4.447965E-18	1.498626E-18
6.585202E+03	4.471088E-18	1.506308E-18
6.595104E+03	4.495448E-18	1.514404E-18
6.605007E+03	4.520980E-18	1.522894E-18
6.614909E+03	4.547689E-18	1.531778E-18
6.624812E+03	4.575657E-18	1.541085E-18
6.634714E+03	4.604898E-18	1.550819E-18
6.644617E+03	4.635261E-18	1.560929E-18
6.654520E+03	4.666908E-18	1.571469E-18
6.664422E+03	4.699694E-18	1.582391E-18
6.674325E+03	4.733785E-18	1.593749E-18
6.684227E+03	4.769111E-18	1.605522E-18
6.694130E+03	4.805596E-18	1.617683E-18
6.704032E+03	4.843419E-18	1.630291E-18
6.713935E+03	4.882421E-18	1.643294E-18
6.723837E+03	4.922697E-18	1.656724E-18
6.733740E+03	4.964258E-18	1.670583E-18
6.743643E+03	5.007114E-18	1.684876E-18
6.753545E+03	5.051187E-18	1.699575E-18
6.763448E+03	5.096578E-18	1.714716E-18
6.773350E+03	5.143202E-18	1.730268E-18
6.783253E+03	5.191166E-18	1.746268E-18
6.793155E+03	5.240382E-18	1.762686E-18
6.803058E+03	5.290861E-18	1.779527E-18
6.812960E+03	5.342706E-18	1.796823E-18
6.822863E+03	5.395731E-18	1.814513E-18
6.832766E+03	5.450142E-18	1.832666E-18
6.842668E+03	5.505846E-18	1.851251E-18
6.852571E+03	5.562852E-18	1.870269E-18
6.862473E+03	5.621165E-18	1.889724E-18
6.872376E+03	5.680794E-18	1.909617E-18
6.882278E+03	5.741635E-18	1.929915E-18
6.892181E+03	5.803801E-18	1.950653E-18
6.902083E+03	5.867299E-18	1.971836E-18
6.911986E+03	5.932134E-18	1.993464E-18
6.921889E+03	5.998081E-18	2.015462E-18
6.931791E+03	6.065488E-18	2.037947E-18
6.941694E+03	6.134009E-18	2.060801E-18
6.951596E+03	6.203877E-18	2.084104E-18
6.961499E+03	6.274977E-18	2.107816E-18
6.971401E+03	6.347308E-18	2.131938E-18
6.981304E+03	6.420868E-18	2.156467E-18
6.991207E+03	6.495653E-18	2.181404E-18
7.001109E+03	6.571534E-18	2.206704E-18
7.011012E+03	6.648631E-18	2.232408E-18
7.020914E+03	6.726945E-18	2.258516E-18
7.030817E+03	6.806336E-18	2.284980E-18
7.040719E+03	6.886928E-18	2.311843E-18
7.050622E+03	6.968579E-18	2.339056E-18
7.060524E+03	7.051277E-18	2.366616E-18
7.070427E+03	7.135008E-18	2.394517E-18
7.080330E+03	7.219907E-18	2.422805E-18
7.090232E+03	7.305668E-18	2.451377E-18
7.100135E+03	7.392263E-18	2.480224E-18
7.110037E+03	7.479984E-18	2.509442E-18
7.119940E+03	7.568502E-18	2.538924E-18
7.129842E+03	7.657794E-18	2.568659E-18
7.139745E+03	7.747998E-18	2.598694E-18
7.149647E+03	7.838925E-18	2.628966E-18
7.159550E+03	7.930549E-18	2.659467E-18
7.169453E+03	8.022839E-18	2.690185E-18
7.179355E+03	8.115765E-18	2.721111E-18
7.189258E+03	8.209471E-18	2.752292E-18
7.199160E+03	8.303574E-18	2.783601E-18
7.209063E+03	8.398391E-18	2.815143E-18
7.218965E+03	8.493713E-18	2.846849E-18
7.228868E+03	8.589500E-18	2.878705E-18
7.238770E+03	8.685903E-18	2.910761E-18
7.248673E+03	8.782696E-18	2.942942E-18
7.258576E+03	8.880033E-18	2.975299E-18
7.268478E+03	8.977882E-18	3.007821E-18
7.278381E+03	9.076406E-18	3.040564E-18
7.288283E+03	9.175581E-18	3.073519E-18
7.298186E+03	9.275588E-18	3.106746E-18
7.308088E+03	9.376194E-18	3.140168E-18
7.317991E+03	9.478019E-18	3.173992E-18
7.327894E+03	9.581062E-18	3.208217E-18
7.337796E+03	9.685095E-18	3.242768E-18
7.347699E+03	9.790791E-18	3.277869E-18
7.357601E+03	9.897933E-18	3.313447E-18
7.367504E+03	1.000676E-17	3.349584E-18
7.377406E+03	1.011707E-17	3.386208E-18
7.387309E+03	1.022909E-17	3.423399E-18
7.397211E+03	1.034211E-17	3.460918E-18
7.407114E+03	1.045661E-17	3.498927E-18
7.417017E+03	1.057185E-17	3.537174E-18
7.426919E+03	1.068805E-17	3.575736E-18
7.436822E+03	1.080493E-17	3.614521E-18
7.446724E+03	1.092221E-17	3.653430E-18
7.456627E+03	1.104010E-17	3.692538E-18
7.466529E+03	1.115778E-17	3.731565E-18
7.476432E+03	1.127571E-17	3.770671E-18
7.486334E+03	1.139357E-17	3.809749E-18
7.496237E+03	1.151132E-17	3.848779E-18
7.506140E+03	1.162860E-17	3.887646E-18
7.516042E+03	1.174562E-17	3.926422E-18
7.525945E+03	1.186205E-17	3.964990E-18
7.535847E+03	1.197779E-17	4.003324E-18
7.545750E+03	1.209309E-17	4.041502E-18
7.555652E+03	1.220757E-17	4.079399E-18
7.565555E+03	1.232146E-17	4.117093E-18
7.575457E+03	1.243407E-17	4.154354E-18
7.585360E+03	1.254596E-17	4.191366E-18
7.595263E+03	1.265673E-17	4.227998E-18
7.605165E+03	1.276663E-17	4.264333E-18
7.615068E+03	1.287526E-17	4.300240E-18
7.624970E+03	1.298255E-17	4.335691E-18
7.634873E+03	1.308841E-17	4.370659E-18
7.644775E+03	1.319345E-17	4.405349E-18
7.654678E+03	1.329658E-17	4.439391E-18
7.664581E+03	1.339874E-17	4.473109E-18
7.674483E+03	1.349919E-17	4.506247E-18
7.684386E+03	1.359819E-17	4.538897E-18
