#wls	flux	fluxerr
1.584409E+03	1.678540E-16	5.639704E-17
1.624020E+03	1.743088E-16	5.856484E-17
1.663630E+03	1.800978E-16	6.050880E-17
1.703240E+03	1.851115E-16	6.219221E-17
1.742850E+03	1.892183E-16	6.357085E-17
1.782461E+03	1.922405E-16	6.458502E-17
1.822071E+03	1.939377E-16	6.515399E-17
1.861681E+03	1.940861E-16	6.520255E-17
1.901291E+03	1.924494E-16	6.465141E-17
1.940902E+03	1.888395E-16	6.343740E-17
1.980512E+03	1.832728E-16	6.156605E-17
2.020122E+03	1.760675E-16	5.914432E-17
2.059732E+03	1.680193E-16	5.643952E-17
2.099342E+03	1.603688E-16	5.386841E-17
2.138953E+03	1.543150E-16	5.183370E-17
2.178563E+03	1.504731E-16	5.054198E-17
2.218173E+03	1.485141E-16	4.988271E-17
2.257783E+03	1.473707E-16	4.949739E-17
2.297394E+03	1.460373E-16	4.904826E-17
2.337004E+03	1.437809E-16	4.828912E-17
2.376614E+03	1.402280E-16	4.709454E-17
2.416224E+03	1.353083E-16	4.544097E-17
2.455835E+03	1.291492E-16	4.337126E-17
2.495445E+03	1.219696E-16	4.095894E-17
2.535055E+03	1.140130E-16	3.828583E-17
2.574665E+03	1.055318E-16	3.543667E-17
2.614276E+03	9.675793E-17	3.248942E-17
2.653886E+03	8.789880E-17	2.951370E-17
2.693496E+03	7.913483E-17	2.657010E-17
2.733106E+03	7.062432E-17	2.371178E-17
2.772716E+03	6.248834E-17	2.097939E-17
2.812327E+03	5.482665E-17	1.840641E-17
2.851937E+03	4.771981E-17	1.601988E-17
2.891547E+03	4.122488E-17	1.383893E-17
2.931157E+03	3.537847E-17	1.187584E-17
2.970768E+03	3.019137E-17	1.013421E-17
2.980670E+03	2.899622E-17	9.732933E-18
2.990573E+03	2.784098E-17	9.345062E-18
3.000475E+03	2.672559E-17	8.970574E-18
3.010378E+03	2.564926E-17	8.609206E-18
3.020280E+03	2.461120E-17	8.260688E-18
3.030183E+03	2.361111E-17	7.924921E-18
3.040086E+03	2.264784E-17	7.601523E-18
3.049988E+03	2.172236E-17	7.290813E-18
3.059891E+03	2.083394E-17	6.992548E-18
3.069793E+03	1.998157E-17	6.706385E-18
3.079696E+03	1.916385E-17	6.431862E-18
3.089598E+03	1.837986E-17	6.168665E-18
3.099501E+03	1.762833E-17	5.916366E-18
3.109403E+03	1.690804E-17	5.674558E-18
3.119306E+03	1.621816E-17	5.442963E-18
3.129209E+03	1.555727E-17	5.221098E-18
3.139111E+03	1.492488E-17	5.008806E-18
3.149014E+03	1.431966E-17	4.805635E-18
3.158916E+03	1.374084E-17	4.611332E-18
3.168819E+03	1.318748E-17	4.425573E-18
3.178721E+03	1.265858E-17	4.248027E-18
3.188624E+03	1.215344E-17	4.078461E-18
3.198526E+03	1.167115E-17	3.916564E-18
3.208429E+03	1.121062E-17	3.761973E-18
3.218332E+03	1.077155E-17	3.614587E-18
3.228234E+03	1.035254E-17	3.473938E-18
3.238137E+03	9.953297E-18	3.339924E-18
3.248039E+03	9.572685E-18	3.212165E-18
3.257942E+03	9.210088E-18	3.090453E-18
3.267844E+03	8.864888E-18	2.974582E-18
3.277747E+03	8.536078E-18	2.864214E-18
3.287650E+03	8.223216E-18	2.759199E-18
3.297552E+03	7.925603E-18	2.659303E-18
3.307455E+03	7.642456E-18	2.564264E-18
3.317357E+03	7.373145E-18	2.473869E-18
3.327260E+03	7.117060E-18	2.387914E-18
3.337162E+03	6.873707E-18	2.306233E-18
3.347065E+03	6.642334E-18	2.228573E-18
3.356967E+03	6.422579E-18	2.154813E-18
3.366870E+03	6.213749E-18	2.084720E-18
3.376773E+03	6.015357E-18	2.018131E-18
3.386675E+03	5.827008E-18	1.954913E-18
3.396578E+03	5.648034E-18	1.894842E-18
3.406480E+03	5.478156E-18	1.837824E-18
3.416383E+03	5.316901E-18	1.783700E-18
3.426285E+03	5.163697E-18	1.732279E-18
3.436188E+03	5.018318E-18	1.683483E-18
3.446090E+03	4.880249E-18	1.637142E-18
3.455993E+03	4.749180E-18	1.593150E-18
3.465896E+03	4.624761E-18	1.551389E-18
3.475798E+03	4.506515E-18	1.511700E-18
3.485701E+03	4.394198E-18	1.474002E-18
3.495603E+03	4.287437E-18	1.438168E-18
3.505506E+03	4.185888E-18	1.404083E-18
3.515408E+03	4.089278E-18	1.371656E-18
3.525311E+03	3.997268E-18	1.340773E-18
3.535213E+03	3.909586E-18	1.311342E-18
3.545116E+03	3.825941E-18	1.283266E-18
3.555019E+03	3.746140E-18	1.256480E-18
3.564921E+03	3.669962E-18	1.230910E-18
3.574824E+03	3.597168E-18	1.206475E-18
3.584726E+03	3.527602E-18	1.183124E-18
3.594629E+03	3.461115E-18	1.160806E-18
3.604531E+03	3.397501E-18	1.139453E-18
3.614434E+03	3.336720E-18	1.119049E-18
3.624337E+03	3.278580E-18	1.099533E-18
3.634239E+03	3.223014E-18	1.080880E-18
3.644142E+03	3.169928E-18	1.063059E-18
3.654044E+03	3.119227E-18	1.046038E-18
3.663947E+03	3.070844E-18	1.029796E-18
3.673849E+03	3.024744E-18	1.014319E-18
3.683752E+03	2.980777E-18	9.995577E-19
3.693654E+03	2.938959E-18	9.855177E-19
3.703557E+03	2.899172E-18	9.721592E-19
3.713460E+03	2.861377E-18	9.594687E-19
3.723362E+03	2.825530E-18	9.474321E-19
3.733265E+03	2.791525E-18	9.360131E-19
3.743167E+03	2.759363E-18	9.252127E-19
3.753070E+03	2.728962E-18	9.150027E-19
3.762972E+03	2.700281E-18	9.053700E-19
3.772875E+03	2.673261E-18	8.962942E-19
3.782777E+03	2.647865E-18	8.877631E-19
3.792680E+03	2.624034E-18	8.797571E-19
3.802583E+03	2.601733E-18	8.722642E-19
3.812485E+03	2.580908E-18	8.652662E-19
3.822388E+03	2.561547E-18	8.587592E-19
3.832290E+03	2.543596E-18	8.527251E-19
3.842193E+03	2.527007E-18	8.471474E-19
3.852095E+03	2.511747E-18	8.420157E-19
3.861998E+03	2.497770E-18	8.373143E-19
3.871900E+03	2.485067E-18	8.330398E-19
3.881803E+03	2.473595E-18	8.291779E-19
3.891706E+03	2.463326E-18	8.257194E-19
3.901608E+03	2.454217E-18	8.226497E-19
3.911511E+03	2.446225E-18	8.199546E-19
3.921413E+03	2.439366E-18	8.176391E-19
3.931316E+03	2.433562E-18	8.156776E-19
3.941218E+03	2.428811E-18	8.140685E-19
3.951121E+03	2.425074E-18	8.127993E-19
3.961024E+03	2.422331E-18	8.118636E-19
3.970926E+03	2.420565E-18	8.112548E-19
3.980829E+03	2.419721E-18	8.109552E-19
3.990731E+03	2.419802E-18	8.109655E-19
4.000634E+03	2.420773E-18	8.112737E-19
4.010536E+03	2.422618E-18	8.118748E-19
4.020439E+03	2.425305E-18	8.127581E-19
4.030341E+03	2.428804E-18	8.139132E-19
4.040244E+03	2.433118E-18	8.153415E-19
4.050147E+03	2.438200E-18	8.170268E-19
4.060049E+03	2.444040E-18	8.189658E-19
4.069952E+03	2.450627E-18	8.211550E-19
4.079854E+03	2.457913E-18	8.235783E-19
4.089757E+03	2.465910E-18	8.262396E-19
4.099659E+03	2.474573E-18	8.291235E-19
4.109562E+03	2.483894E-18	8.322279E-19
4.119464E+03	2.493864E-18	8.355496E-19
4.129367E+03	2.504444E-18	8.390750E-19
4.139270E+03	2.515643E-18	8.428079E-19
4.149172E+03	2.527400E-18	8.467273E-19
4.159075E+03	2.539749E-18	8.508445E-19
4.168977E+03	2.552628E-18	8.551392E-19
4.178880E+03	2.566034E-18	8.596100E-19
4.188782E+03	2.579943E-18	8.642493E-19
4.198685E+03	2.594353E-18	8.690556E-19
4.208587E+03	2.609203E-18	8.740091E-19
4.218490E+03	2.624508E-18	8.791147E-19
4.228393E+03	2.640229E-18	8.843592E-19
4.238295E+03	2.656323E-18	8.897282E-19
4.248198E+03	2.672786E-18	8.952205E-19
4.258100E+03	2.689598E-18	9.008293E-19
4.268003E+03	2.706694E-18	9.065330E-19
4.277905E+03	2.724051E-18	9.123232E-19
4.287808E+03	2.741644E-18	9.181924E-19
4.297711E+03	2.759448E-18	9.241317E-19
4.307613E+03	2.777439E-18	9.301331E-19
4.317516E+03	2.795612E-18	9.361951E-19
4.327418E+03	2.813942E-18	9.423092E-19
4.337321E+03	2.832403E-18	9.484667E-19
4.347223E+03	2.851034E-18	9.546806E-19
4.357126E+03	2.869811E-18	9.609430E-19
4.367028E+03	2.888731E-18	9.672526E-19
4.376931E+03	2.907811E-18	9.736155E-19
4.386834E+03	2.927053E-18	9.800321E-19
4.396736E+03	2.946431E-18	9.864938E-19
4.406639E+03	2.965968E-18	9.930081E-19
4.416541E+03	2.985640E-18	9.995669E-19
4.426444E+03	3.005447E-18	1.006171E-18
4.436346E+03	3.025393E-18	1.012821E-18
4.446249E+03	3.045429E-18	1.019500E-18
4.456151E+03	3.065586E-18	1.026219E-18
4.466054E+03	3.085843E-18	1.032971E-18
4.475957E+03	3.106181E-18	1.039750E-18
4.485859E+03	3.126606E-18	1.046557E-18
4.495762E+03	3.147077E-18	1.053379E-18
4.505664E+03	3.167603E-18	1.060219E-18
4.515567E+03	3.188193E-18	1.067080E-18
4.525469E+03	3.208838E-18	1.073958E-18
4.535372E+03	3.229495E-18	1.080840E-18
4.545274E+03	3.250178E-18	1.087731E-18
4.555177E+03	3.270878E-18	1.094626E-18
4.565080E+03	3.291585E-18	1.101522E-18
4.574982E+03	3.312316E-18	1.108427E-18
4.584885E+03	3.333039E-18	1.115328E-18
4.594787E+03	3.353773E-18	1.122232E-18
4.604690E+03	3.374511E-18	1.129137E-18
4.614592E+03	3.395251E-18	1.136042E-18
4.624495E+03	3.415987E-18	1.142945E-18
4.634398E+03	3.436717E-18	1.149845E-18
4.644300E+03	3.457438E-18	1.156741E-18
4.654203E+03	3.478208E-18	1.163654E-18
4.664105E+03	3.499028E-18	1.170582E-18
4.674008E+03	3.519900E-18	1.177527E-18
4.683910E+03	3.540888E-18	1.184510E-18
4.693813E+03	3.561964E-18	1.191522E-18
4.703715E+03	3.583134E-18	1.198565E-18
4.713618E+03	3.604433E-18	1.205650E-18
4.723521E+03	3.625867E-18	1.212779E-18
4.733423E+03	3.647412E-18	1.219945E-18
4.743326E+03	3.669106E-18	1.227160E-18
4.753228E+03	3.690959E-18	1.234428E-18
4.763131E+03	3.712944E-18	1.241739E-18
4.773033E+03	3.735106E-18	1.249108E-18
4.782936E+03	3.757455E-18	1.256539E-18
4.792838E+03	3.780001E-18	1.264035E-18
4.802741E+03	3.802755E-18	1.271601E-18
4.812644E+03	3.825696E-18	1.279227E-18
4.822546E+03	3.848907E-18	1.286943E-18
4.832449E+03	3.872329E-18	1.294729E-18
4.842351E+03	3.895974E-18	1.302589E-18
4.852254E+03	3.919894E-18	1.310540E-18
4.862156E+03	3.944102E-18	1.318586E-18
4.872059E+03	3.968613E-18	1.326732E-18
4.881961E+03	3.993368E-18	1.334960E-18
4.891864E+03	4.018454E-18	1.343297E-18
4.901767E+03	4.043848E-18	1.351736E-18
4.911669E+03	4.069564E-18	1.360281E-18
4.921572E+03	4.095615E-18	1.368938E-18
4.931474E+03	4.122015E-18	1.377711E-18
4.941377E+03	4.148734E-18	1.386589E-18
4.951279E+03	4.175785E-18	1.395577E-18
4.961182E+03	4.203216E-18	1.404691E-18
4.971085E+03	4.230997E-18	1.413921E-18
4.980987E+03	4.259097E-18	1.423256E-18
4.990890E+03	4.287601E-18	1.432726E-18
5.000792E+03	4.316393E-18	1.442290E-18
5.010695E+03	4.345560E-18	1.451979E-18
5.020597E+03	4.375105E-18	1.461793E-18
5.030500E+03	4.404907E-18	1.471692E-18
5.040402E+03	4.435091E-18	1.481717E-18
5.050305E+03	4.465573E-18	1.491841E-18
5.060208E+03	4.496352E-18	1.502062E-18
5.070110E+03	4.527471E-18	1.512396E-18
5.080013E+03	4.558841E-18	1.522813E-18
5.089915E+03	4.590454E-18	1.533309E-18
5.099818E+03	4.622353E-18	1.543900E-18
5.109720E+03	4.654489E-18	1.554569E-18
5.119623E+03	4.686852E-18	1.565312E-18
5.129525E+03	4.719392E-18	1.576113E-18
5.139428E+03	4.752144E-18	1.586983E-18
5.149331E+03	4.785006E-18	1.597889E-18
5.159233E+03	4.818060E-18	1.608858E-18
5.169136E+03	4.851249E-18	1.619870E-18
5.179038E+03	4.884509E-18	1.630905E-18
5.188941E+03	4.917828E-18	1.641958E-18
5.198843E+03	4.951235E-18	1.653039E-18
5.208746E+03	4.984614E-18	1.664109E-18
5.218648E+03	5.017998E-18	1.675179E-18
5.228551E+03	5.051411E-18	1.686258E-18
5.238454E+03	5.084685E-18	1.697289E-18
5.248356E+03	5.117942E-18	1.708312E-18
5.258259E+03	5.151008E-18	1.719271E-18
5.268161E+03	5.184008E-18	1.730206E-18
5.278064E+03	5.216759E-18	1.741056E-18
5.287966E+03	5.249337E-18	1.751847E-18
5.297869E+03	5.281712E-18	1.762569E-18
5.307772E+03	5.313802E-18	1.773194E-18
5.317674E+03	5.345685E-18	1.783749E-18
5.327577E+03	5.377171E-18	1.794170E-18
5.337479E+03	5.408390E-18	1.804500E-18
5.347382E+03	5.439262E-18	1.814713E-18
5.357284E+03	5.469759E-18	1.824799E-18
5.367187E+03	5.499852E-18	1.834748E-18
5.377089E+03	5.529516E-18	1.844554E-18
5.386992E+03	5.558667E-18	1.854187E-18
5.396895E+03	5.587280E-18	1.863638E-18
5.406797E+03	5.615325E-18	1.872899E-18
5.416700E+03	5.642778E-18	1.881961E-18
5.426602E+03	5.669553E-18	1.890795E-18
5.436505E+03	5.695566E-18	1.899374E-18
5.446407E+03	5.720844E-18	1.907706E-18
5.456310E+03	5.745300E-18	1.915763E-18
5.466212E+03	5.768850E-18	1.923516E-18
5.476115E+03	5.791401E-18	1.930935E-18
5.486018E+03	5.812983E-18	1.938029E-18
5.495920E+03	5.833444E-18	1.944749E-18
5.505823E+03	5.852813E-18	1.951103E-18
5.515725E+03	5.870941E-18	1.957042E-18
5.525628E+03	5.887796E-18	1.962555E-18
5.535530E+03	5.903403E-18	1.967651E-18
5.545433E+03	5.917615E-18	1.972281E-18
5.555335E+03	5.930463E-18	1.976456E-18
5.565238E+03	5.941914E-18	1.980164E-18
5.575141E+03	5.951887E-18	1.983378E-18
5.585043E+03	5.960354E-18	1.986089E-18
5.594946E+03	5.967351E-18	1.988310E-18
5.604848E+03	5.972862E-18	1.990035E-18
5.614751E+03	5.976806E-18	1.991237E-18
5.624653E+03	5.979232E-18	1.991932E-18
5.634556E+03	5.980188E-18	1.992137E-18
5.644459E+03	5.979544E-18	1.991809E-18
5.654361E+03	5.977357E-18	1.990965E-18
5.664264E+03	5.973690E-18	1.989629E-18
5.674166E+03	5.968546E-18	1.987800E-18
5.684069E+03	5.961929E-18	1.985480E-18
5.693971E+03	5.953851E-18	1.982673E-18
5.703874E+03	5.944322E-18	1.979382E-18
5.713776E+03	5.933425E-18	1.975636E-18
5.723679E+03	5.921115E-18	1.971419E-18
5.733582E+03	5.907540E-18	1.966781E-18
5.743484E+03	5.892665E-18	1.961710E-18
5.753387E+03	5.876519E-18	1.956216E-18
5.763289E+03	5.859261E-18	1.950352E-18
5.773192E+03	5.840803E-18	1.944088E-18
5.783094E+03	5.821246E-18	1.937459E-18
5.792997E+03	5.800698E-18	1.930500E-18
5.802899E+03	5.779144E-18	1.923206E-18
5.812802E+03	5.756698E-18	1.915616E-18
5.822705E+03	5.733349E-18	1.907726E-18
5.832607E+03	5.709282E-18	1.899597E-18
5.842510E+03	5.684493E-18	1.891229E-18
5.852412E+03	5.659045E-18	1.882641E-18
5.862315E+03	5.633062E-18	1.873876E-18
5.872217E+03	5.606549E-18	1.864936E-18
5.882120E+03	5.579630E-18	1.855861E-18
5.892022E+03	5.552313E-18	1.846653E-18
5.901925E+03	5.524721E-18	1.837356E-18
5.911828E+03	5.496923E-18	1.827990E-18
5.921730E+03	5.468978E-18	1.818576E-18
5.931633E+03	5.440887E-18	1.809113E-18
5.941535E+03	5.412772E-18	1.799644E-18
5.951438E+03	5.384693E-18	1.790187E-18
5.961340E+03	5.356642E-18	1.780740E-18
5.971243E+03	5.328734E-18	1.771342E-18
5.981146E+03	5.300960E-18	1.761988E-18
5.991048E+03	5.273306E-18	1.752676E-18
6.000951E+03	5.245946E-18	1.743461E-18
6.010853E+03	5.218796E-18	1.734317E-18
6.020756E+03	5.191964E-18	1.725279E-18
6.030658E+03	5.165363E-18	1.716319E-18
6.040561E+03	5.139090E-18	1.707469E-18
6.050463E+03	5.113123E-18	1.698720E-18
6.060366E+03	5.087489E-18	1.690083E-18
6.070269E+03	5.062221E-18	1.681568E-18
6.080171E+03	5.037284E-18	1.673164E-18
6.090074E+03	5.012702E-18	1.664878E-18
6.099976E+03	4.988497E-18	1.656718E-18
6.109879E+03	4.964693E-18	1.648692E-18
6.119781E+03	4.941306E-18	1.640805E-18
6.129684E+03	4.918289E-18	1.633041E-18
6.139586E+03	4.895721E-18	1.625427E-18
6.149489E+03	4.873615E-18	1.617966E-18
6.159392E+03	4.851978E-18	1.610662E-18
6.169294E+03	4.830885E-18	1.603539E-18
6.179197E+03	4.810404E-18	1.596620E-18
6.189099E+03	4.790605E-18	1.589928E-18
6.199002E+03	4.771557E-18	1.583485E-18
6.208904E+03	4.753329E-18	1.577315E-18
6.218807E+03	4.736048E-18	1.571459E-18
6.228709E+03	4.719656E-18	1.565898E-18
6.238612E+03	4.704413E-18	1.560719E-18
6.248515E+03	4.690255E-18	1.555901E-18
6.258417E+03	4.677313E-18	1.551485E-18
6.268320E+03	4.665659E-18	1.547497E-18
6.278222E+03	4.655358E-18	1.543958E-18
6.288125E+03	4.646417E-18	1.540870E-18
6.298027E+03	4.638905E-18	1.538256E-18
6.307930E+03	4.632893E-18	1.536139E-18
6.317833E+03	4.628389E-18	1.534521E-18
6.327735E+03	4.625399E-18	1.533406E-18
6.337638E+03	4.624000E-18	1.532817E-18
6.347540E+03	4.624060E-18	1.532711E-18
6.357443E+03	4.625592E-18	1.533093E-18
6.367345E+03	4.628533E-18	1.533941E-18
6.377248E+03	4.632751E-18	1.535212E-18
6.387150E+03	4.638322E-18	1.536930E-18
6.397053E+03	4.645112E-18	1.539051E-18
6.406956E+03	4.653194E-18	1.541599E-18
6.416858E+03	4.662576E-18	1.544577E-18
6.426761E+03	4.673190E-18	1.547962E-18
6.436663E+03	4.685045E-18	1.551757E-18
6.446566E+03	4.698142E-18	1.555962E-18
6.456468E+03	4.712489E-18	1.560579E-18
6.466371E+03	4.728089E-18	1.565611E-18
6.476273E+03	4.745026E-18	1.571083E-18
6.486176E+03	4.763231E-18	1.576974E-18
6.496079E+03	4.782636E-18	1.583260E-18
6.505981E+03	4.803399E-18	1.589994E-18
6.515884E+03	4.825375E-18	1.597128E-18
6.525786E+03	4.848646E-18	1.604689E-18
6.535689E+03	4.873222E-18	1.612680E-18
6.545591E+03	4.899111E-18	1.621102E-18
6.555494E+03	4.926322E-18	1.629961E-18
6.565396E+03	4.954781E-18	1.639230E-18
6.575299E+03	4.984580E-18	1.648940E-18
6.585202E+03	5.015644E-18	1.659066E-18
6.595104E+03	5.048063E-18	1.669638E-18
6.605007E+03	5.081765E-18	1.680632E-18
6.614909E+03	5.116757E-18	1.692050E-18
6.624812E+03	5.153136E-18	1.703923E-18
6.634714E+03	5.190913E-18	1.716257E-18
6.644617E+03	5.229921E-18	1.728994E-18
6.654520E+03	5.270349E-18	1.742197E-18
6.664422E+03	5.312025E-18	1.755811E-18
6.674325E+03	5.355144E-18	1.769897E-18
6.684227E+03	5.399624E-18	1.784431E-18
6.694130E+03	5.445383E-18	1.799383E-18
6.704032E+03	5.492618E-18	1.814820E-18
6.713935E+03	5.541154E-18	1.830683E-18
6.723837E+03	5.591093E-18	1.847006E-18
6.733740E+03	5.642450E-18	1.863794E-18
6.743643E+03	5.695239E-18	1.881051E-18
6.753545E+03	5.749367E-18	1.898746E-18
6.763448E+03	5.804947E-18	1.916917E-18
6.773350E+03	5.861890E-18	1.935533E-18
6.783253E+03	5.920308E-18	1.954632E-18
6.793155E+03	5.980106E-18	1.974183E-18
6.803058E+03	6.041296E-18	1.994188E-18
6.812960E+03	6.103994E-18	2.014686E-18
6.822863E+03	6.167988E-18	2.035608E-18
6.832766E+03	6.233514E-18	2.057030E-18
6.842668E+03	6.300468E-18	2.078919E-18
6.852571E+03	6.368856E-18	2.101276E-18
6.862473E+03	6.438687E-18	2.124103E-18
6.872376E+03	6.509970E-18	2.147405E-18
6.882278E+03	6.582585E-18	2.171140E-18
6.892181E+03	6.656664E-18	2.195353E-18
6.902083E+03	6.732211E-18	2.220044E-18
6.911986E+03	6.809236E-18	2.245217E-18
6.921889E+03	6.887478E-18	2.270786E-18
6.931791E+03	6.967339E-18	2.296882E-18
6.941694E+03	7.048415E-18	2.323373E-18
6.951596E+03	7.130982E-18	2.350349E-18
6.961499E+03	7.214901E-18	2.377765E-18
6.971401E+03	7.300174E-18	2.405620E-18
6.981304E+03	7.386795E-18	2.433913E-18
6.991207E+03	7.474763E-18	2.462644E-18
7.001109E+03	7.563925E-18	2.491761E-18
7.011012E+03	7.654423E-18	2.521311E-18
7.020914E+03	7.746252E-18	2.551293E-18
7.030817E+03	7.839247E-18	2.581652E-18
7.040719E+03	7.933559E-18	2.612438E-18
7.050622E+03	8.029018E-18	2.643594E-18
7.060524E+03	8.125606E-18	2.675115E-18
7.070427E+03	8.223309E-18	2.706995E-18
7.080330E+03	8.322284E-18	2.739286E-18
7.090232E+03	8.422169E-18	2.771870E-18
7.100135E+03	8.522940E-18	2.804737E-18
7.110037E+03	8.624926E-18	2.837997E-18
7.119940E+03	8.727750E-18	2.871525E-18
7.129842E+03	8.831383E-18	2.905311E-18
7.139745E+03	8.935981E-18	2.939406E-18
7.149647E+03	9.041325E-18	2.973739E-18
7.159550E+03	9.147385E-18	3.008299E-18
7.169453E+03	9.254123E-18	3.043074E-18
7.179355E+03	9.361501E-18	3.078052E-18
7.189258E+03	9.469683E-18	3.113285E-18
7.199160E+03	9.578228E-18	3.148630E-18
7.209063E+03	9.687502E-18	3.184206E-18
7.218965E+03	9.797259E-18	3.219932E-18
7.228868E+03	9.907454E-18	3.255794E-18
7.238770E+03	1.001826E-17	3.291849E-18
7.248673E+03	1.012942E-17	3.328010E-18
7.258576E+03	1.024111E-17	3.364338E-18
7.268478E+03	1.035329E-17	3.400819E-18
7.278381E+03	1.046616E-17	3.437515E-18
7.288283E+03	1.057968E-17	3.474417E-18
7.298186E+03	1.069406E-17	3.511595E-18
7.308088E+03	1.080904E-17	3.548959E-18
7.317991E+03	1.092533E-17	3.586745E-18
7.327894E+03	1.104293E-17	3.624953E-18
7.337796E+03	1.116158E-17	3.663497E-18
7.347699E+03	1.128205E-17	3.702630E-18
7.357601E+03	1.140411E-17	3.742273E-18
7.367504E+03	1.152803E-17	3.782517E-18
7.377406E+03	1.165356E-17	3.823280E-18
7.387309E+03	1.178098E-17	3.864656E-18
7.397211E+03	1.190948E-17	3.906375E-18
7.407114E+03	1.203961E-17	3.948618E-18
7.417017E+03	1.217051E-17	3.991105E-18
7.426919E+03	1.230244E-17	4.033922E-18
7.436822E+03	1.243510E-17	4.076964E-18
7.446724E+03	1.256814E-17	4.120124E-18
7.456627E+03	1.270183E-17	4.163487E-18
7.466529E+03	1.283521E-17	4.206736E-18
7.476432E+03	1.296882E-17	4.250055E-18
7.486334E+03	1.310231E-17	4.293322E-18
7.496237E+03	1.323561E-17	4.336516E-18
7.506140E+03	1.336833E-17	4.379510E-18
7.516042E+03	1.350072E-17	4.422387E-18
7.525945E+03	1.363237E-17	4.465013E-18
7.535847E+03	1.376320E-17	4.507363E-18
7.545750E+03	1.389349E-17	4.549521E-18
7.555652E+03	1.402279E-17	4.591351E-18
7.565555E+03	1.415139E-17	4.632941E-18
7.575457E+03	1.427849E-17	4.674029E-18
7.585360E+03	1.440472E-17	4.714822E-18
7.595263E+03	1.452962E-17	4.755175E-18
7.605165E+03	1.465349E-17	4.795179E-18
7.615068E+03	1.477586E-17	4.834685E-18
7.624970E+03	1.489664E-17	4.873664E-18
7.634873E+03	1.501575E-17	4.912084E-18
7.644775E+03	1.513386E-17	4.950172E-18
7.654678E+03	1.524973E-17	4.987518E-18
7.664581E+03	1.536444E-17	5.024480E-18
7.674483E+03	1.547713E-17	5.060770E-18
7.684386E+03	1.558811E-17	5.096494E-18
