#wls	flux	fluxerr
1.584409E+03	7.070427E-17	1.248042E-17
1.624020E+03	7.360125E-17	1.299167E-17
1.663630E+03	7.626242E-17	1.346129E-17
1.703240E+03	7.862757E-17	1.387863E-17
1.742850E+03	8.066370E-17	1.423789E-17
1.782461E+03	8.227936E-17	1.452292E-17
1.822071E+03	8.337684E-17	1.471647E-17
1.861681E+03	8.386183E-17	1.480191E-17
1.901291E+03	8.361050E-17	1.475737E-17
1.940902E+03	8.254394E-17	1.456895E-17
1.980512E+03	8.064171E-17	1.423302E-17
2.020122E+03	7.804041E-17	1.377371E-17
2.059732E+03	7.506707E-17	1.324875E-17
2.099342E+03	7.225654E-17	1.275253E-17
2.138953E+03	7.016607E-17	1.238339E-17
2.178563E+03	6.908452E-17	1.219232E-17
2.218173E+03	6.888958E-17	1.215772E-17
2.257783E+03	6.915433E-17	1.220423E-17
2.297394E+03	6.938220E-17	1.224423E-17
2.337004E+03	6.922229E-17	1.221578E-17
2.376614E+03	6.848348E-17	1.208517E-17
2.416224E+03	6.711370E-17	1.184321E-17
2.455835E+03	6.515737E-17	1.149775E-17
2.495445E+03	6.268656E-17	1.106151E-17
2.535055E+03	5.979816E-17	1.055160E-17
2.574665E+03	5.658672E-17	9.984700E-18
2.614276E+03	5.314498E-17	9.377184E-18
2.653886E+03	4.955228E-17	8.743052E-18
2.693496E+03	4.588107E-17	8.095094E-18
2.733106E+03	4.219499E-17	7.444538E-18
2.772716E+03	3.854945E-17	6.801162E-18
2.812327E+03	3.499319E-17	6.173567E-18
2.851937E+03	3.156968E-17	5.569422E-18
2.891547E+03	2.831575E-17	4.995223E-18
2.931157E+03	2.526198E-17	4.456364E-18
2.970768E+03	2.243109E-17	3.956850E-18
2.980670E+03	2.176066E-17	3.838554E-18
2.990573E+03	2.110473E-17	3.722818E-18
3.000475E+03	2.046428E-17	3.609815E-18
3.010378E+03	1.983883E-17	3.499458E-18
3.020280E+03	1.922877E-17	3.391818E-18
3.030183E+03	1.863443E-17	3.286953E-18
3.040086E+03	1.805513E-17	3.184741E-18
3.049988E+03	1.749259E-17	3.085489E-18
3.059891E+03	1.694653E-17	2.989143E-18
3.069793E+03	1.641712E-17	2.895737E-18
3.079696E+03	1.590353E-17	2.805122E-18
3.089598E+03	1.540534E-17	2.717225E-18
3.099501E+03	1.492273E-17	2.632077E-18
3.109403E+03	1.445473E-17	2.549508E-18
3.119306E+03	1.400181E-17	2.469600E-18
3.129209E+03	1.356281E-17	2.392148E-18
3.139111E+03	1.313818E-17	2.317232E-18
3.149014E+03	1.272710E-17	2.244708E-18
3.158916E+03	1.232975E-17	2.174605E-18
3.168819E+03	1.194558E-17	2.106829E-18
3.178721E+03	1.157453E-17	2.041367E-18
3.188624E+03	1.121628E-17	1.978165E-18
3.198526E+03	1.087055E-17	1.917171E-18
3.208429E+03	1.053688E-17	1.858306E-18
3.218332E+03	1.021535E-17	1.801582E-18
3.228234E+03	9.905511E-18	1.746921E-18
3.238137E+03	9.607226E-18	1.694299E-18
3.248039E+03	9.320069E-18	1.643640E-18
3.257942E+03	9.043775E-18	1.594898E-18
3.267844E+03	8.778206E-18	1.548048E-18
3.277747E+03	8.522946E-18	1.503017E-18
3.287650E+03	8.277871E-18	1.459782E-18
3.297552E+03	8.042682E-18	1.418293E-18
3.307455E+03	7.816891E-18	1.378461E-18
3.317357E+03	7.600465E-18	1.340281E-18
3.327260E+03	7.393027E-18	1.303687E-18
3.337162E+03	7.194320E-18	1.268633E-18
3.347065E+03	7.004097E-18	1.235076E-18
3.356967E+03	6.821914E-18	1.202937E-18
3.366870E+03	6.647723E-18	1.172208E-18
3.376773E+03	6.481197E-18	1.142831E-18
3.386675E+03	6.322027E-18	1.114752E-18
3.396578E+03	6.169984E-18	1.087930E-18
3.406480E+03	6.024858E-18	1.062329E-18
3.416383E+03	5.886291E-18	1.037884E-18
3.426285E+03	5.754161E-18	1.014575E-18
3.436188E+03	5.628134E-18	9.923421E-19
3.446090E+03	5.508034E-18	9.711547E-19
3.455993E+03	5.393620E-18	9.509704E-19
3.465896E+03	5.284666E-18	9.317492E-19
3.475798E+03	5.180959E-18	9.134532E-19
3.485701E+03	5.082290E-18	8.960462E-19
3.495603E+03	4.988414E-18	8.794843E-19
3.505506E+03	4.899095E-18	8.637262E-19
3.515408E+03	4.814167E-18	8.487426E-19
3.525311E+03	4.733421E-18	8.344966E-19
3.535213E+03	4.656709E-18	8.209621E-19
3.545116E+03	4.583795E-18	8.080973E-19
3.555019E+03	4.514553E-18	7.958801E-19
3.564921E+03	4.448814E-18	7.842808E-19
3.574824E+03	4.386509E-18	7.732869E-19
3.584726E+03	4.327439E-18	7.628636E-19
3.594629E+03	4.271501E-18	7.529928E-19
3.604531E+03	4.218477E-18	7.436356E-19
3.614434E+03	4.168277E-18	7.347765E-19
3.624337E+03	4.120779E-18	7.263940E-19
3.634239E+03	4.075865E-18	7.184670E-19
3.644142E+03	4.033460E-18	7.109825E-19
3.654044E+03	3.993490E-18	7.039272E-19
3.663947E+03	3.955847E-18	6.972824E-19
3.673849E+03	3.920499E-18	6.910420E-19
3.683752E+03	3.887340E-18	6.851878E-19
3.693654E+03	3.856375E-18	6.797202E-19
3.703557E+03	3.827536E-18	6.746274E-19
3.713460E+03	3.800755E-18	6.698976E-19
3.723362E+03	3.776001E-18	6.655250E-19
3.733265E+03	3.753273E-18	6.615095E-19
3.743167E+03	3.732505E-18	6.578396E-19
3.753070E+03	3.713695E-18	6.545148E-19
3.762972E+03	3.696778E-18	6.515238E-19
3.772875E+03	3.681721E-18	6.488604E-19
3.782777E+03	3.668521E-18	6.465243E-19
3.792680E+03	3.657174E-18	6.445150E-19
3.802583E+03	3.647617E-18	6.428208E-19
3.812485E+03	3.639876E-18	6.414468E-19
3.822388E+03	3.633856E-18	6.403762E-19
3.832290E+03	3.629616E-18	6.396190E-19
3.842193E+03	3.627061E-18	6.391588E-19
3.852095E+03	3.626249E-18	6.390057E-19
3.861998E+03	3.627117E-18	6.391485E-19
3.871900E+03	3.629662E-18	6.395868E-19
3.881803E+03	3.633853E-18	6.403150E-19
3.891706E+03	3.639687E-18	6.413326E-19
3.901608E+03	3.647133E-18	6.426342E-19
3.911511E+03	3.656219E-18	6.442247E-19
3.921413E+03	3.666887E-18	6.460937E-19
3.931316E+03	3.679134E-18	6.482409E-19
3.941218E+03	3.692933E-18	6.506613E-19
3.951121E+03	3.708312E-18	6.533600E-19
3.961024E+03	3.725244E-18	6.563321E-19
3.970926E+03	3.743700E-18	6.595725E-19
3.980829E+03	3.763653E-18	6.630766E-19
3.990731E+03	3.785135E-18	6.668498E-19
4.000634E+03	3.808090E-18	6.708822E-19
4.010536E+03	3.832550E-18	6.751797E-19
4.020439E+03	3.858461E-18	6.797325E-19
4.030341E+03	3.885826E-18	6.845412E-19
4.040244E+03	3.914650E-18	6.896067E-19
4.050147E+03	3.944909E-18	6.949246E-19
4.060049E+03	3.976578E-18	7.004907E-19
4.069952E+03	4.009630E-18	7.063002E-19
4.079854E+03	4.044106E-18	7.123601E-19
4.089757E+03	4.079948E-18	7.186604E-19
4.099659E+03	4.117164E-18	7.252024E-19
4.109562E+03	4.155697E-18	7.319760E-19
4.119464E+03	4.195555E-18	7.389827E-19
4.129367E+03	4.236745E-18	7.462236E-19
4.139270E+03	4.279209E-18	7.536886E-19
4.149172E+03	4.322955E-18	7.613790E-19
4.159075E+03	4.367924E-18	7.692843E-19
4.168977E+03	4.414121E-18	7.774056E-19
4.178880E+03	4.461486E-18	7.857321E-19
4.188782E+03	4.510024E-18	7.942648E-19
4.198685E+03	4.559671E-18	8.029924E-19
4.208587E+03	4.610395E-18	8.119093E-19
4.218490E+03	4.662129E-18	8.210033E-19
4.228393E+03	4.714873E-18	8.302750E-19
4.238295E+03	4.768555E-18	8.397114E-19
4.248198E+03	4.823139E-18	8.493060E-19
4.258100E+03	4.878546E-18	8.590451E-19
4.268003E+03	4.934695E-18	8.689143E-19
4.277905E+03	4.991541E-18	8.789056E-19
4.287808E+03	5.049036E-18	8.890108E-19
4.297711E+03	5.107090E-18	8.992139E-19
4.307613E+03	5.165651E-18	9.095057E-19
4.317516E+03	5.224622E-18	9.198691E-19
4.327418E+03	5.283988E-18	9.303014E-19
4.337321E+03	5.343689E-18	9.407924E-19
4.347223E+03	5.403797E-18	9.513542E-19
4.357126E+03	5.464256E-18	9.619772E-19
4.367028E+03	5.525096E-18	9.726669E-19
4.376931E+03	5.586309E-18	9.834215E-19
4.386834E+03	5.647977E-18	9.942556E-19
4.396736E+03	5.710050E-18	1.005160E-18
4.406639E+03	5.772523E-18	1.016135E-18
4.416541E+03	5.835441E-18	1.027187E-18
4.426444E+03	5.898804E-18	1.038317E-18
4.436346E+03	5.962614E-18	1.049526E-18
4.446249E+03	6.026825E-18	1.060804E-18
4.456151E+03	6.091490E-18	1.072161E-18
4.466054E+03	6.156567E-18	1.083590E-18
4.475957E+03	6.222062E-18	1.095092E-18
4.485859E+03	6.287986E-18	1.106669E-18
4.495762E+03	6.354242E-18	1.118303E-18
4.505664E+03	6.420898E-18	1.130007E-18
4.515567E+03	6.487912E-18	1.141774E-18
4.525469E+03	6.555302E-18	1.153606E-18
4.535372E+03	6.622972E-18	1.165486E-18
4.545274E+03	6.691000E-18	1.177429E-18
4.555177E+03	6.759290E-18	1.189417E-18
4.565080E+03	6.827927E-18	1.201465E-18
4.574982E+03	6.896818E-18	1.213557E-18
4.584885E+03	6.965993E-18	1.225699E-18
4.594787E+03	7.035418E-18	1.237883E-18
4.604690E+03	7.105195E-18	1.250129E-18
4.614592E+03	7.175236E-18	1.262420E-18
4.624495E+03	7.245642E-18	1.274775E-18
4.634398E+03	7.316399E-18	1.287190E-18
4.644300E+03	7.387492E-18	1.299664E-18
4.654203E+03	7.459034E-18	1.312216E-18
4.664105E+03	7.530952E-18	1.324833E-18
4.674008E+03	7.603302E-18	1.337526E-18
4.683910E+03	7.676015E-18	1.350281E-18
4.693813E+03	7.749138E-18	1.363107E-18
4.703715E+03	7.822524E-18	1.375979E-18
4.713618E+03	7.896248E-18	1.388910E-18
4.723521E+03	7.970225E-18	1.401883E-18
4.733423E+03	8.044519E-18	1.414912E-18
4.743326E+03	8.119050E-18	1.427981E-18
4.753228E+03	8.193818E-18	1.441091E-18
4.763131E+03	8.268808E-18	1.454239E-18
4.773033E+03	8.344010E-18	1.467424E-18
4.782936E+03	8.419432E-18	1.480646E-18
4.792838E+03	8.494966E-18	1.493886E-18
4.802741E+03	8.570702E-18	1.507162E-18
4.812644E+03	8.646619E-18	1.520467E-18
4.822546E+03	8.722631E-18	1.533789E-18
4.832449E+03	8.798720E-18	1.547123E-18
4.842351E+03	8.874965E-18	1.560483E-18
4.852254E+03	8.951166E-18	1.573834E-18
4.862156E+03	9.027483E-18	1.587205E-18
4.872059E+03	9.103802E-18	1.600575E-18
4.881961E+03	9.180028E-18	1.613927E-18
4.891864E+03	9.256204E-18	1.627270E-18
4.901767E+03	9.332312E-18	1.640599E-18
4.911669E+03	9.408223E-18	1.653892E-18
4.921572E+03	9.483999E-18	1.667161E-18
4.931474E+03	9.559409E-18	1.680364E-18
4.941377E+03	9.634587E-18	1.693525E-18
4.951279E+03	9.709410E-18	1.706623E-18
4.961182E+03	9.783717E-18	1.719628E-18
4.971085E+03	9.857557E-18	1.732550E-18
4.980987E+03	9.930760E-18	1.745359E-18
4.990890E+03	1.000327E-17	1.758045E-18
5.000792E+03	1.007501E-17	1.770595E-18
5.010695E+03	1.014592E-17	1.782997E-18
5.020597E+03	1.021581E-17	1.795219E-18
5.030500E+03	1.028471E-17	1.807265E-18
5.040402E+03	1.035242E-17	1.819101E-18
5.050305E+03	1.041886E-17	1.830713E-18
5.060208E+03	1.048384E-17	1.842067E-18
5.070110E+03	1.054734E-17	1.853161E-18
5.080013E+03	1.060909E-17	1.863944E-18
5.089915E+03	1.066917E-17	1.874433E-18
5.099818E+03	1.072727E-17	1.884573E-18
5.109720E+03	1.078339E-17	1.894365E-18
5.119623E+03	1.083731E-17	1.903769E-18
5.129525E+03	1.088882E-17	1.912748E-18
5.139428E+03	1.093791E-17	1.921301E-18
5.149331E+03	1.098436E-17	1.929390E-18
5.159233E+03	1.102806E-17	1.936993E-18
5.169136E+03	1.106890E-17	1.944094E-18
5.179038E+03	1.110666E-17	1.950653E-18
5.188941E+03	1.114124E-17	1.956653E-18
5.198843E+03	1.117242E-17	1.962054E-18
5.208746E+03	1.120022E-17	1.966861E-18
5.218648E+03	1.122445E-17	1.971038E-18
5.228551E+03	1.124500E-17	1.974570E-18
5.238454E+03	1.126181E-17	1.977446E-18
5.248356E+03	1.127471E-17	1.979632E-18
5.258259E+03	1.128363E-17	1.981119E-18
5.268161E+03	1.128854E-17	1.981902E-18
5.278064E+03	1.128940E-17	1.981974E-18
5.287966E+03	1.128610E-17	1.981315E-18
5.297869E+03	1.127874E-17	1.979941E-18
5.307772E+03	1.126734E-17	1.977859E-18
5.317674E+03	1.125193E-17	1.975072E-18
5.327577E+03	1.123246E-17	1.971572E-18
5.337479E+03	1.120921E-17	1.967408E-18
5.347382E+03	1.118216E-17	1.962577E-18
5.357284E+03	1.115163E-17	1.957137E-18
5.367187E+03	1.111765E-17	1.951089E-18
5.377089E+03	1.108045E-17	1.944476E-18
5.386992E+03	1.104019E-17	1.937328E-18
5.396895E+03	1.099727E-17	1.929713E-18
5.406797E+03	1.095176E-17	1.921642E-18
5.416700E+03	1.090375E-17	1.913133E-18
5.426602E+03	1.085323E-17	1.904184E-18
5.436505E+03	1.080044E-17	1.894836E-18
5.446407E+03	1.074539E-17	1.885094E-18
5.456310E+03	1.068822E-17	1.874979E-18
5.466212E+03	1.062909E-17	1.864520E-18
5.476115E+03	1.056814E-17	1.853744E-18
5.486018E+03	1.050555E-17	1.842680E-18
5.495920E+03	1.044159E-17	1.831375E-18
5.505823E+03	1.037642E-17	1.819858E-18
5.515725E+03	1.031041E-17	1.808197E-18
5.525628E+03	1.024363E-17	1.796399E-18
5.535530E+03	1.017653E-17	1.784546E-18
5.545433E+03	1.010918E-17	1.772650E-18
5.555335E+03	1.004191E-17	1.760769E-18
5.565238E+03	9.975061E-18	1.748962E-18
5.575141E+03	9.908661E-18	1.737235E-18
5.585043E+03	9.843225E-18	1.725676E-18
5.594946E+03	9.778852E-18	1.714305E-18
5.604848E+03	9.715635E-18	1.703138E-18
5.614751E+03	9.654033E-18	1.692253E-18
5.624653E+03	9.594025E-18	1.681649E-18
5.634556E+03	9.535856E-18	1.671368E-18
5.644459E+03	9.479752E-18	1.661449E-18
5.654361E+03	9.425854E-18	1.651917E-18
5.664264E+03	9.374261E-18	1.642789E-18
5.674166E+03	9.325083E-18	1.634085E-18
5.684069E+03	9.278504E-18	1.625837E-18
5.693971E+03	9.234709E-18	1.618077E-18
5.703874E+03	9.193566E-18	1.610782E-18
5.713776E+03	9.155434E-18	1.604015E-18
5.723679E+03	9.120182E-18	1.597752E-18
5.733582E+03	9.088039E-18	1.592034E-18
5.743484E+03	9.058958E-18	1.586853E-18
5.753387E+03	9.033071E-18	1.582231E-18
5.763289E+03	9.010399E-18	1.578172E-18
5.773192E+03	8.991073E-18	1.574699E-18
5.783094E+03	8.975017E-18	1.571799E-18
5.792997E+03	8.962234E-18	1.569472E-18
5.802899E+03	8.952843E-18	1.567738E-18
5.812802E+03	8.946938E-18	1.566614E-18
5.822705E+03	8.944336E-18	1.566068E-18
5.832607E+03	8.945222E-18	1.566133E-18
5.842510E+03	8.949489E-18	1.566789E-18
5.852412E+03	8.957230E-18	1.568052E-18
5.862315E+03	8.968429E-18	1.569920E-18
5.872217E+03	8.982969E-18	1.572372E-18
5.882120E+03	9.000921E-18	1.575420E-18
5.892022E+03	9.022261E-18	1.579061E-18
5.901925E+03	9.046849E-18	1.583269E-18
5.911828E+03	9.074856E-18	1.588074E-18
5.921730E+03	9.106028E-18	1.593431E-18
5.931633E+03	9.140422E-18	1.599352E-18
5.941535E+03	9.177982E-18	1.605825E-18
5.951438E+03	9.218553E-18	1.612823E-18
5.961340E+03	9.262161E-18	1.620351E-18
5.971243E+03	9.308536E-18	1.628362E-18
5.981146E+03	9.357804E-18	1.636877E-18
5.991048E+03	9.409680E-18	1.645846E-18
6.000951E+03	9.464181E-18	1.655273E-18
6.010853E+03	9.521098E-18	1.665121E-18
6.020756E+03	9.580343E-18	1.675374E-18
6.030658E+03	9.641699E-18	1.685994E-18
6.040561E+03	9.704946E-18	1.696943E-18
6.050463E+03	9.770081E-18	1.708220E-18
6.060366E+03	9.836641E-18	1.719744E-18
6.070269E+03	9.904619E-18	1.731513E-18
6.080171E+03	9.973653E-18	1.743465E-18
6.090074E+03	1.004361E-17	1.755576E-18
6.099976E+03	1.011386E-17	1.767736E-18
6.109879E+03	1.018438E-17	1.779941E-18
6.119781E+03	1.025464E-17	1.792099E-18
6.129684E+03	1.032437E-17	1.804161E-18
6.139586E+03	1.039314E-17	1.816052E-18
6.149489E+03	1.046103E-17	1.827789E-18
6.159392E+03	1.052831E-17	1.839416E-18
6.169294E+03	1.059523E-17	1.850979E-18
6.179197E+03	1.066209E-17	1.862528E-18
6.189099E+03	1.072879E-17	1.874047E-18
6.199002E+03	1.079594E-17	1.885642E-18
6.208904E+03	1.086333E-17	1.897276E-18
6.218807E+03	1.093132E-17	1.909013E-18
6.228709E+03	1.100017E-17	1.920898E-18
6.238612E+03	1.106970E-17	1.932900E-18
6.248515E+03	1.114020E-17	1.945068E-18
6.258417E+03	1.121178E-17	1.957423E-18
6.268320E+03	1.128463E-17	1.969997E-18
6.278222E+03	1.135859E-17	1.982761E-18
6.288125E+03	1.143383E-17	1.995746E-18
6.298027E+03	1.151037E-17	2.008956E-18
6.307930E+03	1.158824E-17	2.022394E-18
6.317833E+03	1.166729E-17	2.036037E-18
6.327735E+03	1.174739E-17	2.049860E-18
6.337638E+03	1.182840E-17	2.063838E-18
6.347540E+03	1.191032E-17	2.077972E-18
6.357443E+03	1.199300E-17	2.092237E-18
6.367345E+03	1.207592E-17	2.106540E-18
6.377248E+03	1.215962E-17	2.120976E-18
6.387150E+03	1.224411E-17	2.135548E-18
6.397053E+03	1.232959E-17	2.150287E-18
6.406956E+03	1.241644E-17	2.165264E-18
6.416858E+03	1.250454E-17	2.180454E-18
6.426761E+03	1.259428E-17	2.195928E-18
6.436663E+03	1.268571E-17	2.211693E-18
6.446566E+03	1.277907E-17	2.227793E-18
6.456468E+03	1.287404E-17	2.244168E-18
6.466371E+03	1.297125E-17	2.260931E-18
6.476273E+03	1.307036E-17	2.278021E-18
6.486176E+03	1.317163E-17	2.295484E-18
6.496079E+03	1.327511E-17	2.313329E-18
6.505981E+03	1.338066E-17	2.331530E-18
6.515884E+03	1.348853E-17	2.350133E-18
6.525786E+03	1.359880E-17	2.369148E-18
6.535689E+03	1.371129E-17	2.388547E-18
6.545591E+03	1.382606E-17	2.408338E-18
6.555494E+03	1.394316E-17	2.428532E-18
6.565396E+03	1.406286E-17	2.449176E-18
6.575299E+03	1.418477E-17	2.470198E-18
6.585202E+03	1.430915E-17	2.491646E-18
6.595104E+03	1.443606E-17	2.513532E-18
6.605007E+03	1.456531E-17	2.535819E-18
6.614909E+03	1.469718E-17	2.558557E-18
6.624812E+03	1.483147E-17	2.581713E-18
6.634714E+03	1.496848E-17	2.605337E-18
6.644617E+03	1.510773E-17	2.629345E-18
6.654520E+03	1.524952E-17	2.653790E-18
6.664422E+03	1.539415E-17	2.678725E-18
6.674325E+03	1.554113E-17	2.704063E-18
6.684227E+03	1.569076E-17	2.729858E-18
6.694130E+03	1.584279E-17	2.756065E-18
6.704032E+03	1.599754E-17	2.782738E-18
6.713935E+03	1.615475E-17	2.809834E-18
6.723837E+03	1.631444E-17	2.837357E-18
6.733740E+03	1.647694E-17	2.865361E-18
6.743643E+03	1.664167E-17	2.893748E-18
6.753545E+03	1.680926E-17	2.922625E-18
6.763448E+03	1.697911E-17	2.951890E-18
6.773350E+03	1.715186E-17	2.981652E-18
6.783253E+03	1.732689E-17	3.011805E-18
6.793155E+03	1.750422E-17	3.042350E-18
6.803058E+03	1.768416E-17	3.073342E-18
6.812960E+03	1.786673E-17	3.104786E-18
6.822863E+03	1.805127E-17	3.136565E-18
6.832766E+03	1.823844E-17	3.168794E-18
6.842668E+03	1.842789E-17	3.201413E-18
6.852571E+03	1.861998E-17	3.234483E-18
6.862473E+03	1.881399E-17	3.267879E-18
6.872376E+03	1.901027E-17	3.301663E-18
6.882278E+03	1.920879E-17	3.335829E-18
6.892181E+03	1.940918E-17	3.370310E-18
6.902083E+03	1.961177E-17	3.405169E-18
6.911986E+03	1.981656E-17	3.440400E-18
6.921889E+03	2.002314E-17	3.475935E-18
6.931791E+03	2.023147E-17	3.511767E-18
6.941694E+03	2.044153E-17	3.547890E-18
6.951596E+03	2.065368E-17	3.584370E-18
6.961499E+03	2.086710E-17	3.621060E-18
6.971401E+03	2.108255E-17	3.658097E-18
6.981304E+03	2.129918E-17	3.695329E-18
6.991207E+03	2.151738E-17	3.732826E-18
7.001109E+03	2.173668E-17	3.770505E-18
7.011012E+03	2.195746E-17	3.808433E-18
7.020914E+03	2.217969E-17	3.846605E-18
7.030817E+03	2.240291E-17	3.884939E-18
7.040719E+03	2.262660E-17	3.923347E-18
7.050622E+03	2.285163E-17	3.961979E-18
7.060524E+03	2.307751E-17	4.000751E-18
7.070427E+03	2.330419E-17	4.039653E-18
7.080330E+03	2.353163E-17	4.078678E-18
7.090232E+03	2.375930E-17	4.117734E-18
7.100135E+03	2.398764E-17	4.156898E-18
7.110037E+03	2.421611E-17	4.196077E-18
7.119940E+03	2.444465E-17	4.235258E-18
7.129842E+03	2.467371E-17	4.274521E-18
7.139745E+03	2.490274E-17	4.313770E-18
7.149647E+03	2.513219E-17	4.353086E-18
7.159550E+03	2.536098E-17	4.392277E-18
7.169453E+03	2.558956E-17	4.431424E-18
7.179355E+03	2.581788E-17	4.470516E-18
7.189258E+03	2.604586E-17	4.509542E-18
7.199160E+03	2.627346E-17	4.548495E-18
7.209063E+03	2.650063E-17	4.587363E-18
7.218965E+03	2.672672E-17	4.626037E-18
7.228868E+03	2.695224E-17	4.664606E-18
7.238770E+03	2.717714E-17	4.703056E-18
7.248673E+03	2.740136E-17	4.741382E-18
7.258576E+03	2.762425E-17	4.779471E-18
7.268478E+03	2.784635E-17	4.817413E-18
7.278381E+03	2.806822E-17	4.855308E-18
7.288283E+03	2.828860E-17	4.892938E-18
7.298186E+03	2.850805E-17	4.930398E-18
7.308088E+03	2.872653E-17	4.967685E-18
7.317991E+03	2.894466E-17	5.004901E-18
7.327894E+03	2.916178E-17	5.041936E-18
7.337796E+03	2.937851E-17	5.078896E-18
7.347699E+03	2.959553E-17	5.115898E-18
7.357601E+03	2.981218E-17	5.152830E-18
7.367504E+03	3.002984E-17	5.189928E-18
7.377406E+03	3.024720E-17	5.226966E-18
7.387309E+03	3.046495E-17	5.264065E-18
7.397211E+03	3.068244E-17	5.301112E-18
7.407114E+03	3.090041E-17	5.338233E-18
7.417017E+03	3.111744E-17	5.375186E-18
7.426919E+03	3.133427E-17	5.412097E-18
7.436822E+03	3.155093E-17	5.448970E-18
7.446724E+03	3.176668E-17	5.485679E-18
7.456627E+03	3.198300E-17	5.522481E-18
7.466529E+03	3.219840E-17	5.559117E-18
7.476432E+03	3.241364E-17	5.595717E-18
7.486334E+03	3.262793E-17	5.632148E-18
7.496237E+03	3.284200E-17	5.668533E-18
7.506140E+03	3.305506E-17	5.704737E-18
7.516042E+03	3.326783E-17	5.740886E-18
7.525945E+03	3.347949E-17	5.776835E-18
7.535847E+03	3.368995E-17	5.812573E-18
7.545750E+03	3.389995E-17	5.848223E-18
7.555652E+03	3.410858E-17	5.883632E-18
7.565555E+03	3.431576E-17	5.918784E-18
7.575457E+03	3.452219E-17	5.953800E-18
7.585360E+03	3.472692E-17	5.988518E-18
7.595263E+03	3.493066E-17	6.023058E-18
7.605165E+03	3.513155E-17	6.057102E-18
7.615068E+03	3.533112E-17	6.090913E-18
7.624970E+03	3.552924E-17	6.124469E-18
7.634873E+03	3.572483E-17	6.157583E-18
7.644775E+03	3.591859E-17	6.190376E-18
7.654678E+03	3.610941E-17	6.222658E-18
7.664581E+03	3.629708E-17	6.254391E-18
7.674483E+03	3.648225E-17	6.285689E-18
7.684386E+03	3.666472E-17	6.316517E-18
