#wls	flux	fluxerr
1.584409E+03	8.906159E-17	1.458002E-17
1.624020E+03	9.291121E-17	1.520999E-17
1.663630E+03	9.649147E-17	1.579583E-17
1.703240E+03	9.973843E-17	1.632708E-17
1.742850E+03	1.025939E-16	1.679422E-17
1.782461E+03	1.049519E-16	1.717990E-17
1.822071E+03	1.066876E-16	1.746370E-17
1.861681E+03	1.076593E-16	1.762242E-17
1.901291E+03	1.077119E-16	1.763068E-17
1.940902E+03	1.067271E-16	1.746913E-17
1.980512E+03	1.046756E-16	1.713299E-17
2.020122E+03	1.017139E-16	1.664787E-17
2.059732E+03	9.826941E-17	1.608375E-17
2.099342E+03	9.504511E-17	1.555568E-17
2.138953E+03	9.277571E-17	1.518391E-17
2.178563E+03	9.188169E-17	1.503724E-17
2.218173E+03	9.222102E-17	1.509240E-17
2.257783E+03	9.321879E-17	1.525532E-17
2.297394E+03	9.423241E-17	1.542080E-17
2.337004E+03	9.476233E-17	1.550711E-17
2.376614E+03	9.451112E-17	1.546559E-17
2.416224E+03	9.335982E-17	1.527677E-17
2.455835E+03	9.131081E-17	1.494106E-17
2.495445E+03	8.844117E-17	1.447109E-17
2.535055E+03	8.485283E-17	1.388354E-17
2.574665E+03	8.066845E-17	1.319849E-17
2.614276E+03	7.600539E-17	1.243515E-17
2.653886E+03	7.097414E-17	1.161162E-17
2.693496E+03	6.568854E-17	1.074652E-17
2.733106E+03	6.025053E-17	9.856540E-18
2.772716E+03	5.475685E-17	8.957502E-18
2.812327E+03	4.929675E-17	8.064013E-18
2.851937E+03	4.395462E-17	7.189878E-18
2.891547E+03	3.881364E-17	6.348703E-18
2.931157E+03	3.395266E-17	5.553384E-18
2.970768E+03	2.943291E-17	4.813930E-18
2.980670E+03	2.836137E-17	4.638627E-18
2.990573E+03	2.731536E-17	4.467501E-18
3.000475E+03	2.629374E-17	4.300369E-18
3.010378E+03	2.529739E-17	4.137372E-18
3.020280E+03	2.432754E-17	3.978712E-18
3.030183E+03	2.338315E-17	3.824220E-18
3.040086E+03	2.246560E-17	3.674120E-18
3.049988E+03	2.157571E-17	3.528546E-18
3.059891E+03	2.071411E-17	3.387602E-18
3.069793E+03	1.988025E-17	3.251197E-18
3.079696E+03	1.907441E-17	3.119377E-18
3.089598E+03	1.829564E-17	2.991987E-18
3.099501E+03	1.754384E-17	2.869011E-18
3.109403E+03	1.681852E-17	2.750366E-18
3.119306E+03	1.611920E-17	2.635975E-18
3.129209E+03	1.544572E-17	2.525814E-18
3.139111E+03	1.479786E-17	2.419842E-18
3.149014E+03	1.417452E-17	2.317885E-18
3.158916E+03	1.357600E-17	2.219986E-18
3.168819E+03	1.300144E-17	2.126008E-18
3.178721E+03	1.245051E-17	2.035896E-18
3.188624E+03	1.192256E-17	1.949544E-18
3.198526E+03	1.141680E-17	1.866821E-18
3.208429E+03	1.093317E-17	1.787720E-18
3.218332E+03	1.047045E-17	1.712038E-18
3.228234E+03	1.002851E-17	1.639757E-18
3.238137E+03	9.606659E-18	1.570762E-18
3.248039E+03	9.203904E-18	1.504890E-18
3.257942E+03	8.820003E-18	1.442103E-18
3.267844E+03	8.453995E-18	1.382243E-18
3.277747E+03	8.105336E-18	1.325220E-18
3.287650E+03	7.773349E-18	1.270925E-18
3.297552E+03	7.457481E-18	1.219266E-18
3.307455E+03	7.156965E-18	1.170118E-18
3.317357E+03	6.871162E-18	1.123377E-18
3.327260E+03	6.599452E-18	1.078941E-18
3.337162E+03	6.341315E-18	1.036726E-18
3.347065E+03	6.096068E-18	9.966180E-19
3.356967E+03	5.863140E-18	9.585253E-19
3.366870E+03	5.641978E-18	9.223571E-19
3.376773E+03	5.431980E-18	8.880148E-19
3.386675E+03	5.232641E-18	8.554158E-19
3.396578E+03	5.043475E-18	8.244808E-19
3.406480E+03	4.863955E-18	7.951233E-19
3.416383E+03	4.693641E-18	7.672713E-19
3.426285E+03	4.532053E-18	7.408465E-19
3.436188E+03	4.378742E-18	7.157754E-19
3.446090E+03	4.233284E-18	6.919886E-19
3.455993E+03	4.095232E-18	6.694128E-19
3.465896E+03	3.964258E-18	6.479947E-19
3.475798E+03	3.839963E-18	6.276689E-19
3.485701E+03	3.721937E-18	6.083683E-19
3.495603E+03	3.609763E-18	5.900245E-19
3.505506E+03	3.503167E-18	5.725931E-19
3.515408E+03	3.401785E-18	5.560144E-19
3.525311E+03	3.305218E-18	5.402230E-19
3.535213E+03	3.213197E-18	5.251749E-19
3.545116E+03	3.125442E-18	5.108246E-19
3.555019E+03	3.041663E-18	4.971244E-19
3.564921E+03	2.961564E-18	4.840261E-19
3.574824E+03	2.884985E-18	4.715034E-19
3.584726E+03	2.811717E-18	4.595222E-19
3.594629E+03	2.741564E-18	4.480503E-19
3.604531E+03	2.674464E-18	4.370776E-19
3.614434E+03	2.610277E-18	4.265813E-19
3.624337E+03	2.548890E-18	4.165428E-19
3.634239E+03	2.490214E-18	4.069477E-19
3.644142E+03	2.434159E-18	3.977811E-19
3.654044E+03	2.380612E-18	3.890247E-19
3.663947E+03	2.329526E-18	3.806706E-19
3.673849E+03	2.280769E-18	3.726973E-19
3.683752E+03	2.234273E-18	3.650937E-19
3.693654E+03	2.189987E-18	3.578513E-19
3.703557E+03	2.147767E-18	3.509469E-19
3.713460E+03	2.107602E-18	3.443783E-19
3.723362E+03	2.069354E-18	3.381232E-19
3.733265E+03	2.032995E-18	3.321769E-19
3.743167E+03	1.998444E-18	3.265262E-19
3.753070E+03	1.965624E-18	3.211584E-19
3.762972E+03	1.934477E-18	3.160641E-19
3.772875E+03	1.904930E-18	3.112314E-19
3.782777E+03	1.876930E-18	3.066514E-19
3.792680E+03	1.850423E-18	3.023157E-19
3.802583E+03	1.825346E-18	2.982137E-19
3.812485E+03	1.801652E-18	2.943375E-19
3.822388E+03	1.779292E-18	2.906797E-19
3.832290E+03	1.758212E-18	2.872309E-19
3.842193E+03	1.738370E-18	2.839844E-19
3.852095E+03	1.719726E-18	2.809337E-19
3.861998E+03	1.702227E-18	2.780703E-19
3.871900E+03	1.685841E-18	2.753885E-19
3.881803E+03	1.670517E-18	2.728805E-19
3.891706E+03	1.656239E-18	2.705432E-19
3.901608E+03	1.642959E-18	2.683692E-19
3.911511E+03	1.630650E-18	2.663537E-19
3.921413E+03	1.619257E-18	2.644879E-19
3.931316E+03	1.608779E-18	2.627715E-19
3.941218E+03	1.599163E-18	2.611961E-19
3.951121E+03	1.590386E-18	2.597577E-19
3.961024E+03	1.582412E-18	2.584503E-19
3.970926E+03	1.575228E-18	2.572722E-19
3.980829E+03	1.568791E-18	2.562159E-19
3.990731E+03	1.563090E-18	2.552800E-19
4.000634E+03	1.558082E-18	2.544573E-19
4.010536E+03	1.553762E-18	2.537467E-19
4.020439E+03	1.550085E-18	2.531414E-19
4.030341E+03	1.547037E-18	2.526386E-19
4.040244E+03	1.544600E-18	2.522356E-19
4.050147E+03	1.542758E-18	2.519300E-19
4.060049E+03	1.541475E-18	2.517154E-19
4.069952E+03	1.540737E-18	2.515898E-19
4.079854E+03	1.540519E-18	2.515491E-19
4.089757E+03	1.540809E-18	2.515913E-19
4.099659E+03	1.541595E-18	2.517145E-19
4.109562E+03	1.542843E-18	2.519131E-19
4.119464E+03	1.544556E-18	2.521876E-19
4.129367E+03	1.546700E-18	2.525324E-19
4.139270E+03	1.549267E-18	2.529463E-19
4.149172E+03	1.552250E-18	2.534278E-19
4.159075E+03	1.555616E-18	2.539721E-19
4.168977E+03	1.559360E-18	2.545779E-19
4.178880E+03	1.563464E-18	2.552424E-19
4.188782E+03	1.567933E-18	2.559665E-19
4.198685E+03	1.572728E-18	2.567437E-19
4.208587E+03	1.577856E-18	2.575751E-19
4.218490E+03	1.583288E-18	2.584563E-19
4.228393E+03	1.589033E-18	2.593884E-19
4.238295E+03	1.595052E-18	2.603651E-19
4.248198E+03	1.601342E-18	2.613859E-19
4.258100E+03	1.607898E-18	2.624502E-19
4.268003E+03	1.614684E-18	2.635519E-19
4.277905E+03	1.621709E-18	2.646924E-19
4.287808E+03	1.628919E-18	2.658631E-19
4.297711E+03	1.636326E-18	2.670658E-19
4.307613E+03	1.643863E-18	2.682898E-19
4.317516E+03	1.651529E-18	2.695346E-19
4.327418E+03	1.659358E-18	2.708059E-19
4.337321E+03	1.667351E-18	2.721040E-19
4.347223E+03	1.675519E-18	2.734304E-19
4.357126E+03	1.683864E-18	2.747857E-19
4.367028E+03	1.692357E-18	2.761651E-19
4.376931E+03	1.701029E-18	2.775734E-19
4.386834E+03	1.709852E-18	2.790063E-19
4.396736E+03	1.718828E-18	2.804643E-19
4.406639E+03	1.727947E-18	2.819453E-19
4.416541E+03	1.737212E-18	2.834500E-19
4.426444E+03	1.746597E-18	2.849741E-19
4.436346E+03	1.756122E-18	2.865210E-19
4.446249E+03	1.765761E-18	2.880865E-19
4.456151E+03	1.775510E-18	2.896696E-19
4.466054E+03	1.785387E-18	2.912736E-19
4.475957E+03	1.795356E-18	2.928925E-19
4.485859E+03	1.805427E-18	2.945279E-19
4.495762E+03	1.815609E-18	2.961812E-19
4.505664E+03	1.825883E-18	2.978494E-19
4.515567E+03	1.836261E-18	2.995345E-19
4.525469E+03	1.846724E-18	3.012333E-19
4.535372E+03	1.857288E-18	3.029483E-19
4.545274E+03	1.867949E-18	3.046791E-19
4.555177E+03	1.878709E-18	3.064259E-19
4.565080E+03	1.889552E-18	3.081861E-19
4.574982E+03	1.900510E-18	3.099650E-19
4.584885E+03	1.911553E-18	3.117574E-19
4.594787E+03	1.922698E-18	3.135664E-19
4.604690E+03	1.933948E-18	3.153924E-19
4.614592E+03	1.945287E-18	3.172328E-19
4.624495E+03	1.956752E-18	3.190935E-19
4.634398E+03	1.968312E-18	3.209696E-19
4.644300E+03	1.979987E-18	3.228642E-19
4.654203E+03	1.991814E-18	3.247835E-19
4.664105E+03	2.003781E-18	3.267254E-19
4.674008E+03	2.015910E-18	3.286935E-19
4.683910E+03	2.028223E-18	3.306915E-19
4.693813E+03	2.040724E-18	3.327201E-19
4.703715E+03	2.053422E-18	3.347805E-19
4.713618E+03	2.066357E-18	3.368794E-19
4.723521E+03	2.079501E-18	3.390120E-19
4.733423E+03	2.092896E-18	3.411856E-19
4.743326E+03	2.106551E-18	3.434012E-19
4.753228E+03	2.120454E-18	3.456572E-19
4.763131E+03	2.134653E-18	3.479611E-19
4.773033E+03	2.149136E-18	3.503112E-19
4.782936E+03	2.163914E-18	3.527091E-19
4.792838E+03	2.178996E-18	3.551564E-19
4.802741E+03	2.194392E-18	3.576546E-19
4.812644E+03	2.210151E-18	3.602119E-19
4.822546E+03	2.226226E-18	3.628202E-19
4.832449E+03	2.242668E-18	3.654882E-19
4.842351E+03	2.259467E-18	3.682142E-19
4.852254E+03	2.276656E-18	3.710034E-19
4.862156E+03	2.294227E-18	3.738547E-19
4.872059E+03	2.312192E-18	3.767698E-19
4.881961E+03	2.330583E-18	3.797542E-19
4.891864E+03	2.349369E-18	3.828026E-19
4.901767E+03	2.368584E-18	3.859207E-19
4.911669E+03	2.388241E-18	3.891105E-19
4.921572E+03	2.408349E-18	3.923735E-19
4.931474E+03	2.428899E-18	3.957082E-19
4.941377E+03	2.449900E-18	3.991161E-19
4.951279E+03	2.471387E-18	4.026028E-19
4.961182E+03	2.493323E-18	4.061622E-19
4.971085E+03	2.515764E-18	4.098037E-19
4.980987E+03	2.538672E-18	4.135209E-19
4.990890E+03	2.562057E-18	4.173154E-19
5.000792E+03	2.585949E-18	4.211922E-19
5.010695E+03	2.610333E-18	4.251488E-19
5.020597E+03	2.635216E-18	4.291863E-19
5.030500E+03	2.660578E-18	4.333014E-19
5.040402E+03	2.686453E-18	4.374995E-19
5.050305E+03	2.712845E-18	4.417816E-19
5.060208E+03	2.739708E-18	4.461399E-19
5.070110E+03	2.767073E-18	4.505796E-19
5.080013E+03	2.794944E-18	4.551011E-19
5.089915E+03	2.823325E-18	4.597054E-19
5.099818E+03	2.852194E-18	4.643886E-19
5.109720E+03	2.881554E-18	4.691514E-19
5.119623E+03	2.911381E-18	4.739896E-19
5.129525E+03	2.941733E-18	4.789130E-19
5.139428E+03	2.972557E-18	4.839126E-19
5.149331E+03	3.003855E-18	4.889889E-19
5.159233E+03	3.035630E-18	4.941423E-19
5.169136E+03	3.067911E-18	4.993777E-19
5.179038E+03	3.100642E-18	5.046858E-19
5.188941E+03	3.133822E-18	5.100663E-19
5.198843E+03	3.167511E-18	5.155291E-19
5.208746E+03	3.201616E-18	5.210592E-19
5.218648E+03	3.236196E-18	5.266661E-19
5.228551E+03	3.271217E-18	5.323440E-19
5.238454E+03	3.306673E-18	5.380922E-19
5.248356E+03	3.342591E-18	5.439150E-19
5.258259E+03	3.378899E-18	5.498006E-19
5.268161E+03	3.415618E-18	5.557525E-19
5.278064E+03	3.452739E-18	5.617692E-19
5.287966E+03	3.490248E-18	5.678484E-19
5.297869E+03	3.528167E-18	5.739935E-19
5.307772E+03	3.566406E-18	5.801901E-19
5.317674E+03	3.604982E-18	5.864409E-19
5.327577E+03	3.643874E-18	5.927424E-19
5.337479E+03	3.683018E-18	5.990843E-19
5.347382E+03	3.722463E-18	6.054743E-19
5.357284E+03	3.762139E-18	6.119013E-19
5.367187E+03	3.801978E-18	6.183540E-19
5.377089E+03	3.841941E-18	6.248262E-19
5.386992E+03	3.882026E-18	6.313176E-19
5.396895E+03	3.922114E-18	6.378087E-19
5.406797E+03	3.962196E-18	6.442981E-19
5.416700E+03	4.002223E-18	6.507777E-19
5.426602E+03	4.042060E-18	6.572258E-19
5.436505E+03	4.081648E-18	6.636327E-19
5.446407E+03	4.120969E-18	6.699953E-19
5.456310E+03	4.159917E-18	6.762965E-19
5.466212E+03	4.198378E-18	6.825179E-19
5.476115E+03	4.236241E-18	6.886413E-19
5.486018E+03	4.273513E-18	6.946678E-19
5.495920E+03	4.309988E-18	7.005641E-19
5.505823E+03	4.345626E-18	7.063236E-19
5.515725E+03	4.380300E-18	7.119256E-19
5.525628E+03	4.413921E-18	7.173558E-19
5.535530E+03	4.446403E-18	7.226002E-19
5.545433E+03	4.477612E-18	7.276371E-19
5.555335E+03	4.507503E-18	7.324591E-19
5.565238E+03	4.535943E-18	7.370448E-19
5.575141E+03	4.562798E-18	7.413721E-19
5.585043E+03	4.588076E-18	7.454426E-19
5.594946E+03	4.611647E-18	7.492353E-19
5.604848E+03	4.633387E-18	7.527299E-19
5.614751E+03	4.653269E-18	7.559220E-19
5.624653E+03	4.671272E-18	7.588084E-19
5.634556E+03	4.687236E-18	7.613632E-19
5.644459E+03	4.701154E-18	7.635851E-19
5.654361E+03	4.713025E-18	7.654741E-19
5.664264E+03	4.722757E-18	7.670154E-19
5.674166E+03	4.730365E-18	7.682113E-19
5.684069E+03	4.735769E-18	7.690491E-19
5.693971E+03	4.739002E-18	7.695339E-19
5.703874E+03	4.740048E-18	7.696634E-19
5.713776E+03	4.738954E-18	7.694452E-19
5.723679E+03	4.735621E-18	7.688633E-19
5.733582E+03	4.730210E-18	7.679438E-19
5.743484E+03	4.722638E-18	7.666733E-19
5.753387E+03	4.712978E-18	7.650640E-19
5.763289E+03	4.701264E-18	7.631212E-19
5.773192E+03	4.687534E-18	7.608511E-19
5.783094E+03	4.671887E-18	7.582698E-19
5.792997E+03	4.654375E-18	7.553860E-19
5.802899E+03	4.635057E-18	7.522093E-19
5.812802E+03	4.613950E-18	7.487422E-19
5.822705E+03	4.591226E-18	7.450131E-19
5.832607E+03	4.566914E-18	7.410264E-19
5.842510E+03	4.541144E-18	7.368033E-19
5.852412E+03	4.513950E-18	7.323496E-19
5.862315E+03	4.485473E-18	7.276881E-19
5.872217E+03	4.455802E-18	7.228330E-19
5.882120E+03	4.425029E-18	7.177995E-19
5.892022E+03	4.393245E-18	7.126025E-19
5.901925E+03	4.360542E-18	7.072568E-19
5.911828E+03	4.327062E-18	7.017855E-19
5.921730E+03	4.292792E-18	6.961866E-19
5.931633E+03	4.257923E-18	6.904910E-19
5.941535E+03	4.222489E-18	6.847041E-19
5.951438E+03	4.186573E-18	6.788397E-19
5.961340E+03	4.150306E-18	6.729187E-19
5.971243E+03	4.113665E-18	6.669377E-19
5.981146E+03	4.076824E-18	6.609248E-19
5.991048E+03	4.039756E-18	6.548756E-19
6.000951E+03	4.002578E-18	6.488092E-19
6.010853E+03	3.965355E-18	6.427359E-19
6.020756E+03	3.928099E-18	6.366578E-19
6.030658E+03	3.890870E-18	6.305847E-19
6.040561E+03	3.853722E-18	6.245254E-19
6.050463E+03	3.816707E-18	6.184881E-19
6.060366E+03	3.779874E-18	6.124809E-19
6.070269E+03	3.743268E-18	6.065109E-19
6.080171E+03	3.706932E-18	6.005854E-19
6.090074E+03	3.670904E-18	5.947103E-19
6.099976E+03	3.635266E-18	5.888990E-19
6.109879E+03	3.600099E-18	5.831646E-19
6.119781E+03	3.565478E-18	5.775191E-19
6.129684E+03	3.531428E-18	5.719666E-19
6.139586E+03	3.497974E-18	5.665113E-19
6.149489E+03	3.465093E-18	5.611491E-19
6.159392E+03	3.432803E-18	5.558833E-19
6.169294E+03	3.401122E-18	5.507167E-19
6.179197E+03	3.370022E-18	5.456446E-19
6.189099E+03	3.339559E-18	5.406762E-19
6.199002E+03	3.309838E-18	5.358284E-19
6.208904E+03	3.280822E-18	5.310951E-19
6.218807E+03	3.252562E-18	5.264848E-19
6.228709E+03	3.225156E-18	5.220132E-19
6.238612E+03	3.198563E-18	5.176735E-19
6.248515E+03	3.172921E-18	5.134881E-19
6.258417E+03	3.148274E-18	5.094642E-19
6.268320E+03	3.124580E-18	5.055949E-19
6.278222E+03	3.101972E-18	5.019017E-19
6.288125E+03	3.080492E-18	4.983914E-19
6.298027E+03	3.060140E-18	4.950641E-19
6.307930E+03	3.040960E-18	4.919265E-19
6.317833E+03	3.023083E-18	4.889998E-19
6.327735E+03	3.006462E-18	4.862767E-19
6.337638E+03	2.991140E-18	4.837639E-19
6.347540E+03	2.977206E-18	4.814758E-19
6.357443E+03	2.964526E-18	4.793907E-19
6.367345E+03	2.953013E-18	4.774943E-19
6.377248E+03	2.942622E-18	4.757795E-19
6.387150E+03	2.933308E-18	4.742390E-19
6.397053E+03	2.924983E-18	4.728585E-19
6.406956E+03	2.917647E-18	4.716378E-19
6.416858E+03	2.911256E-18	4.705699E-19
6.426761E+03	2.905808E-18	4.696544E-19
6.436663E+03	2.901260E-18	4.688844E-19
6.446566E+03	2.897612E-18	4.682598E-19
6.456468E+03	2.894863E-18	4.677804E-19
6.466371E+03	2.892968E-18	4.674390E-19
6.476273E+03	2.891973E-18	4.672428E-19
6.486176E+03	2.891878E-18	4.671920E-19
6.496079E+03	2.892638E-18	4.672792E-19
6.505981E+03	2.894301E-18	4.675119E-19
6.515884E+03	2.896821E-18	4.678829E-19
6.525786E+03	2.900197E-18	4.683921E-19
6.535689E+03	2.904478E-18	4.690472E-19
6.545591E+03	2.909573E-18	4.698334E-19
6.555494E+03	2.915623E-18	4.707736E-19
6.565396E+03	2.922489E-18	4.718452E-19
6.575299E+03	2.930268E-18	4.730639E-19
6.585202E+03	2.938914E-18	4.744222E-19
6.595104E+03	2.948430E-18	4.759205E-19
6.605007E+03	2.958866E-18	4.775672E-19
6.614909E+03	2.970178E-18	4.793546E-19
6.624812E+03	2.982368E-18	4.812833E-19
6.634714E+03	2.995439E-18	4.833538E-19
6.644617E+03	3.009446E-18	4.855748E-19
6.654520E+03	3.024290E-18	4.879302E-19
6.664422E+03	3.040077E-18	4.904373E-19
6.674325E+03	3.056762E-18	4.930887E-19
6.684227E+03	3.074347E-18	4.958848E-19
6.694130E+03	3.092837E-18	4.988262E-19
6.704032E+03	3.112237E-18	5.019137E-19
6.713935E+03	3.132607E-18	5.051569E-19
6.723837E+03	3.153841E-18	5.085389E-19
6.733740E+03	3.176001E-18	5.120693E-19
6.743643E+03	3.199090E-18	5.157488E-19
6.753545E+03	3.223113E-18	5.195782E-19
6.763448E+03	3.248077E-18	5.235584E-19
6.773350E+03	3.273988E-18	5.276903E-19
6.783253E+03	3.300849E-18	5.319746E-19
6.793155E+03	3.328607E-18	5.364026E-19
6.803058E+03	3.357326E-18	5.409845E-19
6.812960E+03	3.387012E-18	5.457212E-19
6.822863E+03	3.417606E-18	5.506034E-19
6.832766E+03	3.449178E-18	5.556420E-19
6.842668E+03	3.481731E-18	5.608377E-19
6.852571E+03	3.515207E-18	5.661809E-19
6.862473E+03	3.549607E-18	5.716719E-19
6.872376E+03	3.585003E-18	5.773221E-19
6.882278E+03	3.621330E-18	5.831213E-19
6.892181E+03	3.658593E-18	5.890698E-19
6.902083E+03	3.696863E-18	5.951794E-19
6.911986E+03	3.736076E-18	6.014395E-19
6.921889E+03	3.776233E-18	6.078503E-19
6.931791E+03	3.817264E-18	6.144004E-19
6.941694E+03	3.859317E-18	6.211137E-19
6.951596E+03	3.902323E-18	6.279790E-19
6.961499E+03	3.946282E-18	6.349964E-19
6.971401E+03	3.991120E-18	6.421537E-19
6.981304E+03	4.036916E-18	6.494636E-19
6.991207E+03	4.083589E-18	6.569132E-19
7.001109E+03	4.131303E-18	6.645288E-19
7.011012E+03	4.179814E-18	6.722710E-19
7.020914E+03	4.229283E-18	6.801657E-19
7.030817E+03	4.279630E-18	6.882000E-19
7.040719E+03	4.330937E-18	6.963870E-19
7.050622E+03	4.383028E-18	7.046986E-19
7.060524E+03	4.436079E-18	7.131626E-19
7.070427E+03	4.489904E-18	7.217494E-19
7.080330E+03	4.544592E-18	7.304732E-19
7.090232E+03	4.600138E-18	7.393330E-19
7.100135E+03	4.656537E-18	7.483283E-19
7.110037E+03	4.713688E-18	7.574426E-19
7.119940E+03	4.771581E-18	7.666742E-19
7.129842E+03	4.830309E-18	7.760380E-19
7.139745E+03	4.889763E-18	7.855165E-19
7.149647E+03	4.950034E-18	7.951246E-19
7.159550E+03	5.010906E-18	8.048270E-19
7.169453E+03	5.072577E-18	8.146559E-19
7.179355E+03	5.134930E-18	8.245922E-19
7.189258E+03	5.197952E-18	8.346339E-19
7.199160E+03	5.261627E-18	8.447785E-19
7.209063E+03	5.325942E-18	8.550238E-19
7.218965E+03	5.390881E-18	8.653670E-19
7.228868E+03	5.456546E-18	8.758248E-19
7.238770E+03	5.522682E-18	8.863560E-19
7.248673E+03	5.589638E-18	8.970167E-19
7.258576E+03	5.657281E-18	9.077854E-19
7.268478E+03	5.725465E-18	9.186388E-19
7.278381E+03	5.794565E-18	9.296369E-19
7.288283E+03	5.864311E-18	9.407363E-19
7.298186E+03	5.935092E-18	9.519995E-19
7.308088E+03	6.006774E-18	9.634051E-19
7.317991E+03	6.079493E-18	9.749745E-19
7.327894E+03	6.153392E-18	9.867308E-19
7.337796E+03	6.228484E-18	9.986761E-19
7.347699E+03	6.305071E-18	1.010859E-18
7.357601E+03	6.383327E-18	1.023306E-18
7.367504E+03	6.463134E-18	1.036000E-18
7.377406E+03	6.544514E-18	1.048943E-18
7.387309E+03	6.627497E-18	1.062141E-18
7.397211E+03	6.711945E-18	1.075570E-18
7.407114E+03	6.797716E-18	1.089209E-18
7.417017E+03	6.884654E-18	1.103033E-18
7.426919E+03	6.972763E-18	1.117041E-18
7.436822E+03	7.061873E-18	1.131206E-18
7.446724E+03	7.151804E-18	1.145500E-18
7.456627E+03	7.242719E-18	1.159949E-18
7.466529E+03	7.334250E-18	1.174494E-18
7.476432E+03	7.426371E-18	1.189131E-18
7.486334E+03	7.519058E-18	1.203855E-18
7.496237E+03	7.612281E-18	1.218662E-18
7.506140E+03	7.706013E-18	1.233547E-18
7.516042E+03	7.800029E-18	1.248475E-18
7.525945E+03	7.894287E-18	1.263439E-18
7.535847E+03	7.988945E-18	1.278464E-18
7.545750E+03	8.083763E-18	1.293512E-18
7.555652E+03	8.178899E-18	1.308607E-18
7.565555E+03	8.273893E-18	1.323677E-18
7.575457E+03	8.369107E-18	1.338780E-18
7.585360E+03	8.464279E-18	1.353872E-18
7.595263E+03	8.559349E-18	1.368946E-18
7.605165E+03	8.654254E-18	1.383990E-18
7.615068E+03	8.749155E-18	1.399030E-18
7.624970E+03	8.843762E-18	1.414021E-18
7.634873E+03	8.938005E-18	1.428951E-18
7.644775E+03	9.032044E-18	1.443845E-18
7.654678E+03	9.125810E-18	1.458693E-18
7.664581E+03	9.218990E-18	1.473445E-18
7.674483E+03	9.311747E-18	1.488126E-18
7.684386E+03	9.404007E-18	1.502725E-18
