#wls	flux	fluxerr
1.584409E+03	2.712448E-17	1.752569E-17
1.624020E+03	2.576725E-17	1.661787E-17
1.663630E+03	2.436118E-17	1.568007E-17
1.703240E+03	2.291662E-17	1.471939E-17
1.742850E+03	2.144582E-17	1.374409E-17
1.782461E+03	1.995544E-17	1.275885E-17
1.822071E+03	1.844258E-17	1.176221E-17
1.861681E+03	1.691370E-17	1.075871E-17
1.901291E+03	1.537285E-17	9.751366E-18
1.940902E+03	1.383048E-17	8.747222E-18
1.980512E+03	1.230737E-17	7.759783E-18
2.020122E+03	1.084155E-17	6.813240E-18
2.059732E+03	9.485936E-18	5.940790E-18
2.099342E+03	8.297414E-18	5.177604E-18
2.138953E+03	7.314484E-18	4.546832E-18
2.178563E+03	6.530842E-18	4.043404E-18
2.218173E+03	5.899391E-18	3.637039E-18
2.257783E+03	5.357500E-18	3.288303E-18
2.297394E+03	4.853953E-18	2.965355E-18
2.337004E+03	4.360879E-18	2.651091E-18
2.376614E+03	3.870336E-18	2.340791E-18
2.416224E+03	3.385987E-18	2.036816E-18
2.455835E+03	2.916360E-18	1.744396E-18
2.495445E+03	2.469704E-18	1.468473E-18
2.535055E+03	2.052847E-18	1.213023E-18
2.574665E+03	1.670186E-18	9.804785E-19
2.614276E+03	1.324243E-18	7.720846E-19
2.653886E+03	1.015802E-18	5.880140E-19
2.693496E+03	7.444401E-19	4.277018E-19
2.733106E+03	5.088260E-19	2.900401E-19
2.772716E+03	3.069639E-19	1.735366E-19
2.812327E+03	1.364303E-19	7.646451E-20
2.851937E+03	-5.475769E-21	-3.041324E-21
2.891547E+03	-1.216284E-19	-6.691684E-20
2.931157E+03	-2.149781E-19	-1.171073E-19
2.970768E+03	-2.884619E-19	-1.555124E-19
2.980670E+03	-3.040754E-19	-1.634921E-19
2.990573E+03	-3.186669E-19	-1.708748E-19
3.000475E+03	-3.322782E-19	-1.776866E-19
3.010378E+03	-3.449657E-19	-1.839615E-19
3.020280E+03	-3.567633E-19	-1.897211E-19
3.030183E+03	-3.677111E-19	-1.949901E-19
3.040086E+03	-3.778613E-19	-1.997994E-19
3.049988E+03	-3.872604E-19	-2.041769E-19
3.059891E+03	-3.959633E-19	-2.081545E-19
3.069793E+03	-4.040198E-19	-2.117610E-19
3.079696E+03	-4.114457E-19	-2.150075E-19
3.089598E+03	-4.182805E-19	-2.179170E-19
3.099501E+03	-4.245460E-19	-2.205036E-19
3.109403E+03	-4.302971E-19	-2.227980E-19
3.119306E+03	-4.355371E-19	-2.248042E-19
3.129209E+03	-4.403022E-19	-2.265430E-19
3.139111E+03	-4.446282E-19	-2.280349E-19
3.149014E+03	-4.485413E-19	-2.292953E-19
3.158916E+03	-4.520503E-19	-2.303306E-19
3.168819E+03	-4.552054E-19	-2.311681E-19
3.178721E+03	-4.580142E-19	-2.318132E-19
3.188624E+03	-4.605081E-19	-2.322834E-19
3.198526E+03	-4.627018E-19	-2.325878E-19
3.208429E+03	-4.646256E-19	-2.327427E-19
3.218332E+03	-4.663006E-19	-2.327602E-19
3.228234E+03	-4.677470E-19	-2.326514E-19
3.238137E+03	-4.689769E-19	-2.324235E-19
3.248039E+03	-4.700171E-19	-2.320908E-19
3.257942E+03	-4.708855E-19	-2.316630E-19
3.267844E+03	-4.715916E-19	-2.311458E-19
3.277747E+03	-4.721598E-19	-2.305518E-19
3.287650E+03	-4.725983E-19	-2.298858E-19
3.297552E+03	-4.729291E-19	-2.291591E-19
3.307455E+03	-4.731592E-19	-2.283756E-19
3.317357E+03	-4.733014E-19	-2.275421E-19
3.327260E+03	-4.733681E-19	-2.266649E-19
3.337162E+03	-4.733710E-19	-2.257500E-19
3.347065E+03	-4.733203E-19	-2.248027E-19
3.356967E+03	-4.732187E-19	-2.238246E-19
3.366870E+03	-4.730819E-19	-2.228232E-19
3.376773E+03	-4.729041E-19	-2.217961E-19
3.386675E+03	-4.727055E-19	-2.207528E-19
3.396578E+03	-4.724787E-19	-2.196903E-19
3.406480E+03	-4.722286E-19	-2.186107E-19
3.416383E+03	-4.719592E-19	-2.175163E-19
3.426285E+03	-4.716670E-19	-2.164053E-19
3.436188E+03	-4.713601E-19	-2.152817E-19
3.446090E+03	-4.710329E-19	-2.141430E-19
3.455993E+03	-4.706788E-19	-2.129863E-19
3.465896E+03	-4.702964E-19	-2.118113E-19
3.475798E+03	-4.698771E-19	-2.106142E-19
3.485701E+03	-4.694228E-19	-2.093962E-19
3.495603E+03	-4.689110E-19	-2.081474E-19
3.505506E+03	-4.683412E-19	-2.068681E-19
3.515408E+03	-4.677001E-19	-2.055527E-19
3.525311E+03	-4.669787E-19	-2.041979E-19
3.535213E+03	-4.661556E-19	-2.027950E-19
3.545116E+03	-4.652140E-19	-2.013372E-19
3.555019E+03	-4.641463E-19	-1.998223E-19
3.564921E+03	-4.629222E-19	-1.982381E-19
3.574824E+03	-4.615311E-19	-1.965813E-19
3.584726E+03	-4.599510E-19	-1.948437E-19
3.594629E+03	-4.581527E-19	-1.930145E-19
3.604531E+03	-4.561117E-19	-1.910849E-19
3.614434E+03	-4.538067E-19	-1.890479E-19
3.624337E+03	-4.512054E-19	-1.868921E-19
3.634239E+03	-4.482892E-19	-1.846121E-19
3.644142E+03	-4.450185E-19	-1.821940E-19
3.654044E+03	-4.413673E-19	-1.796300E-19
3.663947E+03	-4.373043E-19	-1.769104E-19
3.673849E+03	-4.328013E-19	-1.740270E-19
3.683752E+03	-4.278203E-19	-1.709681E-19
3.693654E+03	-4.223322E-19	-1.677259E-19
3.703557E+03	-4.163022E-19	-1.642907E-19
3.713460E+03	-4.097000E-19	-1.606550E-19
3.723362E+03	-4.024904E-19	-1.568097E-19
3.733265E+03	-3.946422E-19	-1.527477E-19
3.743167E+03	-3.861205E-19	-1.484608E-19
3.753070E+03	-3.768905E-19	-1.439413E-19
3.762972E+03	-3.669289E-19	-1.391863E-19
3.772875E+03	-3.561944E-19	-1.341863E-19
3.782777E+03	-3.446610E-19	-1.289381E-19
3.792680E+03	-3.323025E-19	-1.234390E-19
3.802583E+03	-3.190842E-19	-1.176831E-19
3.812485E+03	-3.049785E-19	-1.116677E-19
3.822388E+03	-2.899617E-19	-1.053921E-19
3.832290E+03	-2.740076E-19	-9.885476E-20
3.842193E+03	-2.570909E-19	-9.205495E-20
3.852095E+03	-2.391847E-19	-8.499172E-20
3.861998E+03	-2.202680E-19	-7.766650E-20
3.871900E+03	-2.003174E-19	-7.008030E-20
3.881803E+03	-1.793103E-19	-6.223465E-20
3.891706E+03	-1.572239E-19	-5.413147E-20
3.901608E+03	-1.340359E-19	-4.577305E-20
3.911511E+03	-1.097242E-19	-3.716222E-20
3.921413E+03	-8.426476E-20	-2.830135E-20
3.931316E+03	-5.763156E-20	-1.919263E-20
3.941218E+03	-2.979898E-20	-9.838725E-21
3.951121E+03	-7.372543E-22	-2.413055E-22
3.961024E+03	2.958557E-20	9.598215E-21
3.970926E+03	6.120526E-20	1.967920E-20
3.980829E+03	9.416077E-20	3.000152E-20
3.990731E+03	1.284980E-19	4.056670E-20
4.000634E+03	1.642665E-19	5.137678E-20
4.010536E+03	2.015246E-19	6.243582E-20
4.020439E+03	2.403372E-19	7.374914E-20
4.030341E+03	2.807778E-19	8.532380E-20
4.040244E+03	3.229295E-19	9.716879E-20
4.050147E+03	3.668896E-19	1.092962E-19
4.060049E+03	4.127619E-19	1.217188E-19
4.069952E+03	4.606667E-19	1.344528E-19
4.079854E+03	5.107485E-19	1.475198E-19
4.089757E+03	5.631534E-19	1.609401E-19
4.099659E+03	6.180594E-19	1.747409E-19
4.109562E+03	6.756622E-19	1.889523E-19
4.119464E+03	7.361826E-19	2.036086E-19
4.129367E+03	7.998683E-19	2.187488E-19
4.139270E+03	8.669988E-19	2.344170E-19
4.149172E+03	9.378878E-19	2.506630E-19
4.159075E+03	1.012888E-18	2.675429E-19
4.168977E+03	1.092399E-18	2.851199E-19
4.178880E+03	1.176867E-18	3.034651E-19
4.188782E+03	1.266787E-18	3.226553E-19
4.198685E+03	1.362727E-18	3.427794E-19
4.208587E+03	1.465343E-18	3.639408E-19
4.218490E+03	1.575367E-18	3.862529E-19
4.228393E+03	1.693599E-18	4.098361E-19
4.238295E+03	1.820994E-18	4.348371E-19
4.248198E+03	1.958626E-18	4.614185E-19
4.258100E+03	2.107725E-18	4.897646E-19
4.268003E+03	2.269703E-18	5.200856E-19
4.277905E+03	2.446165E-18	5.526164E-19
4.287808E+03	2.639032E-18	5.876413E-19
4.297711E+03	2.850438E-18	6.254664E-19
4.307613E+03	3.082970E-18	6.664667E-19
4.317516E+03	3.339601E-18	7.110666E-19
4.327418E+03	3.623849E-18	7.597643E-19
4.337321E+03	3.939822E-18	8.131344E-19
4.347223E+03	4.292374E-18	8.718481E-19
4.357126E+03	4.686288E-18	9.364993E-19
4.367028E+03	5.126208E-18	1.007590E-18
4.376931E+03	5.617157E-18	1.085637E-18
4.386834E+03	6.164672E-18	1.171185E-18
4.396736E+03	6.774961E-18	1.264834E-18
4.406639E+03	7.454739E-18	1.367193E-18
4.416541E+03	8.211429E-18	1.478913E-18
4.426444E+03	9.053222E-18	1.600683E-18
4.436346E+03	9.988805E-18	1.733170E-18
4.446249E+03	1.102784E-17	1.877096E-18
4.456151E+03	1.218071E-17	2.033177E-18
4.466054E+03	1.345847E-17	2.202105E-18
4.475957E+03	1.487302E-17	2.384568E-18
4.485859E+03	1.643705E-17	2.581225E-18
4.495762E+03	1.816397E-17	2.792685E-18
4.505664E+03	2.006788E-17	3.019494E-18
4.515567E+03	2.216326E-17	3.262074E-18
4.525469E+03	2.446498E-17	3.520731E-18
4.535372E+03	2.698892E-17	3.795729E-18
4.545274E+03	2.975017E-17	4.087038E-18
4.555177E+03	3.276390E-17	4.394456E-18
4.565080E+03	3.604551E-17	4.717642E-18
4.574982E+03	3.960957E-17	5.055980E-18
4.584885E+03	4.346853E-17	5.408433E-18
4.594787E+03	4.763594E-17	5.773976E-18
4.604690E+03	5.212075E-17	6.150916E-18
4.614592E+03	5.693263E-17	6.537577E-18
4.624495E+03	6.207764E-17	6.931822E-18
4.634398E+03	6.755918E-17	7.331214E-18
4.644300E+03	7.337769E-17	7.733044E-18
4.654203E+03	7.953053E-17	8.134370E-18
4.664105E+03	8.601348E-17	8.532228E-18
4.674008E+03	9.281686E-17	8.923297E-18
4.683910E+03	9.992999E-17	9.304408E-18
4.693813E+03	1.073437E-16	9.672805E-18
4.703715E+03	1.150446E-16	1.002563E-17
4.713618E+03	1.230235E-16	1.036072E-17
4.723521E+03	1.312634E-16	1.067559E-17
4.733423E+03	1.397518E-16	1.096856E-17
4.743326E+03	1.484726E-16	1.123802E-17
4.753228E+03	1.574047E-16	1.148254E-17
4.763131E+03	1.665319E-16	1.170155E-17
4.773033E+03	1.758379E-16	1.189501E-17
4.782936E+03	1.853015E-16	1.206316E-17
4.792838E+03	1.949064E-16	1.220723E-17
4.802741E+03	2.046353E-16	1.232905E-17
4.812644E+03	2.144692E-16	1.243107E-17
4.822546E+03	2.243914E-16	1.251666E-17
4.832449E+03	2.343879E-16	1.259016E-17
4.842351E+03	2.444417E-16	1.265652E-17
4.852254E+03	2.545407E-16	1.272177E-17
4.862156E+03	2.646658E-16	1.279237E-17
4.872059E+03	2.748068E-16	1.287594E-17
4.881961E+03	2.849514E-16	1.298054E-17
4.891864E+03	2.950845E-16	1.311450E-17
4.901767E+03	3.051953E-16	1.328648E-17
4.911669E+03	3.152662E-16	1.350466E-17
4.921572E+03	3.252835E-16	1.377684E-17
4.931474E+03	3.352254E-16	1.410825E-17
4.941377E+03	3.450717E-16	1.450139E-17
4.951279E+03	3.547974E-16	1.495698E-17
4.961182E+03	3.643889E-16	1.547480E-17
4.971085E+03	3.738175E-16	1.605266E-17
4.980987E+03	3.830608E-16	1.668753E-17
4.990890E+03	3.921017E-16	1.737566E-17
5.000792E+03	4.009134E-16	1.811219E-17
5.010695E+03	4.094754E-16	1.889202E-17
5.020597E+03	4.177690E-16	1.970980E-17
5.030500E+03	4.257796E-16	2.056019E-17
5.040402E+03	4.334945E-16	2.143784E-17
5.050305E+03	4.409103E-16	2.233772E-17
5.060208E+03	4.480301E-16	2.325524E-17
5.070110E+03	4.548430E-16	2.418525E-17
5.080013E+03	4.613583E-16	2.512387E-17
5.089915E+03	4.675623E-16	2.606616E-17
5.099818E+03	4.734653E-16	2.700872E-17
5.109720E+03	4.790643E-16	2.794765E-17
5.119623E+03	4.843603E-16	2.887949E-17
5.129525E+03	4.893559E-16	2.980105E-17
5.139428E+03	4.940476E-16	3.070904E-17
5.149331E+03	4.984382E-16	3.160070E-17
5.159233E+03	5.025247E-16	3.247310E-17
5.169136E+03	5.063197E-16	3.332450E-17
5.179038E+03	5.098094E-16	3.415162E-17
5.188941E+03	5.130018E-16	3.495274E-17
5.198843E+03	5.158987E-16	3.572593E-17
5.208746E+03	5.185021E-16	3.646939E-17
5.218648E+03	5.208037E-16	3.718076E-17
5.228551E+03	5.228116E-16	3.785895E-17
5.238454E+03	5.245230E-16	3.850222E-17
5.248356E+03	5.259398E-16	3.910931E-17
5.258259E+03	5.270602E-16	3.967879E-17
5.268161E+03	5.278940E-16	4.021022E-17
5.278064E+03	5.284340E-16	4.070200E-17
5.287966E+03	5.286856E-16	4.115358E-17
5.297869E+03	5.286495E-16	4.156417E-17
5.307772E+03	5.283379E-16	4.193397E-17
5.317674E+03	5.277429E-16	4.226174E-17
5.327577E+03	5.268794E-16	4.254810E-17
5.337479E+03	5.257527E-16	4.279303E-17
5.347382E+03	5.243696E-16	4.299674E-17
5.357284E+03	5.227283E-16	4.315882E-17
5.367187E+03	5.208389E-16	4.327990E-17
5.377089E+03	5.187136E-16	4.336087E-17
5.386992E+03	5.163450E-16	4.340111E-17
5.396895E+03	5.137490E-16	4.340197E-17
5.406797E+03	5.109272E-16	4.336368E-17
5.416700E+03	5.078938E-16	4.328762E-17
5.426602E+03	5.046898E-16	4.317752E-17
5.436505E+03	5.013368E-16	4.303554E-17
5.446407E+03	4.978764E-16	4.286557E-17
5.456310E+03	4.943359E-16	4.267005E-17
5.466212E+03	4.907572E-16	4.245270E-17
5.476115E+03	4.871576E-16	4.221513E-17
5.486018E+03	4.835689E-16	4.196024E-17
5.495920E+03	4.800129E-16	4.169011E-17
5.505823E+03	4.765251E-16	4.140800E-17
5.515725E+03	4.731207E-16	4.111542E-17
5.525628E+03	4.698230E-16	4.081460E-17
5.535530E+03	4.666496E-16	4.050722E-17
5.545433E+03	4.636254E-16	4.019562E-17
5.555335E+03	4.607598E-16	3.988075E-17
5.565238E+03	4.580693E-16	3.956414E-17
5.575141E+03	4.555689E-16	3.924716E-17
5.585043E+03	4.532665E-16	3.893053E-17
5.594946E+03	4.511728E-16	3.861517E-17
5.604848E+03	4.492876E-16	3.830099E-17
5.614751E+03	4.476176E-16	3.798851E-17
5.624653E+03	4.461678E-16	3.767801E-17
5.634556E+03	4.449371E-16	3.736922E-17
5.644459E+03	4.439225E-16	3.706170E-17
5.654361E+03	4.431195E-16	3.675483E-17
5.664264E+03	4.425318E-16	3.644863E-17
5.674166E+03	4.421430E-16	3.614147E-17
5.684069E+03	4.419545E-16	3.583313E-17
5.693971E+03	4.419573E-16	3.552256E-17
5.703874E+03	4.421373E-16	3.520827E-17
5.713776E+03	4.424888E-16	3.488947E-17
5.723679E+03	4.430061E-16	3.456536E-17
5.733582E+03	4.436734E-16	3.423439E-17
5.743484E+03	4.444799E-16	3.389540E-17
5.753387E+03	4.454242E-16	3.354799E-17
5.763289E+03	4.464855E-16	3.319034E-17
5.773192E+03	4.476580E-16	3.282182E-17
5.783094E+03	4.489314E-16	3.244148E-17
5.792997E+03	4.502952E-16	3.204847E-17
5.802899E+03	4.517447E-16	3.164240E-17
5.812802E+03	4.532604E-16	3.122194E-17
5.822705E+03	4.548432E-16	3.078726E-17
5.832607E+03	4.564793E-16	3.033764E-17
5.842510E+03	4.581601E-16	2.987283E-17
5.852412E+03	4.598774E-16	2.939273E-17
5.862315E+03	4.616231E-16	2.889743E-17
5.872217E+03	4.633944E-16	2.838746E-17
5.882120E+03	4.651731E-16	2.786262E-17
5.892022E+03	4.669512E-16	2.732356E-17
5.901925E+03	4.687257E-16	2.677146E-17
5.911828E+03	4.704887E-16	2.620743E-17
5.921730E+03	4.722205E-16	2.563228E-17
5.931633E+03	4.739233E-16	2.504833E-17
5.941535E+03	4.755711E-16	2.445680E-17
5.951438E+03	4.771705E-16	2.386104E-17
5.961340E+03	4.786947E-16	2.326313E-17
5.971243E+03	4.801327E-16	2.266654E-17
5.981146E+03	4.814785E-16	2.207554E-17
5.991048E+03	4.827150E-16	2.149447E-17
6.000951E+03	4.838300E-16	2.092857E-17
6.010853E+03	4.847998E-16	2.038328E-17
6.020756E+03	4.856240E-16	1.986571E-17
6.030658E+03	4.862734E-16	1.938236E-17
6.040561E+03	4.867492E-16	1.894153E-17
6.050463E+03	4.870361E-16	1.855119E-17
6.060366E+03	4.871208E-16	1.821949E-17
6.070269E+03	4.869985E-16	1.795471E-17
6.080171E+03	4.866740E-16	1.776488E-17
6.090074E+03	4.861440E-16	1.765672E-17
6.099976E+03	4.854163E-16	1.763592E-17
6.109879E+03	4.845166E-16	1.770639E-17
6.119781E+03	4.834528E-16	1.786591E-17
6.129684E+03	4.822565E-16	1.811035E-17
6.139586E+03	4.809417E-16	1.843364E-17
6.149489E+03	4.794922E-16	1.882764E-17
6.159392E+03	4.778830E-16	1.928325E-17
6.169294E+03	4.761016E-16	1.979159E-17
6.179197E+03	4.741479E-16	2.034430E-17
6.189099E+03	4.720147E-16	2.093297E-17
6.199002E+03	4.697112E-16	2.155032E-17
6.208904E+03	4.672441E-16	2.218949E-17
6.218807E+03	4.646289E-16	2.284466E-17
6.228709E+03	4.618767E-16	2.351043E-17
6.238612E+03	4.589999E-16	2.418209E-17
6.248515E+03	4.560176E-16	2.485588E-17
6.258417E+03	4.529495E-16	2.552868E-17
6.268320E+03	4.498023E-16	2.619722E-17
6.278222E+03	4.465953E-16	2.685937E-17
6.288125E+03	4.433465E-16	2.751347E-17
6.298027E+03	4.400613E-16	2.815747E-17
6.307930E+03	4.367624E-16	2.879077E-17
6.317833E+03	4.334598E-16	2.941234E-17
6.327735E+03	4.301619E-16	3.002133E-17
6.337638E+03	4.268766E-16	3.061709E-17
6.347540E+03	4.236232E-16	3.120004E-17
6.357443E+03	4.204014E-16	3.176941E-17
6.367345E+03	4.172286E-16	3.232593E-17
6.377248E+03	4.141093E-16	3.286954E-17
6.387150E+03	4.110472E-16	3.340026E-17
6.397053E+03	4.080514E-16	3.391864E-17
6.406956E+03	4.051242E-16	3.442481E-17
6.416858E+03	4.022738E-16	3.491950E-17
6.426761E+03	3.994891E-16	3.540183E-17
6.436663E+03	3.967834E-16	3.587310E-17
6.446566E+03	3.941573E-16	3.633356E-17
6.456468E+03	3.916048E-16	3.678289E-17
6.466371E+03	3.891322E-16	3.722193E-17
6.476273E+03	3.867390E-16	3.765093E-17
6.486176E+03	3.844248E-16	3.807018E-17
6.496079E+03	3.821888E-16	3.847992E-17
6.505981E+03	3.800363E-16	3.888104E-17
6.515884E+03	3.779603E-16	3.927319E-17
6.525786E+03	3.759595E-16	3.965660E-17
6.535689E+03	3.740389E-16	4.003216E-17
6.545591E+03	3.721973E-16	4.040013E-17
6.555494E+03	3.704270E-16	4.076005E-17
6.565396E+03	3.687328E-16	4.111284E-17
6.575299E+03	3.671071E-16	4.145798E-17
6.585202E+03	3.655607E-16	4.179710E-17
6.595104E+03	3.640796E-16	4.212896E-17
6.605007E+03	3.626622E-16	4.245371E-17
6.614909E+03	3.613130E-16	4.277223E-17
6.624812E+03	3.600303E-16	4.308467E-17
6.634714E+03	3.588063E-16	4.339041E-17
6.644617E+03	3.576390E-16	4.368955E-17
6.654520E+03	3.565330E-16	4.398296E-17
6.664422E+03	3.554803E-16	4.426995E-17
6.674325E+03	3.544852E-16	4.455138E-17
6.684227E+03	3.535335E-16	4.482572E-17
6.694130E+03	3.526360E-16	4.509463E-17
6.704032E+03	3.517780E-16	4.535652E-17
6.713935E+03	3.509706E-16	4.561306E-17
6.723837E+03	3.501994E-16	4.586264E-17
6.733740E+03	3.494688E-16	4.610609E-17
6.743643E+03	3.487771E-16	4.634345E-17
6.753545E+03	3.481164E-16	4.657388E-17
6.763448E+03	3.474914E-16	4.679824E-17
6.773350E+03	3.468941E-16	4.701571E-17
6.783253E+03	3.463294E-16	4.722715E-17
6.793155E+03	3.457829E-16	4.743085E-17
6.803058E+03	3.452663E-16	4.762859E-17
6.812960E+03	3.447715E-16	4.781950E-17
6.822863E+03	3.442975E-16	4.800365E-17
6.832766E+03	3.438365E-16	4.818016E-17
6.842668E+03	3.434004E-16	4.835092E-17
6.852571E+03	3.429686E-16	4.851323E-17
6.862473E+03	3.425596E-16	4.866993E-17
6.872376E+03	3.421594E-16	4.881925E-17
6.882278E+03	3.417672E-16	4.896128E-17
6.892181E+03	3.413887E-16	4.909707E-17
6.902083E+03	3.410166E-16	4.922578E-17
6.911986E+03	3.406502E-16	4.934756E-17
6.921889E+03	3.402887E-16	4.946249E-17
6.931791E+03	3.399316E-16	4.957076E-17
6.941694E+03	3.395784E-16	4.967250E-17
6.951596E+03	3.392218E-16	4.976690E-17
6.961499E+03	3.388746E-16	4.985608E-17
6.971401E+03	3.385164E-16	4.993727E-17
6.981304E+03	3.381667E-16	5.001362E-17
6.991207E+03	3.378051E-16	5.008237E-17
7.001109E+03	3.374445E-16	5.014567E-17
7.011012E+03	3.370778E-16	5.020275E-17
7.020914E+03	3.367045E-16	5.025379E-17
7.030817E+03	3.363311E-16	5.030004E-17
7.040719E+03	3.359434E-16	5.033968E-17
7.050622E+03	3.355479E-16	5.037392E-17
7.060524E+03	3.351372E-16	5.040198E-17
7.070427E+03	3.347176E-16	5.042505E-17
7.080330E+03	3.342884E-16	5.044337E-17
7.090232E+03	3.338422E-16	5.045609E-17
7.100135E+03	3.333851E-16	5.046444E-17
7.110037E+03	3.329025E-16	5.046652E-17
7.119940E+03	3.324072E-16	5.046457E-17
7.129842E+03	3.318914E-16	5.045770E-17
7.139745E+03	3.313469E-16	5.044500E-17
7.149647E+03	3.307794E-16	5.042764E-17
7.159550E+03	3.301874E-16	5.040567E-17
7.169453E+03	3.295626E-16	5.037816E-17
7.179355E+03	3.289032E-16	5.034514E-17
7.189258E+03	3.282074E-16	5.030664E-17
7.199160E+03	3.274733E-16	5.026266E-17
7.209063E+03	3.266988E-16	5.021318E-17
7.218965E+03	3.258680E-16	5.015605E-17
7.228868E+03	3.249924E-16	5.009331E-17
7.238770E+03	3.240627E-16	5.002381E-17
7.248673E+03	3.230699E-16	4.994643E-17
7.258576E+03	3.220182E-16	4.986207E-17
7.268478E+03	3.208918E-16	4.976852E-17
7.278381E+03	3.196885E-16	4.966566E-17
7.288283E+03	3.184060E-16	4.955335E-17
7.298186E+03	3.170357E-16	4.943043E-17
7.308088E+03	3.155822E-16	4.929781E-17
7.317991E+03	3.140243E-16	4.915229E-17
7.327894E+03	3.123739E-16	4.899583E-17
7.337796E+03	3.106172E-16	4.882589E-17
7.347699E+03	3.087606E-16	4.864306E-17
7.357601E+03	3.067977E-16	4.844587E-17
7.367504E+03	3.047293E-16	4.823400E-17
7.377406E+03	3.025631E-16	4.800823E-17
7.387309E+03	3.002948E-16	4.776739E-17
7.397211E+03	2.979461E-16	4.751449E-17
7.407114E+03	2.955075E-16	4.724759E-17
7.417017E+03	2.929956E-16	4.696890E-17
7.426919E+03	2.904086E-16	4.667773E-17
7.436822E+03	2.877707E-16	4.637754E-17
7.446724E+03	2.850784E-16	4.606742E-17
7.456627E+03	2.823319E-16	4.574701E-17
7.466529E+03	2.795378E-16	4.541705E-17
7.476432E+03	2.766973E-16	4.507738E-17
7.486334E+03	2.738244E-16	4.472998E-17
7.496237E+03	2.709092E-16	4.437293E-17
7.506140E+03	2.679606E-16	4.400737E-17
7.516042E+03	2.649875E-16	4.363453E-17
7.525945E+03	2.619873E-16	4.325373E-17
7.535847E+03	2.589694E-16	4.286628E-17
7.545750E+03	2.559316E-16	4.247161E-17
7.555652E+03	2.528890E-16	4.207205E-17
7.565555E+03	2.498338E-16	4.166611E-17
7.575457E+03	2.467807E-16	4.125610E-17
7.585360E+03	2.437219E-16	4.084060E-17
7.595263E+03	2.406719E-16	4.042189E-17
7.605165E+03	2.376227E-16	3.999854E-17
7.615068E+03	2.345879E-16	3.957277E-17
7.624970E+03	2.315650E-16	3.914406E-17
7.634873E+03	2.285563E-16	3.871276E-17
