#wls	flux	fluxerr
1.584409E+03	1.336084E-16	2.972591E-17
1.624020E+03	1.392241E-16	3.092976E-17
1.663630E+03	1.445534E-16	3.206530E-17
1.703240E+03	1.495752E-16	3.312800E-17
1.742850E+03	1.541912E-16	3.409634E-17
1.782461E+03	1.582707E-16	3.494172E-17
1.822071E+03	1.616467E-16	3.562781E-17
1.861681E+03	1.640917E-16	3.610520E-17
1.901291E+03	1.653734E-16	3.632386E-17
1.940902E+03	1.652858E-16	3.623989E-17
1.980512E+03	1.637222E-16	3.583152E-17
2.020122E+03	1.608924E-16	3.514636E-17
2.059732E+03	1.573977E-16	3.431712E-17
2.099342E+03	1.543090E-16	3.357777E-17
2.138953E+03	1.528501E-16	3.319359E-17
2.178563E+03	1.537732E-16	3.332546E-17
2.218173E+03	1.569522E-16	3.394291E-17
2.257783E+03	1.615838E-16	3.486939E-17
2.297394E+03	1.665659E-16	3.586537E-17
2.337004E+03	1.710069E-16	3.673868E-17
2.376614E+03	1.743433E-16	3.736913E-17
2.416224E+03	1.763112E-16	3.770184E-17
2.455835E+03	1.768615E-16	3.772830E-17
2.495445E+03	1.760325E-16	3.745881E-17
2.535055E+03	1.739501E-16	3.692230E-17
2.574665E+03	1.707280E-16	3.614488E-17
2.614276E+03	1.664952E-16	3.515576E-17
2.653886E+03	1.613701E-16	3.398170E-17
2.693496E+03	1.554772E-16	3.265049E-17
2.733106E+03	1.489298E-16	3.118739E-17
2.772716E+03	1.418387E-16	2.961691E-17
2.812327E+03	1.343247E-16	2.796539E-17
2.851937E+03	1.265034E-16	2.625788E-17
2.891547E+03	1.184984E-16	2.452075E-17
2.931157E+03	1.104320E-16	2.277989E-17
2.970768E+03	1.024221E-16	2.105993E-17
2.980670E+03	1.004410E-16	2.063580E-17
2.990573E+03	9.847204E-17	2.021475E-17
3.000475E+03	9.651654E-17	1.979705E-17
3.010378E+03	9.457773E-17	1.938337E-17
3.020280E+03	9.265463E-17	1.897348E-17
3.030183E+03	9.074833E-17	1.856762E-17
3.040086E+03	8.886493E-17	1.816703E-17
3.049988E+03	8.700507E-17	1.777183E-17
3.059891E+03	8.517645E-17	1.738358E-17
3.069793E+03	8.337663E-17	1.700177E-17
3.079696E+03	8.160504E-17	1.662628E-17
3.089598E+03	7.986466E-17	1.625771E-17
3.099501E+03	7.815207E-17	1.589533E-17
3.109403E+03	7.646875E-17	1.553945E-17
3.119306E+03	7.481482E-17	1.519008E-17
3.129209E+03	7.319177E-17	1.484750E-17
3.139111E+03	7.159856E-17	1.451150E-17
3.149014E+03	7.003664E-17	1.418235E-17
3.158916E+03	6.850647E-17	1.386014E-17
3.168819E+03	6.700717E-17	1.354466E-17
3.178721E+03	6.554044E-17	1.323626E-17
3.188624E+03	6.410771E-17	1.293521E-17
3.198526E+03	6.270720E-17	1.264112E-17
3.208429E+03	6.134150E-17	1.235452E-17
3.218332E+03	6.000890E-17	1.207503E-17
3.228234E+03	5.871277E-17	1.180333E-17
3.238137E+03	5.745043E-17	1.153885E-17
3.248039E+03	5.622317E-17	1.128184E-17
3.257942E+03	5.503210E-17	1.103250E-17
3.267844E+03	5.387648E-17	1.079067E-17
3.277747E+03	5.275723E-17	1.055651E-17
3.287650E+03	5.167278E-17	1.032970E-17
3.297552E+03	5.062399E-17	1.011038E-17
3.307455E+03	4.961080E-17	9.898529E-18
3.317357E+03	4.863312E-17	9.694108E-18
3.327260E+03	4.769080E-17	9.497069E-18
3.337162E+03	4.678295E-17	9.307219E-18
3.347065E+03	4.590941E-17	9.124504E-18
3.356967E+03	4.506994E-17	8.948861E-18
3.366870E+03	4.426427E-17	8.780218E-18
3.376773E+03	4.349150E-17	8.618378E-18
3.386675E+03	4.275134E-17	8.463266E-18
3.396578E+03	4.204346E-17	8.314801E-18
3.406480E+03	4.136698E-17	8.172788E-18
3.416383E+03	4.072155E-17	8.037145E-18
3.426285E+03	4.010684E-17	7.907785E-18
3.436188E+03	3.952147E-17	7.784423E-18
3.446090E+03	3.896560E-17	7.667074E-18
3.455993E+03	3.843841E-17	7.555558E-18
3.465896E+03	3.793910E-17	7.449701E-18
3.475798E+03	3.746733E-17	7.349423E-18
3.485701E+03	3.702191E-17	7.254475E-18
3.495603E+03	3.660256E-17	7.164787E-18
3.505506E+03	3.620858E-17	7.080204E-18
3.515408E+03	3.583928E-17	7.000581E-18
3.525311E+03	3.549403E-17	6.925778E-18
3.535213E+03	3.517222E-17	6.855660E-18
3.545116E+03	3.487286E-17	6.790024E-18
3.555019E+03	3.459578E-17	6.728822E-18
3.564921E+03	3.434007E-17	6.671866E-18
3.574824E+03	3.410560E-17	6.619114E-18
3.584726E+03	3.389114E-17	6.570318E-18
3.594629E+03	3.369696E-17	6.525516E-18
3.604531E+03	3.352155E-17	6.484404E-18
3.614434E+03	3.336485E-17	6.446961E-18
3.624337E+03	3.322614E-17	6.413031E-18
3.634239E+03	3.310535E-17	6.382597E-18
3.644142E+03	3.300147E-17	6.355446E-18
3.654044E+03	3.291446E-17	6.331565E-18
3.663947E+03	3.284367E-17	6.310814E-18
3.673849E+03	3.278906E-17	6.293179E-18
3.683752E+03	3.275000E-17	6.278527E-18
3.693654E+03	3.272677E-17	6.266903E-18
3.703557E+03	3.271844E-17	6.258115E-18
3.713460E+03	3.272528E-17	6.252210E-18
3.723362E+03	3.274697E-17	6.249113E-18
3.733265E+03	3.278348E-17	6.248811E-18
3.743167E+03	3.283446E-17	6.251226E-18
3.753070E+03	3.290018E-17	6.256401E-18
3.762972E+03	3.298000E-17	6.264205E-18
3.772875E+03	3.307416E-17	6.274671E-18
3.782777E+03	3.318260E-17	6.287782E-18
3.792680E+03	3.330527E-17	6.303514E-18
3.802583E+03	3.344207E-17	6.321844E-18
3.812485E+03	3.359264E-17	6.342691E-18
3.822388E+03	3.375749E-17	6.366143E-18
3.832290E+03	3.393651E-17	6.392168E-18
3.842193E+03	3.412932E-17	6.420684E-18
3.852095E+03	3.433608E-17	6.451715E-18
3.861998E+03	3.455669E-17	6.485230E-18
3.871900E+03	3.479131E-17	6.521248E-18
3.881803E+03	3.503949E-17	6.559678E-18
3.891706E+03	3.530168E-17	6.600593E-18
3.901608E+03	3.557742E-17	6.643897E-18
3.911511E+03	3.586713E-17	6.689659E-18
3.921413E+03	3.617032E-17	6.737777E-18
3.931316E+03	3.648679E-17	6.788204E-18
3.941218E+03	3.681691E-17	6.841000E-18
3.951121E+03	3.716014E-17	6.896056E-18
3.961024E+03	3.751653E-17	6.953369E-18
3.970926E+03	3.788582E-17	7.012883E-18
3.980829E+03	3.826799E-17	7.074586E-18
3.990731E+03	3.866275E-17	7.138411E-18
4.000634E+03	3.906973E-17	7.204285E-18
4.010536E+03	3.948890E-17	7.272191E-18
4.020439E+03	3.992018E-17	7.342106E-18
4.030341E+03	4.036248E-17	7.413819E-18
4.040244E+03	4.081634E-17	7.487424E-18
4.050147E+03	4.128059E-17	7.562697E-18
4.060049E+03	4.175537E-17	7.639655E-18
4.069952E+03	4.223978E-17	7.718126E-18
4.079854E+03	4.273355E-17	7.798052E-18
4.089757E+03	4.323603E-17	7.879310E-18
4.099659E+03	4.374650E-17	7.961762E-18
4.109562E+03	4.426422E-17	8.045265E-18
4.119464E+03	4.478838E-17	8.129670E-18
4.129367E+03	4.531850E-17	8.214883E-18
4.139270E+03	4.585366E-17	8.300733E-18
4.149172E+03	4.639252E-17	8.386975E-18
4.159075E+03	4.693405E-17	8.473418E-18
4.168977E+03	4.747717E-17	8.559866E-18
4.178880E+03	4.802110E-17	8.646180E-18
4.188782E+03	4.856426E-17	8.732071E-18
4.198685E+03	4.910539E-17	8.817316E-18
4.208587E+03	4.964276E-17	8.901604E-18
4.218490E+03	5.017541E-17	8.984770E-18
4.228393E+03	5.070152E-17	9.066486E-18
4.238295E+03	5.121963E-17	9.146501E-18
4.248198E+03	5.172826E-17	9.224557E-18
4.258100E+03	5.222505E-17	9.300238E-18
4.268003E+03	5.270934E-17	9.373436E-18
4.277905E+03	5.317875E-17	9.443740E-18
4.287808E+03	5.363178E-17	9.510895E-18
4.297711E+03	5.406652E-17	9.574574E-18
4.307613E+03	5.448248E-17	9.634704E-18
4.317516E+03	5.487698E-17	9.690826E-18
4.327418E+03	5.524971E-17	9.742905E-18
4.337321E+03	5.559963E-17	9.790769E-18
4.347223E+03	5.592629E-17	9.834361E-18
4.357126E+03	5.623008E-17	9.873767E-18
4.367028E+03	5.651130E-17	9.909054E-18
4.376931E+03	5.677138E-17	9.940492E-18
4.386834E+03	5.701002E-17	9.968046E-18
4.396736E+03	5.722902E-17	9.992044E-18
4.406639E+03	5.742884E-17	1.001259E-17
4.416541E+03	5.761055E-17	1.002987E-17
4.426444E+03	5.777635E-17	1.004429E-17
4.436346E+03	5.792600E-17	1.005581E-17
4.446249E+03	5.806234E-17	1.006495E-17
4.456151E+03	5.818521E-17	1.007168E-17
4.466054E+03	5.829707E-17	1.007643E-17
4.475957E+03	5.839880E-17	1.007938E-17
4.485859E+03	5.849186E-17	1.008076E-17
4.495762E+03	5.857770E-17	1.008085E-17
4.505664E+03	5.865667E-17	1.007971E-17
4.515567E+03	5.873125E-17	1.007776E-17
4.525469E+03	5.880177E-17	1.007507E-17
4.535372E+03	5.886956E-17	1.007186E-17
4.545274E+03	5.893595E-17	1.006837E-17
4.555177E+03	5.900222E-17	1.006481E-17
4.565080E+03	5.906908E-17	1.006131E-17
4.574982E+03	5.913718E-17	1.005797E-17
4.584885E+03	5.920768E-17	1.005499E-17
4.594787E+03	5.928168E-17	1.005255E-17
4.604690E+03	5.936026E-17	1.005084E-17
4.614592E+03	5.944335E-17	1.004983E-17
4.624495E+03	5.953247E-17	1.004979E-17
4.634398E+03	5.962803E-17	1.005078E-17
4.644300E+03	5.973037E-17	1.005283E-17
4.654203E+03	5.984035E-17	1.005611E-17
4.664105E+03	5.995823E-17	1.006064E-17
4.674008E+03	6.008424E-17	1.006646E-17
4.683910E+03	6.021855E-17	1.007358E-17
4.693813E+03	6.036127E-17	1.008202E-17
4.703715E+03	6.051251E-17	1.009180E-17
4.713618E+03	6.067228E-17	1.010290E-17
4.723521E+03	6.084061E-17	1.011532E-17
4.733423E+03	6.101687E-17	1.012896E-17
4.743326E+03	6.120155E-17	1.014388E-17
4.753228E+03	6.139337E-17	1.015988E-17
4.763131E+03	6.159335E-17	1.017710E-17
4.773033E+03	6.180011E-17	1.019532E-17
4.782936E+03	6.201401E-17	1.021459E-17
4.792838E+03	6.223481E-17	1.023487E-17
4.802741E+03	6.246101E-17	1.025590E-17
4.812644E+03	6.269349E-17	1.027783E-17
4.822546E+03	6.293131E-17	1.030049E-17
4.832449E+03	6.317472E-17	1.032392E-17
4.842351E+03	6.342146E-17	1.034775E-17
4.852254E+03	6.367299E-17	1.037221E-17
4.862156E+03	6.392765E-17	1.039703E-17
4.872059E+03	6.418561E-17	1.042223E-17
4.881961E+03	6.444581E-17	1.044765E-17
4.891864E+03	6.470839E-17	1.047329E-17
4.901767E+03	6.497163E-17	1.049888E-17
4.911669E+03	6.523566E-17	1.052445E-17
4.921572E+03	6.550064E-17	1.055001E-17
4.931474E+03	6.576478E-17	1.057527E-17
4.941377E+03	6.602758E-17	1.060017E-17
4.951279E+03	6.628917E-17	1.062471E-17
4.961182E+03	6.654902E-17	1.064882E-17
4.971085E+03	6.680527E-17	1.067220E-17
4.980987E+03	6.705804E-17	1.069487E-17
4.990890E+03	6.730676E-17	1.071674E-17
5.000792E+03	6.755086E-17	1.073773E-17
5.010695E+03	6.778906E-17	1.075764E-17
5.020597E+03	6.802073E-17	1.077637E-17
5.030500E+03	6.824590E-17	1.079393E-17
5.040402E+03	6.846254E-17	1.081002E-17
5.050305E+03	6.867062E-17	1.082462E-17
5.060208E+03	6.886870E-17	1.083752E-17
5.070110E+03	6.905602E-17	1.084861E-17
5.080013E+03	6.923177E-17	1.085778E-17
5.089915E+03	6.939509E-17	1.086489E-17
5.099818E+03	6.954441E-17	1.086971E-17
5.109720E+03	6.967950E-17	1.087222E-17
5.119623E+03	6.979803E-17	1.087207E-17
5.129525E+03	6.989969E-17	1.086922E-17
5.139428E+03	6.998277E-17	1.086342E-17
5.149331E+03	7.004623E-17	1.085453E-17
5.159233E+03	7.008904E-17	1.084239E-17
5.169136E+03	7.011011E-17	1.082688E-17
5.179038E+03	7.010700E-17	1.080761E-17
5.188941E+03	7.008007E-17	1.078468E-17
5.198843E+03	7.002619E-17	1.075762E-17
5.208746E+03	6.994580E-17	1.072651E-17
5.218648E+03	6.983658E-17	1.069103E-17
5.228551E+03	6.969841E-17	1.065119E-17
5.238454E+03	6.952983E-17	1.060678E-17
5.248356E+03	6.932956E-17	1.055763E-17
5.258259E+03	6.909777E-17	1.050380E-17
5.268161E+03	6.883280E-17	1.044505E-17
5.278064E+03	6.853517E-17	1.038151E-17
5.287966E+03	6.820428E-17	1.031310E-17
5.297869E+03	6.783973E-17	1.023980E-17
5.307772E+03	6.744206E-17	1.016170E-17
5.317674E+03	6.701205E-17	1.007897E-17
5.327577E+03	6.655076E-17	9.991770E-18
5.337479E+03	6.605820E-17	9.900144E-18
5.347382E+03	6.553667E-17	9.804458E-18
5.357284E+03	6.498740E-17	9.704920E-18
5.367187E+03	6.441324E-17	9.601979E-18
5.377089E+03	6.381533E-17	9.495825E-18
5.386992E+03	6.319829E-17	9.387163E-18
5.396895E+03	6.256561E-17	9.276527E-18
5.406797E+03	6.192404E-17	9.164929E-18
5.416700E+03	6.127538E-17	9.052645E-18
5.426602E+03	6.061854E-17	8.939517E-18
5.436505E+03	5.995378E-17	8.825591E-18
5.446407E+03	5.928320E-17	8.711180E-18
5.456310E+03	5.861110E-17	8.596919E-18
5.466212E+03	5.793871E-17	8.482989E-18
5.476115E+03	5.727072E-17	8.370074E-18
5.486018E+03	5.660883E-17	8.258420E-18
5.495920E+03	5.595641E-17	8.148511E-18
5.505823E+03	5.531671E-17	8.040812E-18
5.515725E+03	5.469289E-17	7.935770E-18
5.525628E+03	5.408684E-17	7.833645E-18
5.535530E+03	5.350144E-17	7.734842E-18
5.545433E+03	5.293938E-17	7.639729E-18
5.555335E+03	5.240259E-17	7.548569E-18
5.565238E+03	5.189284E-17	7.461593E-18
5.575141E+03	5.141270E-17	7.379150E-18
5.585043E+03	5.096294E-17	7.301327E-18
5.594946E+03	5.054515E-17	7.228326E-18
5.604848E+03	5.016014E-17	7.160240E-18
5.614751E+03	4.980904E-17	7.097201E-18
5.624653E+03	4.949221E-17	7.039238E-18
5.634556E+03	4.920984E-17	6.986348E-18
5.644459E+03	4.896240E-17	6.938571E-18
5.654361E+03	4.875021E-17	6.895926E-18
5.664264E+03	4.857240E-17	6.858264E-18
5.674166E+03	4.842900E-17	6.825562E-18
5.684069E+03	4.831944E-17	6.797713E-18
5.693971E+03	4.824304E-17	6.774596E-18
5.703874E+03	4.820008E-17	6.756227E-18
5.713776E+03	4.818877E-17	6.742326E-18
5.723679E+03	4.820933E-17	6.732904E-18
5.733582E+03	4.826043E-17	6.727751E-18
5.743484E+03	4.834179E-17	6.726804E-18
5.753387E+03	4.845262E-17	6.729932E-18
5.763289E+03	4.859214E-17	6.737004E-18
5.773192E+03	4.876014E-17	6.747970E-18
5.783094E+03	4.895537E-17	6.762639E-18
5.792997E+03	4.917769E-17	6.780970E-18
5.802899E+03	4.942645E-17	6.802853E-18
5.812802E+03	4.970047E-17	6.828110E-18
5.822705E+03	5.000023E-17	6.856789E-18
5.832607E+03	5.032406E-17	6.888641E-18
5.842510E+03	5.067248E-17	6.923721E-18
5.852412E+03	5.104437E-17	6.961860E-18
5.862315E+03	5.143916E-17	7.002965E-18
5.872217E+03	5.185686E-17	7.047022E-18
5.882120E+03	5.229573E-17	7.093778E-18
5.892022E+03	5.275574E-17	7.143218E-18
5.901925E+03	5.323688E-17	7.195326E-18
5.911828E+03	5.373734E-17	7.249843E-18
5.921730E+03	5.425706E-17	7.306751E-18
5.931633E+03	5.479537E-17	7.365947E-18
5.941535E+03	5.535099E-17	7.427247E-18
5.951438E+03	5.592319E-17	7.490546E-18
5.961340E+03	5.651126E-17	7.555739E-18
5.971243E+03	5.711383E-17	7.622634E-18
5.981146E+03	5.773016E-17	7.691125E-18
5.991048E+03	5.836023E-17	7.761203E-18
6.000951E+03	5.900129E-17	7.832496E-18
6.010853E+03	5.965404E-17	7.905092E-18
6.020756E+03	6.031572E-17	7.978622E-18
6.030658E+03	6.098716E-17	8.053193E-18
6.040561E+03	6.166565E-17	8.128443E-18
6.050463E+03	6.235142E-17	8.204402E-18
6.060366E+03	6.304257E-17	8.280821E-18
6.070269E+03	6.373952E-17	8.357755E-18
6.080171E+03	6.444052E-17	8.434974E-18
6.090074E+03	6.514460E-17	8.512353E-18
6.099976E+03	6.585238E-17	8.589977E-18
6.109879E+03	6.656211E-17	8.667617E-18
6.119781E+03	6.727427E-17	8.745343E-18
6.129684E+03	6.798834E-17	8.823088E-18
6.139586E+03	6.870343E-17	8.900740E-18
6.149489E+03	6.941822E-17	8.978136E-18
6.159392E+03	7.013291E-17	9.055305E-18
6.169294E+03	7.084568E-17	9.132017E-18
6.179197E+03	7.155562E-17	9.208164E-18
6.189099E+03	7.226182E-17	9.283635E-18
6.199002E+03	7.296530E-17	9.358570E-18
6.208904E+03	7.366362E-17	9.432663E-18
6.218807E+03	7.435628E-17	9.505856E-18
6.228709E+03	7.504376E-17	9.578216E-18
6.238612E+03	7.572607E-17	9.649746E-18
6.248515E+03	7.640202E-17	9.720302E-18
6.258417E+03	7.707085E-17	9.789791E-18
6.268320E+03	7.773367E-17	9.858360E-18
6.278222E+03	7.838876E-17	9.925793E-18
6.288125E+03	7.903646E-17	9.992142E-18
6.298027E+03	7.967622E-17	1.005734E-17
6.307930E+03	8.030736E-17	1.012131E-17
6.317833E+03	8.092939E-17	1.018399E-17
6.327735E+03	8.154177E-17	1.024532E-17
6.337638E+03	8.214402E-17	1.030526E-17
6.347540E+03	8.273435E-17	1.036357E-17
6.357443E+03	8.331354E-17	1.042036E-17
6.367345E+03	8.388110E-17	1.047559E-17
6.377248E+03	8.443768E-17	1.052934E-17
6.387150E+03	8.498426E-17	1.058173E-17
6.397053E+03	8.551912E-17	1.063256E-17
6.406956E+03	8.604456E-17	1.068213E-17
6.416858E+03	8.656024E-17	1.073039E-17
6.426761E+03	8.706722E-17	1.077748E-17
6.436663E+03	8.756405E-17	1.082323E-17
6.446566E+03	8.805316E-17	1.086795E-17
6.456468E+03	8.853319E-17	1.091146E-17
6.466371E+03	8.900539E-17	1.095394E-17
6.476273E+03	8.946833E-17	1.099520E-17
6.486176E+03	8.992339E-17	1.103543E-17
6.496079E+03	9.037196E-17	1.107480E-17
6.505981E+03	9.081137E-17	1.111298E-17
6.515884E+03	9.124302E-17	1.115015E-17
6.525786E+03	9.166849E-17	1.118652E-17
6.535689E+03	9.208483E-17	1.122172E-17
6.545591E+03	9.249523E-17	1.125615E-17
6.555494E+03	9.289661E-17	1.128943E-17
6.565396E+03	9.329213E-17	1.132196E-17
6.575299E+03	9.367879E-17	1.135338E-17
6.585202E+03	9.405819E-17	1.138389E-17
6.595104E+03	9.443026E-17	1.141348E-17
6.605007E+03	9.479344E-17	1.144196E-17
6.614909E+03	9.514925E-17	1.146954E-17
6.624812E+03	9.549593E-17	1.149599E-17
6.634714E+03	9.583350E-17	1.152134E-17
6.644617E+03	9.616341E-17	1.154575E-17
6.654520E+03	9.648388E-17	1.156902E-17
6.664422E+03	9.679297E-17	1.159093E-17
6.674325E+03	9.709390E-17	1.161187E-17
6.684227E+03	9.738300E-17	1.163140E-17
6.694130E+03	9.766186E-17	1.164972E-17
6.704032E+03	9.793008E-17	1.166679E-17
6.713935E+03	9.818579E-17	1.168240E-17
6.723837E+03	9.842866E-17	1.169651E-17
6.733740E+03	9.865831E-17	1.170909E-17
6.743643E+03	9.887632E-17	1.172033E-17
6.753545E+03	9.908061E-17	1.173000E-17
6.763448E+03	9.926904E-17	1.173784E-17
6.773350E+03	9.944304E-17	1.174405E-17
6.783253E+03	9.960246E-17	1.174860E-17
6.793155E+03	9.974683E-17	1.175146E-17
6.803058E+03	9.987423E-17	1.175240E-17
6.812960E+03	9.998413E-17	1.175138E-17
6.822863E+03	1.000783E-16	1.174861E-17
6.832766E+03	1.001546E-16	1.174384E-17
6.842668E+03	1.002127E-16	1.173707E-17
6.852571E+03	1.002524E-16	1.172827E-17
6.862473E+03	1.002736E-16	1.171743E-17
6.872376E+03	1.002760E-16	1.170454E-17
6.882278E+03	1.002596E-16	1.168960E-17
6.892181E+03	1.002223E-16	1.167238E-17
6.902083E+03	1.001639E-16	1.165288E-17
6.911986E+03	1.000864E-16	1.163134E-17
6.921889E+03	9.998977E-17	1.160775E-17
6.931791E+03	9.987018E-17	1.158169E-17
6.941694E+03	9.973159E-17	1.155363E-17
6.951596E+03	9.957222E-17	1.152336E-17
6.961499E+03	9.939216E-17	1.149093E-17
6.971401E+03	9.918970E-17	1.145613E-17
6.981304E+03	9.896705E-17	1.141923E-17
6.991207E+03	9.872449E-17	1.138028E-17
7.001109E+03	9.846249E-17	1.133933E-17
7.011012E+03	9.817945E-17	1.129623E-17
7.020914E+03	9.787589E-17	1.125102E-17
7.030817E+03	9.755420E-17	1.120400E-17
7.040719E+03	9.721305E-17	1.115503E-17
7.050622E+03	9.685110E-17	1.110396E-17
7.060524E+03	9.647292E-17	1.105132E-17
7.070427E+03	9.607727E-17	1.099697E-17
7.080330E+03	9.566506E-17	1.094104E-17
7.090232E+03	9.523504E-17	1.088337E-17
7.100135E+03	9.479000E-17	1.082431E-17
7.110037E+03	9.433102E-17	1.076397E-17
7.119940E+03	9.385694E-17	1.070223E-17
7.129842E+03	9.336890E-17	1.063923E-17
7.139745E+03	9.286968E-17	1.057529E-17
7.149647E+03	9.235856E-17	1.051032E-17
7.159550E+03	9.183650E-17	1.044445E-17
7.169453E+03	9.130459E-17	1.037780E-17
7.179355E+03	9.076396E-17	1.031050E-17
7.189258E+03	9.021365E-17	1.024245E-17
7.199160E+03	8.965866E-17	1.017421E-17
7.209063E+03	8.909821E-17	1.010570E-17
7.218965E+03	8.852950E-17	1.003660E-17
7.228868E+03	8.795934E-17	9.967690E-18
7.238770E+03	8.738328E-17	9.898461E-18
7.248673E+03	8.680623E-17	9.829471E-18
7.258576E+03	8.622749E-17	9.760639E-18
7.268478E+03	8.564837E-17	9.692116E-18
7.278381E+03	8.506841E-17	9.623849E-18
7.288283E+03	8.448908E-17	9.556002E-18
7.298186E+03	8.391203E-17	9.488762E-18
7.308088E+03	8.333905E-17	9.422330E-18
7.317991E+03	8.276835E-17	9.356503E-18
7.327894E+03	8.220394E-17	9.291734E-18
7.337796E+03	8.164452E-17	9.227872E-18
7.347699E+03	8.109106E-17	9.165028E-18
7.357601E+03	8.054440E-17	9.103295E-18
7.367504E+03	8.000950E-17	9.043230E-18
7.377406E+03	7.948943E-17	8.985181E-18
7.387309E+03	7.899108E-17	8.929926E-18
7.397211E+03	7.852133E-17	8.878242E-18
7.407114E+03	7.808167E-17	8.830291E-18
7.417017E+03	7.767691E-17	8.786608E-18
7.426919E+03	7.731292E-17	8.747849E-18
7.436822E+03	7.698786E-17	8.713801E-18
7.446724E+03	7.670543E-17	8.684876E-18
7.456627E+03	7.646418E-17	8.660907E-18
7.466529E+03	7.626182E-17	8.641632E-18
7.476432E+03	7.609549E-17	8.626722E-18
7.486334E+03	7.596223E-17	8.615843E-18
7.496237E+03	7.586058E-17	8.608825E-18
7.506140E+03	7.578597E-17	8.605149E-18
7.516042E+03	7.573718E-17	8.604677E-18
7.525945E+03	7.570999E-17	8.606926E-18
7.535847E+03	7.570379E-17	8.611828E-18
7.545750E+03	7.571632E-17	8.619123E-18
7.555652E+03	7.574397E-17	8.628401E-18
7.565555E+03	7.578679E-17	8.639665E-18
7.575457E+03	7.584305E-17	8.652717E-18
7.585360E+03	7.590955E-17	8.667191E-18
7.595263E+03	7.598686E-17	8.683150E-18
7.605165E+03	7.607177E-17	8.700227E-18
7.615068E+03	7.616688E-17	8.718715E-18
7.624970E+03	7.626756E-17	8.738085E-18
7.634873E+03	7.637464E-17	8.758428E-18
7.644775E+03	7.648540E-17	8.779430E-18
7.654678E+03	7.660079E-17	8.801199E-18
7.664581E+03	7.672004E-17	8.823642E-18
7.674483E+03	7.684249E-17	8.846683E-18
7.684386E+03	7.696548E-17	8.870011E-18
