#wls	flux	fluxerr
1.584409E+03	5.550482E-17	1.899109E-17
1.624020E+03	5.790727E-17	1.980062E-17
1.663630E+03	6.015387E-17	2.055552E-17
1.703240E+03	6.219852E-17	2.124011E-17
1.742850E+03	6.401596E-17	2.184587E-17
1.782461E+03	6.553337E-17	2.234807E-17
1.822071E+03	6.667141E-17	2.271987E-17
1.861681E+03	6.735138E-17	2.293471E-17
1.901291E+03	6.746823E-17	2.295718E-17
1.940902E+03	6.695015E-17	2.276328E-17
1.980512E+03	6.577004E-17	2.234431E-17
2.020122E+03	6.402731E-17	2.173456E-17
2.059732E+03	6.197962E-17	2.102193E-17
2.099342E+03	6.006291E-17	2.035443E-17
2.138953E+03	5.874369E-17	1.988995E-17
2.178563E+03	5.827645E-17	1.971406E-17
2.218173E+03	5.857524E-17	1.979694E-17
2.257783E+03	5.929171E-17	2.002024E-17
2.297394E+03	6.000633E-17	2.024202E-17
2.337004E+03	6.041203E-17	2.035878E-17
2.376614E+03	6.033052E-17	2.031078E-17
2.416224E+03	5.969998E-17	2.007774E-17
2.455835E+03	5.854171E-17	1.966739E-17
2.495445E+03	5.690261E-17	1.909604E-17
2.535055E+03	5.485380E-17	1.838811E-17
2.574665E+03	5.246725E-17	1.756818E-17
2.614276E+03	4.981648E-17	1.666129E-17
2.653886E+03	4.696577E-17	1.568928E-17
2.693496E+03	4.397614E-17	1.467281E-17
2.733106E+03	4.090321E-17	1.363065E-17
2.772716E+03	3.779750E-17	1.257979E-17
2.812327E+03	3.470555E-17	1.153583E-17
2.851937E+03	3.167094E-17	1.051329E-17
2.891547E+03	2.873252E-17	9.525048E-18
2.931157E+03	2.592438E-17	8.582333E-18
2.970768E+03	2.327369E-17	7.694023E-18
2.980670E+03	2.263869E-17	7.481446E-18
2.990573E+03	2.201450E-17	7.272574E-18
3.000475E+03	2.140222E-17	7.067773E-18
3.010378E+03	2.080142E-17	6.866895E-18
3.020280E+03	2.021262E-17	6.670106E-18
3.030183E+03	1.963626E-17	6.477553E-18
3.040086E+03	1.907172E-17	6.289023E-18
3.049988E+03	1.852093E-17	6.105155E-18
3.059891E+03	1.798371E-17	5.925879E-18
3.069793E+03	1.746037E-17	5.751299E-18
3.079696E+03	1.695018E-17	5.581167E-18
3.089598E+03	1.645284E-17	5.415379E-18
3.099501E+03	1.596872E-17	5.254056E-18
3.109403E+03	1.549699E-17	5.096919E-18
3.119306E+03	1.503836E-17	4.944197E-18
3.129209E+03	1.459181E-17	4.795550E-18
3.139111E+03	1.415802E-17	4.651203E-18
3.149014E+03	1.373634E-17	4.510933E-18
3.158916E+03	1.332715E-17	4.374864E-18
3.168819E+03	1.293007E-17	4.242865E-18
3.178721E+03	1.254521E-17	4.114967E-18
3.188624E+03	1.217243E-17	3.991126E-18
3.198526E+03	1.181162E-17	3.871294E-18
3.208429E+03	1.146247E-17	3.755370E-18
3.218332E+03	1.112523E-17	3.643432E-18
3.228234E+03	1.079958E-17	3.535368E-18
3.238137E+03	1.048553E-17	3.431181E-18
3.248039E+03	1.018274E-17	3.330754E-18
3.257942E+03	9.891035E-18	3.234026E-18
3.267844E+03	9.610370E-18	3.140979E-18
3.277747E+03	9.340374E-18	3.051486E-18
3.287650E+03	9.080973E-18	2.965521E-18
3.297552E+03	8.831912E-18	2.882996E-18
3.307455E+03	8.592710E-18	2.803750E-18
3.317357E+03	8.363365E-18	2.727780E-18
3.327260E+03	8.143507E-18	2.654960E-18
3.337162E+03	7.932897E-18	2.585210E-18
3.347065E+03	7.731276E-18	2.518442E-18
3.356967E+03	7.538192E-18	2.454505E-18
3.366870E+03	7.353615E-18	2.393385E-18
3.376773E+03	7.177198E-18	2.334968E-18
3.386675E+03	7.008604E-18	2.279140E-18
3.396578E+03	6.847604E-18	2.225824E-18
3.406480E+03	6.693979E-18	2.174946E-18
3.416383E+03	6.547338E-18	2.126376E-18
3.426285E+03	6.407555E-18	2.080070E-18
3.436188E+03	6.274273E-18	2.035910E-18
3.446090E+03	6.147307E-18	1.993833E-18
3.455993E+03	6.026404E-18	1.953755E-18
3.465896E+03	5.911325E-18	1.915595E-18
3.475798E+03	5.801847E-18	1.879280E-18
3.485701E+03	5.697757E-18	1.844738E-18
3.495603E+03	5.598793E-18	1.811883E-18
3.505506E+03	5.504711E-18	1.780632E-18
3.515408E+03	5.415340E-18	1.750929E-18
3.525311E+03	5.330463E-18	1.722702E-18
3.535213E+03	5.249928E-18	1.695900E-18
3.545116E+03	5.173485E-18	1.670440E-18
3.555019E+03	5.101006E-18	1.646280E-18
3.564921E+03	5.032314E-18	1.623360E-18
3.574824E+03	4.967344E-18	1.601658E-18
3.584726E+03	4.905884E-18	1.581105E-18
3.594629E+03	4.847831E-18	1.561665E-18
3.604531E+03	4.792948E-18	1.543261E-18
3.614434E+03	4.741148E-18	1.525863E-18
3.624337E+03	4.692304E-18	1.509429E-18
3.634239E+03	4.646293E-18	1.493919E-18
3.644142E+03	4.603043E-18	1.479308E-18
3.654044E+03	4.562481E-18	1.465572E-18
3.663947E+03	4.524496E-18	1.452673E-18
3.673849E+03	4.489061E-18	1.440602E-18
3.683752E+03	4.456066E-18	1.429322E-18
3.693654E+03	4.425525E-18	1.418838E-18
3.703557E+03	4.397367E-18	1.409124E-18
3.713460E+03	4.371526E-18	1.400159E-18
3.723362E+03	4.347970E-18	1.391932E-18
3.733265E+03	4.326706E-18	1.384444E-18
3.743167E+03	4.307666E-18	1.377671E-18
3.753070E+03	4.290854E-18	1.371614E-18
3.762972E+03	4.276203E-18	1.366252E-18
3.772875E+03	4.263684E-18	1.361573E-18
3.782777E+03	4.253305E-18	1.357579E-18
3.792680E+03	4.245071E-18	1.354271E-18
3.802583E+03	4.238919E-18	1.351627E-18
3.812485E+03	4.234891E-18	1.349661E-18
3.822388E+03	4.232891E-18	1.348340E-18
3.832290E+03	4.232995E-18	1.347688E-18
3.842193E+03	4.235107E-18	1.347672E-18
3.852095E+03	4.239303E-18	1.348317E-18
3.861998E+03	4.245517E-18	1.349601E-18
3.871900E+03	4.253758E-18	1.351524E-18
3.881803E+03	4.263994E-18	1.354077E-18
3.891706E+03	4.276231E-18	1.357259E-18
3.901608E+03	4.290436E-18	1.361061E-18
3.911511E+03	4.306650E-18	1.365492E-18
3.921413E+03	4.324806E-18	1.370532E-18
3.931316E+03	4.344908E-18	1.376181E-18
3.941218E+03	4.366924E-18	1.382427E-18
3.951121E+03	4.390893E-18	1.389282E-18
3.961024E+03	4.416783E-18	1.396735E-18
3.970926E+03	4.444561E-18	1.404774E-18
3.980829E+03	4.474195E-18	1.413389E-18
3.990731E+03	4.505726E-18	1.422591E-18
4.000634E+03	4.539086E-18	1.432358E-18
4.010536E+03	4.574315E-18	1.442701E-18
4.020439E+03	4.611349E-18	1.453600E-18
4.030341E+03	4.650195E-18	1.465055E-18
4.040244E+03	4.690860E-18	1.477069E-18
4.050147E+03	4.733318E-18	1.489631E-18
4.060049E+03	4.777543E-18	1.502733E-18
4.069952E+03	4.823509E-18	1.516366E-18
4.079854E+03	4.871266E-18	1.530544E-18
4.089757E+03	4.920750E-18	1.545247E-18
4.099659E+03	4.971974E-18	1.560477E-18
4.109562E+03	5.024877E-18	1.576214E-18
4.119464E+03	5.079468E-18	1.592461E-18
4.129367E+03	5.135767E-18	1.609223E-18
4.139270E+03	5.193706E-18	1.626477E-18
4.149172E+03	5.253303E-18	1.644229E-18
4.159075E+03	5.314491E-18	1.662456E-18
4.168977E+03	5.377287E-18	1.681164E-18
4.178880E+03	5.441625E-18	1.700330E-18
4.188782E+03	5.507523E-18	1.719959E-18
4.198685E+03	5.574911E-18	1.740028E-18
4.208587E+03	5.643763E-18	1.760530E-18
4.218490E+03	5.714007E-18	1.781440E-18
4.228393E+03	5.785657E-18	1.802762E-18
4.238295E+03	5.858640E-18	1.824472E-18
4.248198E+03	5.932920E-18	1.846560E-18
4.258100E+03	6.008415E-18	1.868998E-18
4.268003E+03	6.085037E-18	1.891758E-18
4.277905E+03	6.162740E-18	1.914826E-18
4.287808E+03	6.241475E-18	1.938185E-18
4.297711E+03	6.321138E-18	1.961804E-18
4.307613E+03	6.401671E-18	1.985663E-18
4.317516E+03	6.482958E-18	2.009727E-18
4.327418E+03	6.564984E-18	2.033989E-18
4.337321E+03	6.647676E-18	2.058427E-18
4.347223E+03	6.731121E-18	2.083068E-18
4.357126E+03	6.815248E-18	2.107889E-18
4.367028E+03	6.900089E-18	2.132900E-18
4.376931E+03	6.985627E-18	2.158095E-18
4.386834E+03	7.071960E-18	2.183504E-18
4.396736E+03	7.159013E-18	2.209104E-18
4.406639E+03	7.246786E-18	2.234894E-18
4.416541E+03	7.335309E-18	2.260883E-18
4.426444E+03	7.424600E-18	2.287076E-18
4.436346E+03	7.514640E-18	2.313468E-18
4.446249E+03	7.605366E-18	2.340037E-18
4.456151E+03	7.696847E-18	2.366806E-18
4.466054E+03	7.789005E-18	2.393749E-18
4.475957E+03	7.881850E-18	2.420870E-18
4.485859E+03	7.975375E-18	2.448166E-18
4.495762E+03	8.069446E-18	2.475596E-18
4.505664E+03	8.164135E-18	2.503180E-18
4.515567E+03	8.259371E-18	2.530898E-18
4.525469E+03	8.355160E-18	2.558750E-18
4.535372E+03	8.451366E-18	2.586695E-18
4.545274E+03	8.548084E-18	2.614761E-18
4.555177E+03	8.645166E-18	2.642904E-18
4.565080E+03	8.742723E-18	2.671155E-18
4.574982E+03	8.840615E-18	2.699474E-18
4.584885E+03	8.938886E-18	2.727871E-18
4.594787E+03	9.037475E-18	2.756330E-18
4.604690E+03	9.136515E-18	2.784890E-18
4.614592E+03	9.235895E-18	2.813517E-18
4.624495E+03	9.335753E-18	2.842252E-18
4.634398E+03	9.436061E-18	2.871088E-18
4.644300E+03	9.536802E-18	2.900018E-18
4.654203E+03	9.638148E-18	2.929095E-18
4.664105E+03	9.739987E-18	2.958284E-18
4.674008E+03	9.842423E-18	2.987616E-18
4.683910E+03	9.945351E-18	3.017059E-18
4.693813E+03	1.004889E-17	3.046650E-18
4.703715E+03	1.015285E-17	3.076329E-18
4.713618E+03	1.025734E-17	3.106131E-18
4.723521E+03	1.036229E-17	3.136031E-18
4.733423E+03	1.046779E-17	3.166061E-18
4.743326E+03	1.057377E-17	3.196195E-18
4.753228E+03	1.068025E-17	3.226440E-18
4.763131E+03	1.078722E-17	3.256792E-18
4.773033E+03	1.089470E-17	3.287258E-18
4.782936E+03	1.100268E-17	3.317838E-18
4.792838E+03	1.111108E-17	3.348501E-18
4.802741E+03	1.122001E-17	3.379281E-18
4.812644E+03	1.132946E-17	3.410180E-18
4.822546E+03	1.143936E-17	3.441170E-18
4.832449E+03	1.154968E-17	3.472248E-18
4.842351E+03	1.166057E-17	3.503452E-18
4.852254E+03	1.177179E-17	3.534716E-18
4.862156E+03	1.188358E-17	3.566109E-18
4.872059E+03	1.199584E-17	3.597598E-18
4.881961E+03	1.210842E-17	3.629144E-18
4.891864E+03	1.222145E-17	3.660779E-18
4.901767E+03	1.233489E-17	3.692493E-18
4.911669E+03	1.244860E-17	3.724246E-18
4.921572E+03	1.256266E-17	3.756061E-18
4.931474E+03	1.267677E-17	3.787846E-18
4.941377E+03	1.279112E-17	3.819661E-18
4.951279E+03	1.290552E-17	3.851447E-18
4.961182E+03	1.301976E-17	3.883139E-18
4.971085E+03	1.313387E-17	3.914749E-18
4.980987E+03	1.324762E-17	3.946209E-18
4.990890E+03	1.336089E-17	3.977484E-18
5.000792E+03	1.347356E-17	4.008535E-18
5.010695E+03	1.358548E-17	4.039319E-18
5.020597E+03	1.369637E-17	4.069754E-18
5.030500E+03	1.380618E-17	4.099829E-18
5.040402E+03	1.391462E-17	4.129451E-18
5.050305E+03	1.402149E-17	4.158568E-18
5.060208E+03	1.412647E-17	4.187080E-18
5.070110E+03	1.422949E-17	4.214974E-18
5.080013E+03	1.433008E-17	4.242110E-18
5.089915E+03	1.442833E-17	4.268511E-18
5.099818E+03	1.452376E-17	4.294045E-18
5.109720E+03	1.461633E-17	4.318694E-18
5.119623E+03	1.470572E-17	4.342367E-18
5.129525E+03	1.479157E-17	4.364963E-18
5.139428E+03	1.487386E-17	4.386472E-18
5.149331E+03	1.495222E-17	4.406795E-18
5.159233E+03	1.502648E-17	4.425879E-18
5.169136E+03	1.509643E-17	4.443662E-18
5.179038E+03	1.516171E-17	4.460048E-18
5.188941E+03	1.522211E-17	4.474971E-18
5.198843E+03	1.527727E-17	4.488335E-18
5.208746E+03	1.532713E-17	4.500116E-18
5.218648E+03	1.537130E-17	4.510211E-18
5.228551E+03	1.540956E-17	4.518556E-18
5.238454E+03	1.544169E-17	4.525088E-18
5.248356E+03	1.546731E-17	4.529701E-18
5.258259E+03	1.548620E-17	4.532334E-18
5.268161E+03	1.549814E-17	4.532928E-18
5.278064E+03	1.550295E-17	4.531432E-18
5.287966E+03	1.550028E-17	4.527750E-18
5.297869E+03	1.549014E-17	4.521887E-18
5.307772E+03	1.547238E-17	4.513806E-18
5.317674E+03	1.544693E-17	4.503489E-18
5.327577E+03	1.541357E-17	4.490875E-18
5.337479E+03	1.537261E-17	4.476063E-18
5.347382E+03	1.532394E-17	4.459023E-18
5.357284E+03	1.526800E-17	4.439886E-18
5.367187E+03	1.520480E-17	4.418662E-18
5.377089E+03	1.513474E-17	4.395470E-18
5.386992E+03	1.505814E-17	4.370404E-18
5.396895E+03	1.497566E-17	4.343666E-18
5.406797E+03	1.488761E-17	4.315342E-18
5.416700E+03	1.479433E-17	4.285539E-18
5.426602E+03	1.469610E-17	4.254339E-18
5.436505E+03	1.459355E-17	4.221927E-18
5.446407E+03	1.448706E-17	4.188416E-18
5.456310E+03	1.437720E-17	4.153974E-18
5.466212E+03	1.426461E-17	4.118785E-18
5.476115E+03	1.414991E-17	4.083031E-18
5.486018E+03	1.403377E-17	4.046907E-18
5.495920E+03	1.391701E-17	4.010649E-18
5.505823E+03	1.380029E-17	3.974448E-18
5.515725E+03	1.368456E-17	3.938578E-18
5.525628E+03	1.357034E-17	3.903186E-18
5.535530E+03	1.345865E-17	3.868568E-18
5.545433E+03	1.334996E-17	3.834855E-18
5.555335E+03	1.324508E-17	3.802282E-18
5.565238E+03	1.314478E-17	3.771060E-18
5.575141E+03	1.304934E-17	3.741274E-18
5.585043E+03	1.295966E-17	3.713176E-18
5.594946E+03	1.287603E-17	3.686850E-18
5.604848E+03	1.279869E-17	3.662352E-18
5.614751E+03	1.272830E-17	3.639879E-18
5.624653E+03	1.266484E-17	3.619414E-18
5.634556E+03	1.260862E-17	3.601044E-18
5.644459E+03	1.255986E-17	3.584828E-18
5.654361E+03	1.251866E-17	3.570787E-18
5.664264E+03	1.248500E-17	3.558920E-18
5.674166E+03	1.245892E-17	3.549224E-18
5.684069E+03	1.244049E-17	3.541725E-18
5.693971E+03	1.242983E-17	3.536447E-18
5.703874E+03	1.242663E-17	3.533298E-18
5.713776E+03	1.243128E-17	3.532385E-18
5.723679E+03	1.244350E-17	3.533626E-18
5.733582E+03	1.246356E-17	3.537095E-18
5.743484E+03	1.249141E-17	3.542770E-18
5.753387E+03	1.252721E-17	3.550696E-18
5.763289E+03	1.257106E-17	3.560895E-18
5.773192E+03	1.262319E-17	3.573427E-18
5.783094E+03	1.268355E-17	3.588278E-18
5.792997E+03	1.275227E-17	3.605477E-18
5.802899E+03	1.282956E-17	3.625084E-18
5.812802E+03	1.291569E-17	3.647165E-18
5.822705E+03	1.301049E-17	3.671671E-18
5.832607E+03	1.311432E-17	3.698699E-18
5.842510E+03	1.322717E-17	3.728240E-18
5.852412E+03	1.334925E-17	3.760352E-18
5.862315E+03	1.348065E-17	3.795056E-18
5.872217E+03	1.362131E-17	3.832328E-18
5.882120E+03	1.377141E-17	3.872219E-18
5.892022E+03	1.393099E-17	3.914730E-18
5.901925E+03	1.409989E-17	3.959816E-18
5.911828E+03	1.427842E-17	4.007559E-18
5.921730E+03	1.446619E-17	4.057845E-18
5.931633E+03	1.466330E-17	4.110699E-18
5.941535E+03	1.486961E-17	4.166078E-18
5.951438E+03	1.508481E-17	4.223891E-18
5.961340E+03	1.530888E-17	4.284127E-18
5.971243E+03	1.554121E-17	4.346616E-18
5.981146E+03	1.578189E-17	4.411375E-18
5.991048E+03	1.603019E-17	4.478202E-18
6.000951E+03	1.628593E-17	4.547042E-18
6.010853E+03	1.654844E-17	4.617704E-18
6.020756E+03	1.681722E-17	4.690050E-18
6.030658E+03	1.709149E-17	4.763858E-18
6.040561E+03	1.737038E-17	4.838887E-18
6.050463E+03	1.765340E-17	4.914995E-18
6.060366E+03	1.793910E-17	4.991785E-18
6.070269E+03	1.822684E-17	5.069072E-18
6.080171E+03	1.851526E-17	5.146482E-18
6.090074E+03	1.880337E-17	5.223740E-18
6.099976E+03	1.908922E-17	5.300306E-18
6.109879E+03	1.937199E-17	5.375959E-18
6.119781E+03	1.964993E-17	5.450212E-18
6.129684E+03	1.992182E-17	5.522730E-18
6.139586E+03	2.018632E-17	5.593148E-18
6.149489E+03	2.044329E-17	5.661433E-18
6.159392E+03	2.069304E-17	5.727674E-18
6.169294E+03	2.093604E-17	5.792006E-18
6.179197E+03	2.117290E-17	5.854599E-18
6.189099E+03	2.140351E-17	5.915432E-18
6.199002E+03	2.162920E-17	5.974876E-18
6.208904E+03	2.184973E-17	6.032863E-18
6.218807E+03	2.206596E-17	6.089639E-18
6.228709E+03	2.227859E-17	6.145398E-18
6.238612E+03	2.248740E-17	6.200085E-18
6.248515E+03	2.269312E-17	6.253898E-18
6.258417E+03	2.289617E-17	6.306959E-18
6.268320E+03	2.309700E-17	6.359393E-18
6.278222E+03	2.329544E-17	6.411155E-18
6.288125E+03	2.349197E-17	6.462374E-18
6.298027E+03	2.368673E-17	6.513095E-18
6.307930E+03	2.387990E-17	6.563365E-18
6.317833E+03	2.407128E-17	6.613135E-18
6.327735E+03	2.426071E-17	6.662359E-18
6.337638E+03	2.444799E-17	6.710981E-18
6.347540E+03	2.463324E-17	6.759040E-18
6.357443E+03	2.481626E-17	6.806480E-18
6.367345E+03	2.499607E-17	6.853035E-18
6.377248E+03	2.517388E-17	6.899034E-18
6.387150E+03	2.534981E-17	6.944515E-18
6.397053E+03	2.552434E-17	6.989612E-18
6.406956E+03	2.569839E-17	7.034573E-18
6.416858E+03	2.587175E-17	7.079343E-18
6.426761E+03	2.604532E-17	7.124171E-18
6.436663E+03	2.621930E-17	7.169109E-18
6.446566E+03	2.639422E-17	7.214305E-18
6.456468E+03	2.656946E-17	7.259588E-18
6.466371E+03	2.674637E-17	7.305330E-18
6.476273E+03	2.692430E-17	7.351348E-18
6.486176E+03	2.710380E-17	7.397797E-18
6.496079E+03	2.728501E-17	7.444714E-18
6.505981E+03	2.746764E-17	7.492021E-18
6.515884E+03	2.765225E-17	7.539868E-18
6.525786E+03	2.783897E-17	7.588294E-18
6.535689E+03	2.802750E-17	7.637212E-18
6.545591E+03	2.821793E-17	7.686653E-18
6.555494E+03	2.841039E-17	7.736650E-18
6.565396E+03	2.860545E-17	7.787357E-18
6.575299E+03	2.880228E-17	7.838548E-18
6.585202E+03	2.900142E-17	7.890373E-18
6.595104E+03	2.920296E-17	7.942854E-18
6.605007E+03	2.940647E-17	7.995874E-18
6.614909E+03	2.961248E-17	8.049579E-18
6.624812E+03	2.982054E-17	8.103847E-18
6.634714E+03	3.003118E-17	8.158821E-18
6.644617E+03	3.024340E-17	8.214230E-18
6.654520E+03	3.045773E-17	8.270218E-18
6.664422E+03	3.067471E-17	8.326933E-18
6.674325E+03	3.089331E-17	8.384096E-18
6.684227E+03	3.111409E-17	8.441856E-18
6.694130E+03	3.133652E-17	8.500072E-18
6.704032E+03	3.156116E-17	8.558899E-18
6.713935E+03	3.178751E-17	8.618196E-18
6.723837E+03	3.201559E-17	8.677973E-18
6.733740E+03	3.224600E-17	8.738394E-18
6.743643E+03	3.247762E-17	8.799156E-18
6.753545E+03	3.271166E-17	8.860583E-18
6.763448E+03	3.294697E-17	8.922368E-18
6.773350E+03	3.318474E-17	8.984834E-18
6.783253E+03	3.342378E-17	9.047660E-18
6.793155E+03	3.366406E-17	9.110836E-18
6.803058E+03	3.390617E-17	9.174522E-18
6.812960E+03	3.415004E-17	9.238706E-18
6.822863E+03	3.439434E-17	9.303023E-18
6.832766E+03	3.464023E-17	9.367791E-18
6.842668E+03	3.488696E-17	9.432804E-18
6.852571E+03	3.513504E-17	9.498207E-18
6.862473E+03	3.538300E-17	9.563600E-18
6.872376E+03	3.563133E-17	9.629116E-18
6.882278E+03	3.587984E-17	9.694708E-18
6.892181E+03	3.612766E-17	9.760140E-18
6.902083E+03	3.637528E-17	9.825547E-18
6.911986E+03	3.662250E-17	9.890875E-18
6.921889E+03	3.686844E-17	9.955886E-18
6.931791E+03	3.711287E-17	1.002053E-17
6.941694E+03	3.735562E-17	1.008474E-17
6.951596E+03	3.759724E-17	1.014869E-17
6.961499E+03	3.783611E-17	1.021194E-17
6.971401E+03	3.807354E-17	1.027483E-17
6.981304E+03	3.830793E-17	1.033695E-17
6.991207E+03	3.853991E-17	1.039845E-17
7.001109E+03	3.876860E-17	1.045912E-17
7.011012E+03	3.899469E-17	1.051912E-17
7.020914E+03	3.921814E-17	1.057846E-17
7.030817E+03	3.943810E-17	1.063691E-17
7.040719E+03	3.965376E-17	1.069425E-17
7.050622E+03	3.986671E-17	1.075091E-17
7.060524E+03	4.007614E-17	1.080667E-17
7.070427E+03	4.028208E-17	1.086155E-17
7.080330E+03	4.048457E-17	1.091556E-17
7.090232E+03	4.068285E-17	1.096849E-17
7.100135E+03	4.087778E-17	1.102058E-17
7.110037E+03	4.106862E-17	1.107162E-17
7.119940E+03	4.125543E-17	1.112165E-17
7.129842E+03	4.143919E-17	1.117092E-17
7.139745E+03	4.161915E-17	1.121923E-17
7.149647E+03	4.179627E-17	1.126684E-17
7.159550E+03	4.196891E-17	1.131332E-17
7.169453E+03	4.213803E-17	1.135892E-17
7.179355E+03	4.230370E-17	1.140366E-17
7.189258E+03	4.246593E-17	1.144755E-17
7.199160E+03	4.262476E-17	1.149061E-17
7.209063E+03	4.278014E-17	1.153281E-17
7.218965E+03	4.293111E-17	1.157390E-17
7.228868E+03	4.307846E-17	1.161410E-17
7.238770E+03	4.322210E-17	1.165338E-17
7.248673E+03	4.336190E-17	1.169172E-17
7.258576E+03	4.349676E-17	1.172880E-17
7.268478E+03	4.362749E-17	1.176486E-17
7.278381E+03	4.375491E-17	1.180012E-17
7.288283E+03	4.387697E-17	1.183403E-17
7.298186E+03	4.399452E-17	1.186681E-17
7.308088E+03	4.410745E-17	1.189844E-17
7.317991E+03	4.421667E-17	1.192916E-17
7.327894E+03	4.432115E-17	1.195870E-17
7.337796E+03	4.442186E-17	1.198732E-17
7.347699E+03	4.451983E-17	1.201530E-17
7.357601E+03	4.461413E-17	1.204239E-17
7.367504E+03	4.470690E-17	1.206918E-17
7.377406E+03	4.479628E-17	1.209515E-17
7.387309E+03	4.488348E-17	1.212063E-17
7.397211E+03	4.496771E-17	1.214543E-17
7.407114E+03	4.505026E-17	1.216987E-17
7.417017E+03	4.512932E-17	1.219348E-17
7.426919E+03	4.520618E-17	1.221661E-17
7.436822E+03	4.528108E-17	1.223932E-17
7.446724E+03	4.535316E-17	1.226139E-17
7.456627E+03	4.542469E-17	1.228341E-17
7.466529E+03	4.549367E-17	1.230487E-17
7.476432E+03	4.556129E-17	1.232607E-17
7.486334E+03	4.562659E-17	1.234675E-17
7.496237E+03	4.569076E-17	1.236724E-17
7.506140E+03	4.575283E-17	1.238728E-17
7.516042E+03	4.581402E-17	1.240719E-17
7.525945E+03	4.587336E-17	1.242670E-17
7.535847E+03	4.593094E-17	1.244585E-17
7.545750E+03	4.598793E-17	1.246494E-17
7.555652E+03	4.604330E-17	1.248370E-17
7.565555E+03	4.609704E-17	1.250212E-17
7.575457E+03	4.615027E-17	1.252050E-17
7.585360E+03	4.620181E-17	1.253853E-17
7.595263E+03	4.625273E-17	1.255649E-17
7.605165E+03	4.630066E-17	1.257374E-17
7.615068E+03	4.634774E-17	1.259086E-17
7.624970E+03	4.639383E-17	1.260780E-17
7.634873E+03	4.643767E-17	1.262423E-17
7.644775E+03	4.648023E-17	1.264041E-17
7.654678E+03	4.652022E-17	1.265597E-17
7.664581E+03	4.655746E-17	1.267088E-17
7.674483E+03	4.659292E-17	1.268540E-17
7.684386E+03	4.662645E-17	1.269948E-17
