#wls	flux	fluxerr
1.584409E+03	7.068250E-17	1.247520E-17
1.624020E+03	7.357870E-17	1.298625E-17
1.663630E+03	7.623916E-17	1.345569E-17
1.703240E+03	7.860368E-17	1.387288E-17
1.742850E+03	8.063936E-17	1.423202E-17
1.782461E+03	8.225469E-17	1.451696E-17
1.822071E+03	8.335207E-17	1.471047E-17
1.861681E+03	8.383708E-17	1.479590E-17
1.901291E+03	8.358605E-17	1.475142E-17
1.940902E+03	8.252001E-17	1.456311E-17
1.980512E+03	8.061860E-17	1.422736E-17
2.020122E+03	7.801832E-17	1.376829E-17
2.059732E+03	7.504611E-17	1.324358E-17
2.099342E+03	7.223663E-17	1.274760E-17
2.138953E+03	7.014705E-17	1.237866E-17
2.178563E+03	6.906610E-17	1.218772E-17
2.218173E+03	6.887155E-17	1.215319E-17
2.257783E+03	6.913652E-17	1.219973E-17
2.297394E+03	6.936472E-17	1.223978E-17
2.337004E+03	6.920530E-17	1.221143E-17
2.376614E+03	6.846701E-17	1.208092E-17
2.416224E+03	6.709802E-17	1.183913E-17
2.455835E+03	6.514259E-17	1.149387E-17
2.495445E+03	6.267282E-17	1.105786E-17
2.535055E+03	5.978548E-17	1.054819E-17
2.574665E+03	5.657517E-17	9.981554E-18
2.614276E+03	5.313456E-17	9.374303E-18
2.653886E+03	4.954297E-17	8.740439E-18
2.693496E+03	4.587285E-17	8.092745E-18
2.733106E+03	4.218781E-17	7.442444E-18
2.772716E+03	3.854324E-17	6.799312E-18
2.812327E+03	3.498788E-17	6.171945E-18
2.851937E+03	3.156519E-17	5.568012E-18
2.891547E+03	2.831198E-17	4.994004E-18
2.931157E+03	2.525886E-17	4.455318E-18
2.970768E+03	2.242853E-17	3.955959E-18
2.980670E+03	2.175822E-17	3.837698E-18
2.990573E+03	2.110241E-17	3.721996E-18
3.000475E+03	2.046208E-17	3.609026E-18
3.010378E+03	1.983674E-17	3.498700E-18
3.020280E+03	1.922678E-17	3.391091E-18
3.030183E+03	1.863255E-17	3.286255E-18
3.040086E+03	1.805334E-17	3.184072E-18
3.049988E+03	1.749089E-17	3.084846E-18
3.059891E+03	1.694492E-17	2.988527E-18
3.069793E+03	1.641560E-17	2.895146E-18
3.079696E+03	1.590208E-17	2.804555E-18
3.089598E+03	1.540396E-17	2.716680E-18
3.099501E+03	1.492142E-17	2.631555E-18
3.109403E+03	1.445349E-17	2.549007E-18
3.119306E+03	1.400064E-17	2.469119E-18
3.129209E+03	1.356170E-17	2.391686E-18
3.139111E+03	1.313713E-17	2.316789E-18
3.149014E+03	1.272611E-17	2.244283E-18
3.158916E+03	1.232881E-17	2.174197E-18
3.168819E+03	1.194469E-17	2.106438E-18
3.178721E+03	1.157368E-17	2.040991E-18
3.188624E+03	1.121548E-17	1.977804E-18
3.198526E+03	1.086979E-17	1.916824E-18
3.208429E+03	1.053617E-17	1.857973E-18
3.218332E+03	1.021467E-17	1.801262E-18
3.228234E+03	9.904860E-18	1.746612E-18
3.238137E+03	9.606611E-18	1.694002E-18
3.248039E+03	9.319487E-18	1.643355E-18
3.257942E+03	9.043223E-18	1.594623E-18
3.267844E+03	8.777677E-18	1.547782E-18
3.277747E+03	8.522448E-18	1.502762E-18
3.287650E+03	8.277397E-18	1.459537E-18
3.297552E+03	8.042229E-18	1.418055E-18
3.307455E+03	7.816464E-18	1.378232E-18
3.317357E+03	7.600061E-18	1.340061E-18
3.327260E+03	7.392638E-18	1.303473E-18
3.337162E+03	7.193957E-18	1.268428E-18
3.347065E+03	7.003745E-18	1.234876E-18
3.356967E+03	6.821577E-18	1.202744E-18
3.366870E+03	6.647406E-18	1.172022E-18
3.376773E+03	6.480898E-18	1.142652E-18
3.386675E+03	6.321738E-18	1.114577E-18
3.396578E+03	6.169708E-18	1.087761E-18
3.406480E+03	6.024595E-18	1.062164E-18
3.416383E+03	5.886039E-18	1.037724E-18
3.426285E+03	5.753920E-18	1.014419E-18
3.436188E+03	5.627904E-18	9.921911E-19
3.446090E+03	5.507813E-18	9.710077E-19
3.455993E+03	5.393408E-18	9.508273E-19
3.465896E+03	5.284463E-18	9.316098E-19
3.475798E+03	5.180764E-18	9.133173E-19
3.485701E+03	5.082103E-18	8.959136E-19
3.495603E+03	4.988234E-18	8.793548E-19
3.505506E+03	4.898922E-18	8.635997E-19
3.515408E+03	4.814000E-18	8.486188E-19
3.525311E+03	4.733261E-18	8.343755E-19
3.535213E+03	4.656555E-18	8.208435E-19
3.545116E+03	4.583647E-18	8.079812E-19
3.555019E+03	4.514409E-18	7.957662E-19
3.564921E+03	4.448675E-18	7.841691E-19
3.574824E+03	4.386375E-18	7.731773E-19
3.584726E+03	4.327309E-18	7.627560E-19
3.594629E+03	4.271377E-18	7.528871E-19
3.604531E+03	4.218356E-18	7.435316E-19
3.614434E+03	4.168160E-18	7.346742E-19
3.624337E+03	4.120666E-18	7.262932E-19
3.634239E+03	4.075756E-18	7.183678E-19
3.644142E+03	4.033354E-18	7.108846E-19
3.654044E+03	3.993387E-18	7.038308E-19
3.663947E+03	3.955748E-18	6.971873E-19
3.673849E+03	3.920402E-18	6.909481E-19
3.683752E+03	3.887247E-18	6.850951E-19
3.693654E+03	3.856285E-18	6.796288E-19
3.703557E+03	3.827448E-18	6.745370E-19
3.713460E+03	3.800670E-18	6.698081E-19
3.723362E+03	3.775918E-18	6.654365E-19
3.733265E+03	3.753193E-18	6.614220E-19
3.743167E+03	3.732428E-18	6.577529E-19
3.753070E+03	3.713621E-18	6.544290E-19
3.762972E+03	3.696707E-18	6.514387E-19
3.772875E+03	3.681652E-18	6.487760E-19
3.782777E+03	3.668454E-18	6.464406E-19
3.792680E+03	3.657110E-18	6.444318E-19
3.802583E+03	3.647555E-18	6.427384E-19
3.812485E+03	3.639815E-18	6.413648E-19
3.822388E+03	3.633799E-18	6.402947E-19
3.832290E+03	3.629560E-18	6.395380E-19
3.842193E+03	3.627008E-18	6.390784E-19
3.852095E+03	3.626198E-18	6.389256E-19
3.861998E+03	3.627068E-18	6.390688E-19
3.871900E+03	3.629616E-18	6.395075E-19
3.881803E+03	3.633809E-18	6.402359E-19
3.891706E+03	3.639645E-18	6.412538E-19
3.901608E+03	3.647094E-18	6.425558E-19
3.911511E+03	3.656182E-18	6.441465E-19
3.921413E+03	3.666852E-18	6.460156E-19
3.931316E+03	3.679102E-18	6.481631E-19
3.941218E+03	3.692903E-18	6.505836E-19
3.951121E+03	3.708285E-18	6.532825E-19
3.961024E+03	3.725219E-18	6.562546E-19
3.970926E+03	3.743678E-18	6.594952E-19
3.980829E+03	3.763634E-18	6.629994E-19
3.990731E+03	3.785119E-18	6.667727E-19
4.000634E+03	3.808076E-18	6.708052E-19
4.010536E+03	3.832540E-18	6.751027E-19
4.020439E+03	3.858453E-18	6.796555E-19
4.030341E+03	3.885821E-18	6.844641E-19
4.040244E+03	3.914649E-18	6.895296E-19
4.050147E+03	3.944911E-18	6.948475E-19
4.060049E+03	3.976582E-18	7.004135E-19
4.069952E+03	4.009639E-18	7.062231E-19
4.079854E+03	4.044118E-18	7.122829E-19
4.089757E+03	4.079963E-18	7.185831E-19
4.099659E+03	4.117183E-18	7.251249E-19
4.109562E+03	4.155720E-18	7.318986E-19
4.119464E+03	4.195581E-18	7.389051E-19
4.129367E+03	4.236775E-18	7.461458E-19
4.139270E+03	4.279244E-18	7.536108E-19
4.149172E+03	4.322994E-18	7.613011E-19
4.159075E+03	4.367966E-18	7.692061E-19
4.168977E+03	4.414168E-18	7.773274E-19
4.178880E+03	4.461538E-18	7.856538E-19
4.188782E+03	4.510081E-18	7.941864E-19
4.198685E+03	4.559732E-18	8.029138E-19
4.208587E+03	4.610462E-18	8.118306E-19
4.218490E+03	4.662200E-18	8.209245E-19
4.228393E+03	4.714949E-18	8.301960E-19
4.238295E+03	4.768637E-18	8.396323E-19
4.248198E+03	4.823227E-18	8.492268E-19
4.258100E+03	4.878639E-18	8.589658E-19
4.268003E+03	4.934793E-18	8.688348E-19
4.277905E+03	4.991645E-18	8.788261E-19
4.287808E+03	5.049146E-18	8.889312E-19
4.297711E+03	5.107206E-18	8.991342E-19
4.307613E+03	5.165773E-18	9.094260E-19
4.317516E+03	5.224751E-18	9.197893E-19
4.327418E+03	5.284122E-18	9.302216E-19
4.337321E+03	5.343830E-18	9.407124E-19
4.347223E+03	5.403944E-18	9.512742E-19
4.357126E+03	5.464409E-18	9.618972E-19
4.367028E+03	5.525256E-18	9.725869E-19
4.376931E+03	5.586475E-18	9.833414E-19
4.386834E+03	5.648150E-18	9.941755E-19
4.396736E+03	5.710230E-18	1.005080E-18
4.406639E+03	5.772709E-18	1.016055E-18
4.416541E+03	5.835634E-18	1.027107E-18
4.426444E+03	5.899004E-18	1.038237E-18
4.436346E+03	5.962820E-18	1.049445E-18
4.446249E+03	6.027038E-18	1.060723E-18
4.456151E+03	6.091711E-18	1.072080E-18
4.466054E+03	6.156793E-18	1.083509E-18
4.475957E+03	6.222295E-18	1.095011E-18
4.485859E+03	6.288226E-18	1.106588E-18
4.495762E+03	6.354489E-18	1.118222E-18
4.505664E+03	6.421151E-18	1.129926E-18
4.515567E+03	6.488172E-18	1.141692E-18
4.525469E+03	6.555568E-18	1.153524E-18
4.535372E+03	6.623245E-18	1.165404E-18
4.545274E+03	6.691278E-18	1.177347E-18
4.555177E+03	6.759575E-18	1.189334E-18
4.565080E+03	6.828218E-18	1.201382E-18
4.574982E+03	6.897115E-18	1.213474E-18
4.584885E+03	6.966293E-18	1.225615E-18
4.594787E+03	7.035727E-18	1.237800E-18
4.604690E+03	7.105506E-18	1.250044E-18
4.614592E+03	7.175556E-18	1.262336E-18
4.624495E+03	7.245970E-18	1.274691E-18
4.634398E+03	7.316737E-18	1.287106E-18
4.644300E+03	7.387832E-18	1.299579E-18
4.654203E+03	7.459382E-18	1.312131E-18
4.664105E+03	7.531302E-18	1.324748E-18
4.674008E+03	7.603662E-18	1.337440E-18
4.683910E+03	7.676369E-18	1.350193E-18
4.693813E+03	7.749501E-18	1.363020E-18
4.703715E+03	7.822895E-18	1.375891E-18
4.713618E+03	7.896628E-18	1.388822E-18
4.723521E+03	7.970607E-18	1.401795E-18
4.733423E+03	8.044903E-18	1.414822E-18
4.743326E+03	8.119443E-18	1.427892E-18
4.753228E+03	8.194212E-18	1.441000E-18
4.763131E+03	8.269203E-18	1.454147E-18
4.773033E+03	8.344414E-18	1.467332E-18
4.782936E+03	8.419838E-18	1.480552E-18
4.792838E+03	8.495387E-18	1.493794E-18
4.802741E+03	8.571126E-18	1.507068E-18
4.812644E+03	8.647044E-18	1.520373E-18
4.822546E+03	8.723064E-18	1.533694E-18
4.832449E+03	8.799156E-18	1.547027E-18
4.842351E+03	8.875402E-18	1.560386E-18
4.852254E+03	8.951611E-18	1.573737E-18
4.862156E+03	9.027930E-18	1.587107E-18
4.872059E+03	9.104258E-18	1.600477E-18
4.881961E+03	9.180486E-18	1.613828E-18
4.891864E+03	9.256671E-18	1.627171E-18
4.901767E+03	9.332781E-18	1.640499E-18
4.911669E+03	9.408701E-18	1.653792E-18
4.921572E+03	9.484479E-18	1.667060E-18
4.931474E+03	9.559891E-18	1.680262E-18
4.941377E+03	9.635086E-18	1.693424E-18
4.951279E+03	9.709911E-18	1.706521E-18
4.961182E+03	9.784221E-18	1.719525E-18
4.971085E+03	9.858062E-18	1.732446E-18
4.980987E+03	9.931276E-18	1.745256E-18
4.990890E+03	1.000379E-17	1.757940E-18
5.000792E+03	1.007554E-17	1.770491E-18
5.010695E+03	1.014645E-17	1.782892E-18
5.020597E+03	1.021635E-17	1.795114E-18
5.030500E+03	1.028525E-17	1.807159E-18
5.040402E+03	1.035297E-17	1.818996E-18
5.050305E+03	1.041941E-17	1.830607E-18
5.060208E+03	1.048439E-17	1.841959E-18
5.070110E+03	1.054791E-17	1.853054E-18
5.080013E+03	1.060965E-17	1.863836E-18
5.089915E+03	1.066974E-17	1.874325E-18
5.099818E+03	1.072783E-17	1.884463E-18
5.109720E+03	1.078395E-17	1.894254E-18
5.119623E+03	1.083788E-17	1.903658E-18
5.129525E+03	1.088940E-17	1.912637E-18
5.139428E+03	1.093849E-17	1.921189E-18
5.149331E+03	1.098493E-17	1.929276E-18
5.159233E+03	1.102863E-17	1.936879E-18
5.169136E+03	1.106947E-17	1.943979E-18
5.179038E+03	1.110723E-17	1.950537E-18
5.188941E+03	1.114181E-17	1.956536E-18
5.198843E+03	1.117299E-17	1.961936E-18
5.208746E+03	1.120079E-17	1.966741E-18
5.218648E+03	1.122500E-17	1.970917E-18
5.228551E+03	1.124555E-17	1.974447E-18
5.238454E+03	1.126235E-17	1.977321E-18
5.248356E+03	1.127524E-17	1.979506E-18
5.258259E+03	1.128415E-17	1.980991E-18
5.268161E+03	1.128905E-17	1.981772E-18
5.278064E+03	1.128991E-17	1.981843E-18
5.287966E+03	1.128660E-17	1.981181E-18
5.297869E+03	1.127922E-17	1.979806E-18
5.307772E+03	1.126781E-17	1.977721E-18
5.317674E+03	1.125238E-17	1.974931E-18
5.327577E+03	1.123289E-17	1.971429E-18
5.337479E+03	1.120963E-17	1.967263E-18
5.347382E+03	1.118256E-17	1.962429E-18
5.357284E+03	1.115201E-17	1.956986E-18
5.367187E+03	1.111800E-17	1.950934E-18
5.377089E+03	1.108078E-17	1.944320E-18
5.386992E+03	1.104051E-17	1.937168E-18
5.396895E+03	1.099756E-17	1.929548E-18
5.406797E+03	1.095203E-17	1.921475E-18
5.416700E+03	1.090399E-17	1.912963E-18
5.426602E+03	1.085345E-17	1.904011E-18
5.436505E+03	1.080063E-17	1.894660E-18
5.446407E+03	1.074556E-17	1.884914E-18
5.456310E+03	1.068837E-17	1.874796E-18
5.466212E+03	1.062921E-17	1.864335E-18
5.476115E+03	1.056824E-17	1.853556E-18
5.486018E+03	1.050563E-17	1.842489E-18
5.495920E+03	1.044164E-17	1.831181E-18
5.505823E+03	1.037646E-17	1.819664E-18
5.515725E+03	1.031042E-17	1.807998E-18
5.525628E+03	1.024362E-17	1.796198E-18
5.535530E+03	1.017651E-17	1.784345E-18
5.545433E+03	1.010914E-17	1.772447E-18
5.555335E+03	1.004185E-17	1.760564E-18
5.565238E+03	9.975000E-18	1.748757E-18
5.575141E+03	9.908585E-18	1.737029E-18
5.585043E+03	9.843141E-18	1.725470E-18
5.594946E+03	9.778761E-18	1.714099E-18
5.604848E+03	9.715536E-18	1.702931E-18
5.614751E+03	9.653932E-18	1.692048E-18
5.624653E+03	9.593923E-18	1.681445E-18
5.634556E+03	9.535752E-18	1.671164E-18
5.644459E+03	9.479661E-18	1.661249E-18
5.654361E+03	9.425760E-18	1.651717E-18
5.664264E+03	9.374179E-18	1.642593E-18
5.674166E+03	9.325013E-18	1.633892E-18
5.684069E+03	9.278445E-18	1.625646E-18
5.693971E+03	9.234660E-18	1.617889E-18
5.703874E+03	9.193535E-18	1.610598E-18
5.713776E+03	9.155419E-18	1.603834E-18
5.723679E+03	9.120183E-18	1.597575E-18
5.733582E+03	9.088063E-18	1.591862E-18
5.743484E+03	9.059005E-18	1.586685E-18
5.753387E+03	9.033147E-18	1.582069E-18
5.763289E+03	9.010504E-18	1.578016E-18
5.773192E+03	8.991207E-18	1.574548E-18
5.783094E+03	8.975178E-18	1.571653E-18
5.792997E+03	8.962437E-18	1.569333E-18
5.802899E+03	8.953079E-18	1.567606E-18
5.812802E+03	8.947215E-18	1.566489E-18
5.822705E+03	8.944646E-18	1.565949E-18
5.832607E+03	8.945572E-18	1.566021E-18
5.842510E+03	8.949885E-18	1.566685E-18
5.852412E+03	8.957672E-18	1.567956E-18
5.862315E+03	8.968916E-18	1.569831E-18
5.872217E+03	8.983500E-18	1.572291E-18
5.882120E+03	9.001504E-18	1.575348E-18
5.892022E+03	9.022895E-18	1.578997E-18
5.901925E+03	9.047541E-18	1.583215E-18
5.911828E+03	9.075598E-18	1.588028E-18
5.921730E+03	9.106827E-18	1.593395E-18
5.931633E+03	9.141277E-18	1.599324E-18
5.941535E+03	9.178901E-18	1.605808E-18
5.951438E+03	9.219527E-18	1.612815E-18
5.961340E+03	9.263197E-18	1.620353E-18
5.971243E+03	9.309634E-18	1.628374E-18
5.981146E+03	9.358971E-18	1.636900E-18
5.991048E+03	9.410907E-18	1.645879E-18
6.000951E+03	9.465469E-18	1.655316E-18
6.010853E+03	9.522454E-18	1.665174E-18
6.020756E+03	9.581766E-18	1.675438E-18
6.030658E+03	9.643197E-18	1.686070E-18
6.040561E+03	9.706503E-18	1.697028E-18
6.050463E+03	9.771712E-18	1.708316E-18
6.060366E+03	9.838338E-18	1.719850E-18
6.070269E+03	9.906391E-18	1.731632E-18
6.080171E+03	9.975491E-18	1.743594E-18
6.090074E+03	1.004551E-17	1.755715E-18
6.099976E+03	1.011583E-17	1.767885E-18
6.109879E+03	1.018641E-17	1.780100E-18
6.119781E+03	1.025674E-17	1.792268E-18
6.129684E+03	1.032653E-17	1.804339E-18
6.139586E+03	1.039536E-17	1.816240E-18
6.149489E+03	1.046332E-17	1.827987E-18
6.159392E+03	1.053065E-17	1.839622E-18
6.169294E+03	1.059764E-17	1.851195E-18
6.179197E+03	1.066455E-17	1.862752E-18
6.189099E+03	1.073131E-17	1.874280E-18
6.199002E+03	1.079851E-17	1.885883E-18
6.208904E+03	1.086594E-17	1.897523E-18
6.218807E+03	1.093399E-17	1.909269E-18
6.228709E+03	1.100288E-17	1.921161E-18
6.238612E+03	1.107247E-17	1.933170E-18
6.248515E+03	1.114301E-17	1.945344E-18
6.258417E+03	1.121464E-17	1.957707E-18
6.268320E+03	1.128753E-17	1.970286E-18
6.278222E+03	1.136153E-17	1.983056E-18
6.288125E+03	1.143681E-17	1.996047E-18
6.298027E+03	1.151339E-17	2.009262E-18
6.307930E+03	1.159130E-17	2.022706E-18
6.317833E+03	1.167039E-17	2.036355E-18
6.327735E+03	1.175053E-17	2.050182E-18
6.337638E+03	1.183157E-17	2.064164E-18
6.347540E+03	1.191353E-17	2.078303E-18
6.357443E+03	1.199624E-17	2.092572E-18
6.367345E+03	1.207920E-17	2.106881E-18
6.377248E+03	1.216293E-17	2.121321E-18
6.387150E+03	1.224746E-17	2.135895E-18
6.397053E+03	1.233296E-17	2.150638E-18
6.406956E+03	1.241985E-17	2.165619E-18
6.416858E+03	1.250797E-17	2.180813E-18
6.426761E+03	1.259774E-17	2.196290E-18
6.436663E+03	1.268919E-17	2.212058E-18
6.446566E+03	1.278259E-17	2.228160E-18
6.456468E+03	1.287758E-17	2.244538E-18
6.466371E+03	1.297481E-17	2.261303E-18
6.476273E+03	1.307396E-17	2.278397E-18
6.486176E+03	1.317525E-17	2.295863E-18
6.496079E+03	1.327876E-17	2.313710E-18
6.505981E+03	1.338433E-17	2.331913E-18
6.515884E+03	1.349223E-17	2.350519E-18
6.525786E+03	1.360251E-17	2.369536E-18
6.535689E+03	1.371503E-17	2.388937E-18
6.545591E+03	1.382983E-17	2.408732E-18
6.555494E+03	1.394694E-17	2.428926E-18
6.565396E+03	1.406667E-17	2.449570E-18
6.575299E+03	1.418861E-17	2.470595E-18
6.585202E+03	1.431301E-17	2.492046E-18
6.595104E+03	1.443995E-17	2.513933E-18
6.605007E+03	1.456922E-17	2.536221E-18
6.614909E+03	1.470111E-17	2.558962E-18
6.624812E+03	1.483543E-17	2.582119E-18
6.634714E+03	1.497246E-17	2.605744E-18
6.644617E+03	1.511174E-17	2.629755E-18
6.654520E+03	1.525354E-17	2.654200E-18
6.664422E+03	1.539820E-17	2.679137E-18
6.674325E+03	1.554520E-17	2.704477E-18
6.684227E+03	1.569485E-17	2.730272E-18
6.694130E+03	1.584690E-17	2.756479E-18
6.704032E+03	1.600168E-17	2.783154E-18
6.713935E+03	1.615891E-17	2.810251E-18
6.723837E+03	1.631862E-17	2.837774E-18
6.733740E+03	1.648115E-17	2.865779E-18
6.743643E+03	1.664590E-17	2.894167E-18
6.753545E+03	1.681351E-17	2.923044E-18
6.763448E+03	1.698338E-17	2.952310E-18
6.773350E+03	1.715614E-17	2.982071E-18
6.783253E+03	1.733120E-17	3.012224E-18
6.793155E+03	1.750855E-17	3.042770E-18
6.803058E+03	1.768850E-17	3.073762E-18
6.812960E+03	1.787110E-17	3.105206E-18
6.822863E+03	1.805565E-17	3.136984E-18
6.832766E+03	1.824283E-17	3.169212E-18
6.842668E+03	1.843231E-17	3.201832E-18
6.852571E+03	1.862442E-17	3.234901E-18
6.862473E+03	1.881845E-17	3.268297E-18
6.872376E+03	1.901473E-17	3.302078E-18
6.882278E+03	1.921328E-17	3.336244E-18
6.892181E+03	1.941367E-17	3.370724E-18
6.902083E+03	1.961628E-17	3.405581E-18
6.911986E+03	1.982108E-17	3.440810E-18
6.921889E+03	2.002767E-17	3.476343E-18
6.931791E+03	2.023602E-17	3.512174E-18
6.941694E+03	2.044608E-17	3.548295E-18
6.951596E+03	2.065824E-17	3.584772E-18
6.961499E+03	2.087166E-17	3.621458E-18
6.971401E+03	2.108712E-17	3.658492E-18
6.981304E+03	2.130376E-17	3.695722E-18
6.991207E+03	2.152196E-17	3.733214E-18
7.001109E+03	2.174126E-17	3.770889E-18
7.011012E+03	2.196203E-17	3.808813E-18
7.020914E+03	2.218427E-17	3.846982E-18
7.030817E+03	2.240749E-17	3.885312E-18
7.040719E+03	2.263117E-17	3.923715E-18
7.050622E+03	2.285620E-17	3.962343E-18
7.060524E+03	2.308207E-17	4.001107E-18
7.070427E+03	2.330874E-17	4.040004E-18
7.080330E+03	2.353617E-17	4.079023E-18
7.090232E+03	2.376384E-17	4.118074E-18
7.100135E+03	2.399216E-17	4.157231E-18
7.110037E+03	2.422061E-17	4.196402E-18
7.119940E+03	2.444913E-17	4.235576E-18
7.129842E+03	2.467817E-17	4.274832E-18
7.139745E+03	2.490718E-17	4.314073E-18
7.149647E+03	2.513662E-17	4.353382E-18
7.159550E+03	2.536539E-17	4.392565E-18
7.169453E+03	2.559394E-17	4.431703E-18
7.179355E+03	2.582222E-17	4.470785E-18
7.189258E+03	2.605018E-17	4.509804E-18
7.199160E+03	2.627776E-17	4.548747E-18
7.209063E+03	2.650489E-17	4.587605E-18
7.218965E+03	2.673095E-17	4.626271E-18
7.228868E+03	2.695644E-17	4.664829E-18
7.238770E+03	2.718131E-17	4.703270E-18
7.248673E+03	2.740549E-17	4.741585E-18
7.258576E+03	2.762835E-17	4.779663E-18
7.268478E+03	2.785040E-17	4.817595E-18
7.278381E+03	2.807223E-17	4.855479E-18
7.288283E+03	2.829256E-17	4.893096E-18
7.298186E+03	2.851197E-17	4.930546E-18
7.308088E+03	2.873040E-17	4.967819E-18
7.317991E+03	2.894849E-17	5.005025E-18
7.327894E+03	2.916556E-17	5.042047E-18
7.337796E+03	2.938224E-17	5.078994E-18
7.347699E+03	2.959921E-17	5.115983E-18
7.357601E+03	2.981581E-17	5.152902E-18
7.367504E+03	3.003343E-17	5.189989E-18
7.377406E+03	3.025072E-17	5.227012E-18
7.387309E+03	3.046842E-17	5.264098E-18
7.397211E+03	3.068585E-17	5.301131E-18
7.407114E+03	3.090376E-17	5.338238E-18
7.417017E+03	3.112073E-17	5.375177E-18
7.426919E+03	3.133751E-17	5.412074E-18
7.436822E+03	3.155410E-17	5.448933E-18
7.446724E+03	3.176978E-17	5.485627E-18
7.456627E+03	3.198604E-17	5.522414E-18
7.466529E+03	3.220139E-17	5.559036E-18
7.476432E+03	3.241656E-17	5.595621E-18
7.486334E+03	3.263077E-17	5.632035E-18
7.496237E+03	3.284478E-17	5.668406E-18
7.506140E+03	3.305778E-17	5.704595E-18
7.516042E+03	3.327048E-17	5.740728E-18
7.525945E+03	3.348206E-17	5.776661E-18
7.535847E+03	3.369245E-17	5.812382E-18
7.545750E+03	3.390238E-17	5.848017E-18
7.555652E+03	3.411094E-17	5.883410E-18
7.565555E+03	3.431805E-17	5.918545E-18
7.575457E+03	3.452441E-17	5.953546E-18
7.585360E+03	3.472906E-17	5.988247E-18
7.595263E+03	3.493272E-17	6.022770E-18
7.605165E+03	3.513353E-17	6.056797E-18
7.615068E+03	3.533303E-17	6.090592E-18
7.624970E+03	3.553107E-17	6.124131E-18
7.634873E+03	3.572658E-17	6.157228E-18
7.644775E+03	3.592027E-17	6.190004E-18
7.654678E+03	3.611101E-17	6.222270E-18
7.664581E+03	3.629859E-17	6.253984E-18
7.674483E+03	3.648369E-17	6.285267E-18
7.684386E+03	3.666608E-17	6.316079E-18
