#wls	flux	fluxerr
1.584409E+03	5.549860E-17	1.898793E-17
1.624020E+03	5.790080E-17	1.979733E-17
1.663630E+03	6.014725E-17	2.055214E-17
1.703240E+03	6.219172E-17	2.123664E-17
1.742850E+03	6.400904E-17	2.184232E-17
1.782461E+03	6.552635E-17	2.234447E-17
1.822071E+03	6.666441E-17	2.271626E-17
1.861681E+03	6.734442E-17	2.293111E-17
1.901291E+03	6.746136E-17	2.295360E-17
1.940902E+03	6.694348E-17	2.275979E-17
1.980512E+03	6.576362E-17	2.234093E-17
2.020122E+03	6.402123E-17	2.173133E-17
2.059732E+03	6.197388E-17	2.101886E-17
2.099342E+03	6.005750E-17	2.035151E-17
2.138953E+03	5.873860E-17	1.988717E-17
2.178563E+03	5.827153E-17	1.971134E-17
2.218173E+03	5.857047E-17	1.979427E-17
2.257783E+03	5.928707E-17	2.001761E-17
2.297394E+03	6.000181E-17	2.023942E-17
2.337004E+03	6.040768E-17	2.035623E-17
2.376614E+03	6.032641E-17	2.030832E-17
2.416224E+03	5.969606E-17	2.007536E-17
2.455835E+03	5.853805E-17	1.966512E-17
2.495445E+03	5.689924E-17	1.909390E-17
2.535055E+03	5.485071E-17	1.838610E-17
2.574665E+03	5.246444E-17	1.756632E-17
2.614276E+03	4.981392E-17	1.665956E-17
2.653886E+03	4.696347E-17	1.568769E-17
2.693496E+03	4.397408E-17	1.467135E-17
2.733106E+03	4.090136E-17	1.362932E-17
2.772716E+03	3.779585E-17	1.257859E-17
2.812327E+03	3.470407E-17	1.153474E-17
2.851937E+03	3.166962E-17	1.051231E-17
2.891547E+03	2.873133E-17	9.524160E-18
2.931157E+03	2.592330E-17	8.581532E-18
2.970768E+03	2.327271E-17	7.693303E-18
2.980670E+03	2.263774E-17	7.480745E-18
2.990573E+03	2.201357E-17	7.271893E-18
3.000475E+03	2.140131E-17	7.067108E-18
3.010378E+03	2.080054E-17	6.866247E-18
3.020280E+03	2.021176E-17	6.669479E-18
3.030183E+03	1.963542E-17	6.476941E-18
3.040086E+03	1.907090E-17	6.288429E-18
3.049988E+03	1.852013E-17	6.104577E-18
3.059891E+03	1.798294E-17	5.925320E-18
3.069793E+03	1.745962E-17	5.750755E-18
3.079696E+03	1.694945E-17	5.580638E-18
3.089598E+03	1.645213E-17	5.414865E-18
3.099501E+03	1.596803E-17	5.253559E-18
3.109403E+03	1.549632E-17	5.096437E-18
3.119306E+03	1.503772E-17	4.943731E-18
3.129209E+03	1.459118E-17	4.795099E-18
3.139111E+03	1.415742E-17	4.650767E-18
3.149014E+03	1.373576E-17	4.510513E-18
3.158916E+03	1.332659E-17	4.374456E-18
3.168819E+03	1.292953E-17	4.242470E-18
3.178721E+03	1.254469E-17	4.114587E-18
3.188624E+03	1.217193E-17	3.990758E-18
3.198526E+03	1.181115E-17	3.870941E-18
3.208429E+03	1.146201E-17	3.755027E-18
3.218332E+03	1.112479E-17	3.643103E-18
3.228234E+03	1.079916E-17	3.535051E-18
3.238137E+03	1.048513E-17	3.430875E-18
3.248039E+03	1.018235E-17	3.330459E-18
3.257942E+03	9.890668E-18	3.233742E-18
3.267844E+03	9.610017E-18	3.140703E-18
3.277747E+03	9.340034E-18	3.051220E-18
3.287650E+03	9.080646E-18	2.965264E-18
3.297552E+03	8.831598E-18	2.882747E-18
3.307455E+03	8.592404E-18	2.803508E-18
3.317357E+03	8.363073E-18	2.727546E-18
3.327260E+03	8.143228E-18	2.654735E-18
3.337162E+03	7.932627E-18	2.584991E-18
3.347065E+03	7.731014E-18	2.518229E-18
3.356967E+03	7.537939E-18	2.454298E-18
3.366870E+03	7.353371E-18	2.393185E-18
3.376773E+03	7.176956E-18	2.334772E-18
3.386675E+03	7.008371E-18	2.278950E-18
3.396578E+03	6.847381E-18	2.225640E-18
3.406480E+03	6.693759E-18	2.174765E-18
3.416383E+03	6.547128E-18	2.126201E-18
3.426285E+03	6.407348E-18	2.079898E-18
3.436188E+03	6.274074E-18	2.035743E-18
3.446090E+03	6.147113E-18	1.993670E-18
3.455993E+03	6.026215E-18	1.953595E-18
3.465896E+03	5.911142E-18	1.915440E-18
3.475798E+03	5.801668E-18	1.879128E-18
3.485701E+03	5.697583E-18	1.844589E-18
3.495603E+03	5.598623E-18	1.811737E-18
3.505506E+03	5.504545E-18	1.780489E-18
3.515408E+03	5.415178E-18	1.750789E-18
3.525311E+03	5.330304E-18	1.722565E-18
3.535213E+03	5.249773E-18	1.695765E-18
3.545116E+03	5.173334E-18	1.670308E-18
3.555019E+03	5.100858E-18	1.646150E-18
3.564921E+03	5.032169E-18	1.623232E-18
3.574824E+03	4.967202E-18	1.601533E-18
3.584726E+03	4.905745E-18	1.580981E-18
3.594629E+03	4.847695E-18	1.561543E-18
3.604531E+03	4.792815E-18	1.543141E-18
3.614434E+03	4.741017E-18	1.525745E-18
3.624337E+03	4.692176E-18	1.509313E-18
3.634239E+03	4.646168E-18	1.493805E-18
3.644142E+03	4.602920E-18	1.479195E-18
3.654044E+03	4.562361E-18	1.465460E-18
3.663947E+03	4.524378E-18	1.452563E-18
3.673849E+03	4.488945E-18	1.440493E-18
3.683752E+03	4.455952E-18	1.429215E-18
3.693654E+03	4.425413E-18	1.418732E-18
3.703557E+03	4.397258E-18	1.409019E-18
3.713460E+03	4.371418E-18	1.400055E-18
3.723362E+03	4.347864E-18	1.391829E-18
3.733265E+03	4.326602E-18	1.384342E-18
3.743167E+03	4.307562E-18	1.377570E-18
3.753070E+03	4.290753E-18	1.371514E-18
3.762972E+03	4.276104E-18	1.366153E-18
3.772875E+03	4.263587E-18	1.361475E-18
3.782777E+03	4.253208E-18	1.357481E-18
3.792680E+03	4.244975E-18	1.354174E-18
3.802583E+03	4.238824E-18	1.351531E-18
3.812485E+03	4.234798E-18	1.349565E-18
3.822388E+03	4.232799E-18	1.348244E-18
3.832290E+03	4.232905E-18	1.347593E-18
3.842193E+03	4.235017E-18	1.347578E-18
3.852095E+03	4.239214E-18	1.348223E-18
3.861998E+03	4.245430E-18	1.349507E-18
3.871900E+03	4.253671E-18	1.351430E-18
3.881803E+03	4.263908E-18	1.353983E-18
3.891706E+03	4.276144E-18	1.357166E-18
3.901608E+03	4.290351E-18	1.360967E-18
3.911511E+03	4.306564E-18	1.365398E-18
3.921413E+03	4.324721E-18	1.370438E-18
3.931316E+03	4.344823E-18	1.376087E-18
3.941218E+03	4.366839E-18	1.382333E-18
3.951121E+03	4.390807E-18	1.389188E-18
3.961024E+03	4.416696E-18	1.396640E-18
3.970926E+03	4.444474E-18	1.404679E-18
3.980829E+03	4.474108E-18	1.413293E-18
3.990731E+03	4.505639E-18	1.422494E-18
4.000634E+03	4.538997E-18	1.432260E-18
4.010536E+03	4.574226E-18	1.442603E-18
4.020439E+03	4.611260E-18	1.453501E-18
4.030341E+03	4.650103E-18	1.464956E-18
4.040244E+03	4.690768E-18	1.476969E-18
4.050147E+03	4.733225E-18	1.489530E-18
4.060049E+03	4.777449E-18	1.502631E-18
4.069952E+03	4.823414E-18	1.516263E-18
4.079854E+03	4.871169E-18	1.530440E-18
4.089757E+03	4.920652E-18	1.545141E-18
4.099659E+03	4.971875E-18	1.560371E-18
4.109562E+03	5.024776E-18	1.576107E-18
4.119464E+03	5.079366E-18	1.592353E-18
4.129367E+03	5.135662E-18	1.609113E-18
4.139270E+03	5.193600E-18	1.626366E-18
4.149172E+03	5.253194E-18	1.644116E-18
4.159075E+03	5.314380E-18	1.662342E-18
4.168977E+03	5.377175E-18	1.681048E-18
4.178880E+03	5.441511E-18	1.700212E-18
4.188782E+03	5.507406E-18	1.719840E-18
4.198685E+03	5.574792E-18	1.739908E-18
4.208587E+03	5.643641E-18	1.760408E-18
4.218490E+03	5.713882E-18	1.781316E-18
4.228393E+03	5.785531E-18	1.802636E-18
4.238295E+03	5.858510E-18	1.824345E-18
4.248198E+03	5.932788E-18	1.846431E-18
4.258100E+03	6.008280E-18	1.868867E-18
4.268003E+03	6.084899E-18	1.891625E-18
4.277905E+03	6.162598E-18	1.914691E-18
4.287808E+03	6.241330E-18	1.938048E-18
4.297711E+03	6.320989E-18	1.961665E-18
4.307613E+03	6.401519E-18	1.985522E-18
4.317516E+03	6.482803E-18	2.009583E-18
4.327418E+03	6.564824E-18	2.033843E-18
4.337321E+03	6.647512E-18	2.058279E-18
4.347223E+03	6.730954E-18	2.082918E-18
4.357126E+03	6.815077E-18	2.107737E-18
4.367028E+03	6.899915E-18	2.132745E-18
4.376931E+03	6.985449E-18	2.157938E-18
4.386834E+03	7.071777E-18	2.183345E-18
4.396736E+03	7.158830E-18	2.208944E-18
4.406639E+03	7.246589E-18	2.234728E-18
4.416541E+03	7.335119E-18	2.260718E-18
4.426444E+03	7.424403E-18	2.286908E-18
4.436346E+03	7.514442E-18	2.313298E-18
4.446249E+03	7.605161E-18	2.339864E-18
4.456151E+03	7.696634E-18	2.366629E-18
4.466054E+03	7.788792E-18	2.393571E-18
4.475957E+03	7.881630E-18	2.420689E-18
4.485859E+03	7.975155E-18	2.447984E-18
4.495762E+03	8.069218E-18	2.475409E-18
4.505664E+03	8.163907E-18	2.502993E-18
4.515567E+03	8.259135E-18	2.530707E-18
4.525469E+03	8.354924E-18	2.558558E-18
4.535372E+03	8.451130E-18	2.586502E-18
4.545274E+03	8.547839E-18	2.614564E-18
4.555177E+03	8.644921E-18	2.642705E-18
4.565080E+03	8.742478E-18	2.670956E-18
4.574982E+03	8.840369E-18	2.699272E-18
4.584885E+03	8.938632E-18	2.727667E-18
4.594787E+03	9.037221E-18	2.756124E-18
4.604690E+03	9.136260E-18	2.784682E-18
4.614592E+03	9.235639E-18	2.813308E-18
4.624495E+03	9.335490E-18	2.842040E-18
4.634398E+03	9.435797E-18	2.870874E-18
4.644300E+03	9.536545E-18	2.899805E-18
4.654203E+03	9.637883E-18	2.928878E-18
4.664105E+03	9.739721E-18	2.958066E-18
4.674008E+03	9.842156E-18	2.987396E-18
4.683910E+03	9.945091E-18	3.016841E-18
4.693813E+03	1.004862E-17	3.046427E-18
4.703715E+03	1.015258E-17	3.076104E-18
4.713618E+03	1.025707E-17	3.105905E-18
4.723521E+03	1.036202E-17	3.135804E-18
4.733423E+03	1.046753E-17	3.165835E-18
4.743326E+03	1.057351E-17	3.195967E-18
4.753228E+03	1.067999E-17	3.226210E-18
4.763131E+03	1.078695E-17	3.256561E-18
4.773033E+03	1.089443E-17	3.287025E-18
4.782936E+03	1.100242E-17	3.317604E-18
4.792838E+03	1.111082E-17	3.348268E-18
4.802741E+03	1.121974E-17	3.379046E-18
4.812644E+03	1.132921E-17	3.409946E-18
4.822546E+03	1.143910E-17	3.440934E-18
4.832449E+03	1.154942E-17	3.472010E-18
4.842351E+03	1.166031E-17	3.503216E-18
4.852254E+03	1.177153E-17	3.534477E-18
4.862156E+03	1.188334E-17	3.565872E-18
4.872059E+03	1.199559E-17	3.597359E-18
4.881961E+03	1.210818E-17	3.628903E-18
4.891864E+03	1.222120E-17	3.660536E-18
4.901767E+03	1.233464E-17	3.692251E-18
4.911669E+03	1.244835E-17	3.724003E-18
4.921572E+03	1.256242E-17	3.755816E-18
4.931474E+03	1.267653E-17	3.787602E-18
4.941377E+03	1.279088E-17	3.819415E-18
4.951279E+03	1.290528E-17	3.851199E-18
4.961182E+03	1.301952E-17	3.882890E-18
4.971085E+03	1.313363E-17	3.914500E-18
4.980987E+03	1.324738E-17	3.945959E-18
4.990890E+03	1.336065E-17	3.977230E-18
5.000792E+03	1.347332E-17	4.008278E-18
5.010695E+03	1.358524E-17	4.039064E-18
5.020597E+03	1.369613E-17	4.069497E-18
5.030500E+03	1.380594E-17	4.099570E-18
5.040402E+03	1.391438E-17	4.129191E-18
5.050305E+03	1.402125E-17	4.158306E-18
5.060208E+03	1.412622E-17	4.186817E-18
5.070110E+03	1.422924E-17	4.214709E-18
5.080013E+03	1.432983E-17	4.241841E-18
5.089915E+03	1.442807E-17	4.268241E-18
5.099818E+03	1.452351E-17	4.293773E-18
5.109720E+03	1.461607E-17	4.318421E-18
5.119623E+03	1.470545E-17	4.342091E-18
5.129525E+03	1.479130E-17	4.364685E-18
5.139428E+03	1.487358E-17	4.386193E-18
5.149331E+03	1.495195E-17	4.406514E-18
5.159233E+03	1.502620E-17	4.425595E-18
5.169136E+03	1.509613E-17	4.443375E-18
5.179038E+03	1.516140E-17	4.459757E-18
5.188941E+03	1.522180E-17	4.474680E-18
5.198843E+03	1.527696E-17	4.488039E-18
5.208746E+03	1.532681E-17	4.499820E-18
5.218648E+03	1.537097E-17	4.509912E-18
5.228551E+03	1.540922E-17	4.518254E-18
5.238454E+03	1.544133E-17	4.524781E-18
5.248356E+03	1.546694E-17	4.529390E-18
5.258259E+03	1.548581E-17	4.532018E-18
5.268161E+03	1.549775E-17	4.532609E-18
5.278064E+03	1.550254E-17	4.531111E-18
5.287966E+03	1.549986E-17	4.527424E-18
5.297869E+03	1.548971E-17	4.521558E-18
5.307772E+03	1.547194E-17	4.513475E-18
5.317674E+03	1.544648E-17	4.503153E-18
5.327577E+03	1.541311E-17	4.490539E-18
5.337479E+03	1.537213E-17	4.475723E-18
5.347382E+03	1.532346E-17	4.458683E-18
5.357284E+03	1.526751E-17	4.439545E-18
5.367187E+03	1.520431E-17	4.418321E-18
5.377089E+03	1.513425E-17	4.395129E-18
5.386992E+03	1.505765E-17	4.370067E-18
5.396895E+03	1.497517E-17	4.343330E-18
5.406797E+03	1.488712E-17	4.315010E-18
5.416700E+03	1.479385E-17	4.285210E-18
5.426602E+03	1.469564E-17	4.254016E-18
5.436505E+03	1.459309E-17	4.221607E-18
5.446407E+03	1.448662E-17	4.188102E-18
5.456310E+03	1.437678E-17	4.153666E-18
5.466212E+03	1.426420E-17	4.118483E-18
5.476115E+03	1.414953E-17	4.082738E-18
5.486018E+03	1.403341E-17	4.046623E-18
5.495920E+03	1.391667E-17	4.010371E-18
5.505823E+03	1.379997E-17	3.974179E-18
5.515725E+03	1.368426E-17	3.938317E-18
5.525628E+03	1.357006E-17	3.902932E-18
5.535530E+03	1.345840E-17	3.868325E-18
5.545433E+03	1.334973E-17	3.834621E-18
5.555335E+03	1.324488E-17	3.802054E-18
5.565238E+03	1.314460E-17	3.770843E-18
5.575141E+03	1.304918E-17	3.741064E-18
5.585043E+03	1.295952E-17	3.712974E-18
5.594946E+03	1.287592E-17	3.686653E-18
5.604848E+03	1.279859E-17	3.662162E-18
5.614751E+03	1.272822E-17	3.639694E-18
5.624653E+03	1.266478E-17	3.619238E-18
5.634556E+03	1.260857E-17	3.600871E-18
5.644459E+03	1.255984E-17	3.584662E-18
5.654361E+03	1.251864E-17	3.570625E-18
5.664264E+03	1.248500E-17	3.558764E-18
5.674166E+03	1.245893E-17	3.549073E-18
5.684069E+03	1.244052E-17	3.541577E-18
5.693971E+03	1.242988E-17	3.536303E-18
5.703874E+03	1.242670E-17	3.533162E-18
5.713776E+03	1.243136E-17	3.532252E-18
5.723679E+03	1.244359E-17	3.533498E-18
5.733582E+03	1.246369E-17	3.536977E-18
5.743484E+03	1.249155E-17	3.542654E-18
5.753387E+03	1.252738E-17	3.550587E-18
5.763289E+03	1.257125E-17	3.560793E-18
5.773192E+03	1.262340E-17	3.573332E-18
5.783094E+03	1.268380E-17	3.588192E-18
5.792997E+03	1.275254E-17	3.605398E-18
5.802899E+03	1.282987E-17	3.625011E-18
5.812802E+03	1.291604E-17	3.647104E-18
5.822705E+03	1.301086E-17	3.671614E-18
5.832607E+03	1.311473E-17	3.698653E-18
5.842510E+03	1.322761E-17	3.728201E-18
5.852412E+03	1.334972E-17	3.760322E-18
5.862315E+03	1.348116E-17	3.795035E-18
5.872217E+03	1.362185E-17	3.832315E-18
5.882120E+03	1.377200E-17	3.872214E-18
5.892022E+03	1.393161E-17	3.914734E-18
5.901925E+03	1.410055E-17	3.959828E-18
5.911828E+03	1.427911E-17	4.007579E-18
5.921730E+03	1.446693E-17	4.057876E-18
5.931633E+03	1.466407E-17	4.110737E-18
5.941535E+03	1.487042E-17	4.166125E-18
5.951438E+03	1.508567E-17	4.223947E-18
5.961340E+03	1.530977E-17	4.284191E-18
5.971243E+03	1.554214E-17	4.346688E-18
5.981146E+03	1.578286E-17	4.411455E-18
5.991048E+03	1.603120E-17	4.478292E-18
6.000951E+03	1.628698E-17	4.547139E-18
6.010853E+03	1.654953E-17	4.617811E-18
6.020756E+03	1.681835E-17	4.690165E-18
6.030658E+03	1.709267E-17	4.763982E-18
6.040561E+03	1.737160E-17	4.839019E-18
6.050463E+03	1.765465E-17	4.915134E-18
6.060366E+03	1.794040E-17	4.991931E-18
6.070269E+03	1.822818E-17	5.069228E-18
6.080171E+03	1.851664E-17	5.146645E-18
6.090074E+03	1.880479E-17	5.223910E-18
6.099976E+03	1.909068E-17	5.300487E-18
6.109879E+03	1.937350E-17	5.376147E-18
6.119781E+03	1.965149E-17	5.450409E-18
6.129684E+03	1.992342E-17	5.522938E-18
6.139586E+03	2.018796E-17	5.593364E-18
6.149489E+03	2.044498E-17	5.661659E-18
6.159392E+03	2.069478E-17	5.727910E-18
6.169294E+03	2.093783E-17	5.792253E-18
6.179197E+03	2.117474E-17	5.854860E-18
6.189099E+03	2.140539E-17	5.915701E-18
6.199002E+03	2.163114E-17	5.975156E-18
6.208904E+03	2.185170E-17	6.033151E-18
6.218807E+03	2.206798E-17	6.089939E-18
6.228709E+03	2.228065E-17	6.145707E-18
6.238612E+03	2.248950E-17	6.200402E-18
6.248515E+03	2.269526E-17	6.254224E-18
6.258417E+03	2.289835E-17	6.307294E-18
6.268320E+03	2.309921E-17	6.359734E-18
6.278222E+03	2.329770E-17	6.411505E-18
6.288125E+03	2.349426E-17	6.462731E-18
6.298027E+03	2.368905E-17	6.513459E-18
6.307930E+03	2.388225E-17	6.563736E-18
6.317833E+03	2.407366E-17	6.613512E-18
6.327735E+03	2.426312E-17	6.662740E-18
6.337638E+03	2.445042E-17	6.711367E-18
6.347540E+03	2.463570E-17	6.759433E-18
6.357443E+03	2.481875E-17	6.806877E-18
6.367345E+03	2.499859E-17	6.853437E-18
6.377248E+03	2.517641E-17	6.899441E-18
6.387150E+03	2.535236E-17	6.944926E-18
6.397053E+03	2.552692E-17	6.990025E-18
6.406956E+03	2.570100E-17	7.034994E-18
6.416858E+03	2.587436E-17	7.079764E-18
6.426761E+03	2.604796E-17	7.124597E-18
6.436663E+03	2.622195E-17	7.169537E-18
6.446566E+03	2.639688E-17	7.214735E-18
6.456468E+03	2.657214E-17	7.260021E-18
6.466371E+03	2.674907E-17	7.305765E-18
6.476273E+03	2.692701E-17	7.351785E-18
6.486176E+03	2.710653E-17	7.398236E-18
6.496079E+03	2.728775E-17	7.445154E-18
6.505981E+03	2.747039E-17	7.492461E-18
6.515884E+03	2.765501E-17	7.540310E-18
6.525786E+03	2.784174E-17	7.588736E-18
6.535689E+03	2.803027E-17	7.637655E-18
6.545591E+03	2.822072E-17	7.687099E-18
6.555494E+03	2.841319E-17	7.737095E-18
6.565396E+03	2.860826E-17	7.787803E-18
6.575299E+03	2.880509E-17	7.838994E-18
6.585202E+03	2.900424E-17	7.890818E-18
6.595104E+03	2.920579E-17	7.943300E-18
6.605007E+03	2.940931E-17	7.996320E-18
6.614909E+03	2.961532E-17	8.050023E-18
6.624812E+03	2.982339E-17	8.104292E-18
6.634714E+03	3.003403E-17	8.159263E-18
6.644617E+03	3.024626E-17	8.214672E-18
6.654520E+03	3.046059E-17	8.270658E-18
6.664422E+03	3.067758E-17	8.327374E-18
6.674325E+03	3.089618E-17	8.384534E-18
6.684227E+03	3.111697E-17	8.442294E-18
6.694130E+03	3.133940E-17	8.500508E-18
6.704032E+03	3.156404E-17	8.559334E-18
6.713935E+03	3.179039E-17	8.618629E-18
6.723837E+03	3.201847E-17	8.678404E-18
6.733740E+03	3.224888E-17	8.738823E-18
6.743643E+03	3.248051E-17	8.799583E-18
6.753545E+03	3.271454E-17	8.861008E-18
6.763448E+03	3.294984E-17	8.922789E-18
6.773350E+03	3.318762E-17	8.985253E-18
6.783253E+03	3.342665E-17	9.048075E-18
6.793155E+03	3.366693E-17	9.111247E-18
6.803058E+03	3.390902E-17	9.174929E-18
6.812960E+03	3.415289E-17	9.239108E-18
6.822863E+03	3.439719E-17	9.303422E-18
6.832766E+03	3.464306E-17	9.368183E-18
6.842668E+03	3.488977E-17	9.433190E-18
6.852571E+03	3.513784E-17	9.498587E-18
6.862473E+03	3.538579E-17	9.563973E-18
6.872376E+03	3.563410E-17	9.629482E-18
6.882278E+03	3.588259E-17	9.695066E-18
6.892181E+03	3.613039E-17	9.760491E-18
6.902083E+03	3.637799E-17	9.825890E-18
6.911986E+03	3.662519E-17	9.891210E-18
6.921889E+03	3.687110E-17	9.956212E-18
6.931791E+03	3.711550E-17	1.002084E-17
6.941694E+03	3.735822E-17	1.008505E-17
6.951596E+03	3.759981E-17	1.014899E-17
6.961499E+03	3.783866E-17	1.021222E-17
6.971401E+03	3.807606E-17	1.027511E-17
6.981304E+03	3.831042E-17	1.033721E-17
6.991207E+03	3.854237E-17	1.039871E-17
7.001109E+03	3.877103E-17	1.045936E-17
7.011012E+03	3.899708E-17	1.051936E-17
7.020914E+03	3.922049E-17	1.057868E-17
7.030817E+03	3.944042E-17	1.063712E-17
7.040719E+03	3.965605E-17	1.069445E-17
7.050622E+03	3.986895E-17	1.075110E-17
7.060524E+03	4.007835E-17	1.080685E-17
7.070427E+03	4.028425E-17	1.086172E-17
7.080330E+03	4.048670E-17	1.091571E-17
7.090232E+03	4.068493E-17	1.096863E-17
7.100135E+03	4.087982E-17	1.102070E-17
7.110037E+03	4.107061E-17	1.107174E-17
7.119940E+03	4.125739E-17	1.112175E-17
7.129842E+03	4.144111E-17	1.117100E-17
7.139745E+03	4.162101E-17	1.121930E-17
7.149647E+03	4.179809E-17	1.126690E-17
7.159550E+03	4.197068E-17	1.131336E-17
7.169453E+03	4.213975E-17	1.135895E-17
7.179355E+03	4.230535E-17	1.140367E-17
7.189258E+03	4.246755E-17	1.144755E-17
7.199160E+03	4.262631E-17	1.149059E-17
7.209063E+03	4.278164E-17	1.153277E-17
7.218965E+03	4.293255E-17	1.157385E-17
7.228868E+03	4.307984E-17	1.161403E-17
7.238770E+03	4.322341E-17	1.165329E-17
7.248673E+03	4.336315E-17	1.169161E-17
7.258576E+03	4.349794E-17	1.172868E-17
7.268478E+03	4.362861E-17	1.176472E-17
7.278381E+03	4.375596E-17	1.179996E-17
7.288283E+03	4.387796E-17	1.183385E-17
7.298186E+03	4.399545E-17	1.186661E-17
7.308088E+03	4.410831E-17	1.189822E-17
7.317991E+03	4.421747E-17	1.192892E-17
7.327894E+03	4.432189E-17	1.195845E-17
7.337796E+03	4.442254E-17	1.198705E-17
7.347699E+03	4.452045E-17	1.201502E-17
7.357601E+03	4.461469E-17	1.204209E-17
7.367504E+03	4.470741E-17	1.206886E-17
7.377406E+03	4.479672E-17	1.209481E-17
7.387309E+03	4.488387E-17	1.212029E-17
7.397211E+03	4.496805E-17	1.214507E-17
7.407114E+03	4.505055E-17	1.216950E-17
7.417017E+03	4.512956E-17	1.219309E-17
7.426919E+03	4.520637E-17	1.221621E-17
7.436822E+03	4.528121E-17	1.223890E-17
7.446724E+03	4.535323E-17	1.226095E-17
7.456627E+03	4.542470E-17	1.228296E-17
7.466529E+03	4.549364E-17	1.230440E-17
7.476432E+03	4.556121E-17	1.232559E-17
7.486334E+03	4.562645E-17	1.234626E-17
7.496237E+03	4.569056E-17	1.236673E-17
7.506140E+03	4.575259E-17	1.238675E-17
7.516042E+03	4.581372E-17	1.240665E-17
7.525945E+03	4.587301E-17	1.242615E-17
7.535847E+03	4.593053E-17	1.244527E-17
7.545750E+03	4.598748E-17	1.246435E-17
7.555652E+03	4.604278E-17	1.248310E-17
7.565555E+03	4.609647E-17	1.250150E-17
7.575457E+03	4.614964E-17	1.251987E-17
7.585360E+03	4.620113E-17	1.253789E-17
7.595263E+03	4.625200E-17	1.255583E-17
7.605165E+03	4.629987E-17	1.257306E-17
7.615068E+03	4.634689E-17	1.259016E-17
7.624970E+03	4.639294E-17	1.260710E-17
7.634873E+03	4.643672E-17	1.262351E-17
7.644775E+03	4.647923E-17	1.263967E-17
7.654678E+03	4.651916E-17	1.265522E-17
7.664581E+03	4.655633E-17	1.267011E-17
7.674483E+03	4.659175E-17	1.268462E-17
7.684386E+03	4.662522E-17	1.269868E-17
