#wls	flux	fluxerr
1.584409E+03	5.768905E-17	4.246848E-18
1.624020E+03	6.012173E-17	4.425863E-18
1.663630E+03	6.237707E-17	4.591817E-18
1.703240E+03	6.440644E-17	4.741130E-18
1.742850E+03	6.618333E-17	4.871850E-18
1.782461E+03	6.763254E-17	4.978444E-18
1.822071E+03	6.867300E-17	5.054945E-18
1.861681E+03	6.922534E-17	5.095512E-18
1.901291E+03	6.918449E-17	5.092412E-18
1.940902E+03	6.848103E-17	5.040539E-18
1.980512E+03	6.709265E-17	4.938254E-18
2.020122E+03	6.512675E-17	4.793464E-18
2.059732E+03	6.285090E-17	4.625866E-18
2.099342E+03	6.071006E-17	4.468208E-18
2.138953E+03	5.917425E-17	4.355084E-18
2.178563E+03	5.849391E-17	4.304922E-18
2.218173E+03	5.857485E-17	4.310786E-18
2.257783E+03	5.906213E-17	4.346552E-18
2.297394E+03	5.953525E-17	4.381273E-18
2.337004E+03	5.969162E-17	4.392680E-18
2.376614E+03	5.936051E-17	4.368212E-18
2.416224E+03	5.848861E-17	4.303950E-18
2.455835E+03	5.710493E-17	4.202028E-18
2.495445E+03	5.526304E-17	4.066395E-18
2.535055E+03	5.303910E-17	3.902654E-18
2.574665E+03	5.050879E-17	3.716377E-18
2.614276E+03	4.774756E-17	3.513118E-18
2.653886E+03	4.482071E-17	3.297682E-18
2.693496E+03	4.178885E-17	3.074531E-18
2.733106E+03	3.870614E-17	2.847649E-18
2.772716E+03	3.562073E-17	2.620580E-18
2.812327E+03	3.257596E-17	2.396512E-18
2.851937E+03	2.961153E-17	2.178365E-18
2.891547E+03	2.676204E-17	1.968685E-18
2.931157E+03	2.405723E-17	1.769661E-18
2.970768E+03	2.152027E-17	1.582993E-18
2.980670E+03	2.091488E-17	1.538450E-18
2.990573E+03	2.032071E-17	1.494733E-18
3.000475E+03	1.973877E-17	1.451916E-18
3.010378E+03	1.916863E-17	1.409967E-18
3.020280E+03	1.861074E-17	1.368921E-18
3.030183E+03	1.806547E-17	1.328803E-18
3.040086E+03	1.753225E-17	1.289572E-18
3.049988E+03	1.701282E-17	1.251356E-18
3.059891E+03	1.650699E-17	1.214141E-18
3.069793E+03	1.601504E-17	1.177947E-18
3.079696E+03	1.553623E-17	1.142721E-18
3.089598E+03	1.507029E-17	1.108441E-18
3.099501E+03	1.461750E-17	1.075129E-18
3.109403E+03	1.417702E-17	1.042723E-18
3.119306E+03	1.374944E-17	1.011266E-18
3.129209E+03	1.333374E-17	9.806841E-19
3.139111E+03	1.293049E-17	9.510180E-19
3.149014E+03	1.253903E-17	9.222191E-19
3.158916E+03	1.215963E-17	8.943076E-19
3.168819E+03	1.179189E-17	8.672548E-19
3.178721E+03	1.143587E-17	8.410634E-19
3.188624E+03	1.109137E-17	8.157206E-19
3.198526E+03	1.075823E-17	7.912132E-19
3.208429E+03	1.043611E-17	7.675162E-19
3.218332E+03	1.012517E-17	7.446427E-19
3.228234E+03	9.825068E-18	7.225658E-19
3.238137E+03	9.535760E-18	7.012834E-19
3.248039E+03	9.256898E-18	6.807695E-19
3.257942E+03	8.988292E-18	6.610103E-19
3.267844E+03	8.729870E-18	6.420002E-19
3.277747E+03	8.481277E-18	6.237133E-19
3.287650E+03	8.242426E-18	6.061431E-19
3.297552E+03	8.013076E-18	5.892719E-19
3.307455E+03	7.792777E-18	5.730665E-19
3.317357E+03	7.581516E-18	5.575260E-19
3.327260E+03	7.378959E-18	5.426258E-19
3.337162E+03	7.184869E-18	5.283486E-19
3.347065E+03	6.999013E-18	5.146770E-19
3.356967E+03	6.820979E-18	5.015809E-19
3.366870E+03	6.650723E-18	4.890569E-19
3.376773E+03	6.487933E-18	4.770821E-19
3.386675E+03	6.332312E-18	4.656347E-19
3.396578E+03	6.183645E-18	4.546988E-19
3.406480E+03	6.041728E-18	4.442594E-19
3.416383E+03	5.906211E-18	4.342908E-19
3.426285E+03	5.776976E-18	4.247843E-19
3.436188E+03	5.653706E-18	4.157165E-19
3.446090E+03	5.536223E-18	4.070745E-19
3.455993E+03	5.424297E-18	3.988411E-19
3.465896E+03	5.317710E-18	3.910005E-19
3.475798E+03	5.216253E-18	3.835372E-19
3.485701E+03	5.119729E-18	3.764367E-19
3.495603E+03	5.027896E-18	3.696812E-19
3.505506E+03	4.940527E-18	3.632541E-19
3.515408E+03	4.857463E-18	3.571436E-19
3.525311E+03	4.778502E-18	3.513348E-19
3.535213E+03	4.703502E-18	3.458174E-19
3.545116E+03	4.632234E-18	3.405745E-19
3.555019E+03	4.564577E-18	3.355972E-19
3.564921E+03	4.500370E-18	3.308735E-19
3.574824E+03	4.439548E-18	3.263989E-19
3.584726E+03	4.381919E-18	3.221590E-19
3.594629E+03	4.327386E-18	3.181469E-19
3.604531E+03	4.275732E-18	3.143465E-19
3.614434E+03	4.226877E-18	3.107518E-19
3.624337E+03	4.180699E-18	3.073541E-19
3.634239E+03	4.137087E-18	3.041451E-19
3.644142E+03	4.095971E-18	3.011196E-19
3.654044E+03	4.057280E-18	2.982725E-19
3.663947E+03	4.020910E-18	2.955960E-19
3.673849E+03	3.986834E-18	2.930882E-19
3.683752E+03	3.954951E-18	2.907417E-19
3.693654E+03	3.925268E-18	2.885569E-19
3.703557E+03	3.897720E-18	2.865292E-19
3.713460E+03	3.872245E-18	2.846538E-19
3.723362E+03	3.848813E-18	2.829287E-19
3.733265E+03	3.827429E-18	2.813541E-19
3.743167E+03	3.808030E-18	2.799254E-19
3.753070E+03	3.790617E-18	2.786428E-19
3.762972E+03	3.775128E-18	2.775017E-19
3.772875E+03	3.761535E-18	2.764999E-19
3.782777E+03	3.749839E-18	2.756376E-19
3.792680E+03	3.740042E-18	2.749149E-19
3.802583E+03	3.732084E-18	2.743273E-19
3.812485E+03	3.725996E-18	2.738772E-19
3.822388E+03	3.721688E-18	2.735580E-19
3.832290E+03	3.719224E-18	2.733743E-19
3.842193E+03	3.718513E-18	2.733195E-19
3.852095E+03	3.719618E-18	2.733981E-19
3.861998E+03	3.722478E-18	2.736057E-19
3.871900E+03	3.727096E-18	2.739426E-19
3.881803E+03	3.733443E-18	2.744065E-19
3.891706E+03	3.741519E-18	2.749975E-19
3.901608E+03	3.751298E-18	2.757135E-19
3.911511E+03	3.762808E-18	2.765569E-19
3.921413E+03	3.775992E-18	2.775232E-19
3.931316E+03	3.790850E-18	2.786127E-19
3.941218E+03	3.807356E-18	2.798231E-19
3.951121E+03	3.825538E-18	2.811567E-19
3.961024E+03	3.845371E-18	2.826117E-19
3.970926E+03	3.866826E-18	2.841858E-19
3.980829E+03	3.889875E-18	2.858769E-19
3.990731E+03	3.914550E-18	2.876877E-19
4.000634E+03	3.940796E-18	2.896137E-19
4.010536E+03	3.968645E-18	2.916576E-19
4.020439E+03	3.998041E-18	2.938151E-19
4.030341E+03	4.028989E-18	2.960867E-19
4.040244E+03	4.061495E-18	2.984727E-19
4.050147E+03	4.095534E-18	3.009712E-19
4.060049E+03	4.131080E-18	3.035806E-19
4.069952E+03	4.168110E-18	3.062988E-19
4.079854E+03	4.206663E-18	3.091290E-19
4.089757E+03	4.246684E-18	3.120670E-19
4.099659E+03	4.288182E-18	3.151134E-19
4.109562E+03	4.331098E-18	3.182641E-19
4.119464E+03	4.375444E-18	3.215197E-19
4.129367E+03	4.421229E-18	3.248810E-19
4.139270E+03	4.468394E-18	3.283437E-19
4.149172E+03	4.516953E-18	3.319087E-19
4.159075E+03	4.566843E-18	3.355714E-19
4.168977E+03	4.618076E-18	3.393328E-19
4.178880E+03	4.670591E-18	3.431883E-19
4.188782E+03	4.724397E-18	3.471386E-19
4.198685E+03	4.779430E-18	3.511790E-19
4.208587E+03	4.835663E-18	3.553074E-19
4.218490E+03	4.893024E-18	3.595187E-19
4.228393E+03	4.951523E-18	3.638135E-19
4.238295E+03	5.011086E-18	3.681863E-19
4.248198E+03	5.071676E-18	3.726347E-19
4.258100E+03	5.133215E-18	3.771526E-19
4.268003E+03	5.195620E-18	3.817341E-19
4.277905E+03	5.258844E-18	3.863757E-19
4.287808E+03	5.322839E-18	3.910738E-19
4.297711E+03	5.387509E-18	3.958214E-19
4.307613E+03	5.452799E-18	4.006145E-19
4.317516E+03	5.518603E-18	4.054453E-19
4.327418E+03	5.584904E-18	4.103125E-19
4.337321E+03	5.651634E-18	4.152111E-19
4.347223E+03	5.718865E-18	4.201465E-19
4.357126E+03	5.786531E-18	4.251138E-19
4.367028E+03	5.854661E-18	4.301150E-19
4.376931E+03	5.923237E-18	4.351490E-19
4.386834E+03	5.992344E-18	4.402218E-19
4.396736E+03	6.061918E-18	4.453289E-19
4.406639E+03	6.131948E-18	4.504694E-19
4.416541E+03	6.202474E-18	4.556462E-19
4.426444E+03	6.273489E-18	4.608589E-19
4.436346E+03	6.344988E-18	4.661070E-19
4.446249E+03	6.416915E-18	4.713865E-19
4.456151E+03	6.489312E-18	4.767004E-19
4.466054E+03	6.562131E-18	4.820453E-19
4.475957E+03	6.635364E-18	4.874205E-19
4.485859E+03	6.709019E-18	4.928265E-19
4.495762E+03	6.782975E-18	4.982546E-19
4.505664E+03	6.857300E-18	5.037098E-19
4.515567E+03	6.931939E-18	5.091879E-19
4.525469E+03	7.006903E-18	5.146897E-19
4.535372E+03	7.082078E-18	5.202070E-19
4.545274E+03	7.157546E-18	5.257457E-19
4.555177E+03	7.233184E-18	5.312969E-19
4.565080E+03	7.309082E-18	5.368670E-19
4.574982E+03	7.385136E-18	5.424485E-19
4.584885E+03	7.461372E-18	5.480432E-19
4.594787E+03	7.537755E-18	5.536487E-19
4.604690E+03	7.614379E-18	5.592718E-19
4.614592E+03	7.691162E-18	5.649065E-19
4.624495E+03	7.768209E-18	5.705605E-19
4.634398E+03	7.845501E-18	5.762323E-19
4.644300E+03	7.923029E-18	5.819215E-19
4.654203E+03	8.000914E-18	5.876367E-19
4.664105E+03	8.079085E-18	5.933728E-19
4.674008E+03	8.157604E-18	5.991344E-19
4.683910E+03	8.236407E-18	6.049168E-19
4.693813E+03	8.315551E-18	6.107241E-19
4.703715E+03	8.394907E-18	6.165468E-19
4.713618E+03	8.474531E-18	6.223892E-19
4.723521E+03	8.554364E-18	6.282468E-19
4.733423E+03	8.634477E-18	6.341249E-19
4.743326E+03	8.714804E-18	6.400186E-19
4.753228E+03	8.795343E-18	6.459277E-19
4.763131E+03	8.876101E-18	6.518528E-19
4.773033E+03	8.957082E-18	6.577942E-19
4.782936E+03	9.038291E-18	6.637523E-19
4.792838E+03	9.119645E-18	6.697209E-19
4.802741E+03	9.201231E-18	6.757064E-19
4.812644E+03	9.283055E-18	6.817093E-19
4.822546E+03	9.365032E-18	6.877233E-19
4.832449E+03	9.447161E-18	6.937484E-19
4.842351E+03	9.529531E-18	6.997911E-19
4.852254E+03	9.611960E-18	7.058379E-19
4.862156E+03	9.694615E-18	7.119013E-19
4.872059E+03	9.777410E-18	7.179748E-19
4.881961E+03	9.860234E-18	7.240504E-19
4.891864E+03	9.943164E-18	7.301336E-19
4.901767E+03	1.002617E-17	7.362224E-19
4.911669E+03	1.010914E-17	7.423086E-19
4.921572E+03	1.019215E-17	7.483968E-19
4.931474E+03	1.027494E-17	7.544692E-19
4.941377E+03	1.035767E-17	7.605378E-19
4.951279E+03	1.044020E-17	7.665907E-19
4.961182E+03	1.052236E-17	7.726164E-19
4.971085E+03	1.060418E-17	7.786175E-19
4.980987E+03	1.068550E-17	7.845815E-19
4.990890E+03	1.076623E-17	7.905018E-19
5.000792E+03	1.084628E-17	7.963720E-19
5.010695E+03	1.092555E-17	8.021851E-19
5.020597E+03	1.100383E-17	8.079254E-19
5.030500E+03	1.108113E-17	8.135936E-19
5.040402E+03	1.115721E-17	8.191726E-19
5.050305E+03	1.123197E-17	8.246538E-19
5.060208E+03	1.130516E-17	8.300204E-19
5.070110E+03	1.137677E-17	8.352702E-19
5.080013E+03	1.144645E-17	8.403781E-19
5.089915E+03	1.151428E-17	8.453504E-19
5.099818E+03	1.157989E-17	8.501601E-19
5.109720E+03	1.164328E-17	8.548057E-19
5.119623E+03	1.170417E-17	8.592683E-19
5.129525E+03	1.176232E-17	8.635299E-19
5.139428E+03	1.181770E-17	8.675871E-19
5.149331E+03	1.187003E-17	8.714214E-19
5.159233E+03	1.191919E-17	8.750218E-19
5.169136E+03	1.196500E-17	8.783772E-19
5.179038E+03	1.200721E-17	8.814679E-19
5.188941E+03	1.204567E-17	8.842825E-19
5.198843E+03	1.208008E-17	8.868008E-19
5.208746E+03	1.211044E-17	8.890207E-19
5.218648E+03	1.213645E-17	8.909219E-19
5.228551E+03	1.215796E-17	8.924930E-19
5.238454E+03	1.217484E-17	8.937239E-19
5.248356E+03	1.218683E-17	8.945952E-19
5.258259E+03	1.219377E-17	8.950963E-19
5.268161E+03	1.219556E-17	8.952192E-19
5.278064E+03	1.219209E-17	8.949556E-19
5.287966E+03	1.218313E-17	8.942896E-19
5.297869E+03	1.216874E-17	8.932247E-19
5.307772E+03	1.214887E-17	8.917578E-19
5.317674E+03	1.212349E-17	8.898861E-19
5.327577E+03	1.209249E-17	8.876024E-19
5.337479E+03	1.205615E-17	8.849262E-19
5.347382E+03	1.201440E-17	8.818538E-19
5.357284E+03	1.196762E-17	8.784118E-19
5.367187E+03	1.191582E-17	8.746010E-19
5.377089E+03	1.185931E-17	8.704449E-19
5.386992E+03	1.179831E-17	8.659590E-19
5.396895E+03	1.173331E-17	8.611799E-19
5.406797E+03	1.166451E-17	8.561214E-19
5.416700E+03	1.159211E-17	8.507992E-19
5.426602E+03	1.151625E-17	8.452236E-19
5.436505E+03	1.143736E-17	8.394248E-19
5.446407E+03	1.135561E-17	8.334168E-19
5.456310E+03	1.127137E-17	8.272262E-19
5.466212E+03	1.118500E-17	8.208789E-19
5.476115E+03	1.109688E-17	8.144039E-19
5.486018E+03	1.100741E-17	8.078296E-19
5.495920E+03	1.091711E-17	8.011940E-19
5.505823E+03	1.082636E-17	7.945264E-19
5.515725E+03	1.073579E-17	7.878716E-19
5.525628E+03	1.064567E-17	7.812500E-19
5.535530E+03	1.055668E-17	7.747115E-19
5.545433E+03	1.046906E-17	7.682733E-19
5.555335E+03	1.038333E-17	7.619748E-19
5.565238E+03	1.030001E-17	7.558525E-19
5.575141E+03	1.021922E-17	7.499162E-19
5.585043E+03	1.014163E-17	7.442143E-19
5.594946E+03	1.006738E-17	7.387586E-19
5.604848E+03	9.996654E-18	7.335607E-19
5.614751E+03	9.929951E-18	7.286585E-19
5.624653E+03	9.867250E-18	7.240500E-19
5.634556E+03	9.808806E-18	7.197539E-19
5.644459E+03	9.754832E-18	7.157860E-19
5.654361E+03	9.705420E-18	7.121528E-19
5.664264E+03	9.660640E-18	7.088596E-19
5.674166E+03	9.620537E-18	7.059095E-19
5.684069E+03	9.585248E-18	7.033128E-19
5.693971E+03	9.554900E-18	7.010787E-19
5.703874E+03	9.529303E-18	6.991931E-19
5.713776E+03	9.508776E-18	6.976795E-19
5.723679E+03	9.493133E-18	6.965244E-19
5.733582E+03	9.482584E-18	6.957430E-19
5.743484E+03	9.477041E-18	6.953289E-19
5.753387E+03	9.476624E-18	6.952908E-19
5.763289E+03	9.481361E-18	6.956310E-19
5.773192E+03	9.491373E-18	6.963580E-19
5.783094E+03	9.506585E-18	6.974666E-19
5.792997E+03	9.527026E-18	6.989588E-19
5.802899E+03	9.552824E-18	7.008438E-19
5.812802E+03	9.584117E-18	7.031321E-19
5.822705E+03	9.620722E-18	7.058099E-19
5.832607E+03	9.662875E-18	7.088947E-19
5.842510E+03	9.710482E-18	7.123795E-19
5.852412E+03	9.763668E-18	7.162735E-19
5.862315E+03	9.822436E-18	7.205770E-19
5.872217E+03	9.886690E-18	7.252827E-19
5.882120E+03	9.956523E-18	7.303976E-19
5.892022E+03	1.003191E-17	7.359196E-19
5.901925E+03	1.011271E-17	7.418392E-19
5.911828E+03	1.019910E-17	7.481681E-19
5.921730E+03	1.029080E-17	7.548866E-19
5.931633E+03	1.038784E-17	7.619962E-19
5.941535E+03	1.049012E-17	7.694909E-19
5.951438E+03	1.059742E-17	7.773532E-19
5.961340E+03	1.070973E-17	7.855823E-19
5.971243E+03	1.082662E-17	7.941483E-19
5.981146E+03	1.094820E-17	8.030574E-19
5.991048E+03	1.107401E-17	8.122762E-19
6.000951E+03	1.120396E-17	8.217986E-19
6.010853E+03	1.133765E-17	8.315956E-19
6.020756E+03	1.147484E-17	8.416487E-19
6.030658E+03	1.161510E-17	8.519269E-19
6.040561E+03	1.175796E-17	8.623960E-19
6.050463E+03	1.190324E-17	8.730419E-19
6.060366E+03	1.205015E-17	8.838072E-19
6.070269E+03	1.219847E-17	8.946751E-19
6.080171E+03	1.234751E-17	9.055962E-19
6.090074E+03	1.249687E-17	9.165403E-19
6.099976E+03	1.264555E-17	9.274342E-19
6.109879E+03	1.279328E-17	9.382587E-19
6.119781E+03	1.293921E-17	9.489503E-19
6.129684E+03	1.308278E-17	9.594690E-19
6.139586E+03	1.322328E-17	9.697623E-19
6.149489E+03	1.336070E-17	9.798291E-19
6.159392E+03	1.349525E-17	9.896854E-19
6.169294E+03	1.362719E-17	9.993501E-19
6.179197E+03	1.375686E-17	1.008848E-18
6.189099E+03	1.388412E-17	1.018169E-18
6.199002E+03	1.400976E-17	1.027371E-18
6.208904E+03	1.413353E-17	1.036436E-18
6.218807E+03	1.425597E-17	1.045403E-18
6.228709E+03	1.437745E-17	1.054299E-18
6.238612E+03	1.449777E-17	1.063111E-18
6.248515E+03	1.461739E-17	1.071870E-18
6.258417E+03	1.473653E-17	1.080595E-18
6.268320E+03	1.485547E-17	1.089304E-18
6.278222E+03	1.497408E-17	1.097989E-18
6.288125E+03	1.509263E-17	1.106669E-18
6.298027E+03	1.521122E-17	1.115352E-18
6.307930E+03	1.532993E-17	1.124044E-18
6.317833E+03	1.544865E-17	1.132736E-18
6.327735E+03	1.556722E-17	1.141418E-18
6.337638E+03	1.568553E-17	1.150079E-18
6.347540E+03	1.580361E-17	1.158724E-18
6.357443E+03	1.592132E-17	1.167342E-18
6.367345E+03	1.603804E-17	1.175886E-18
6.377248E+03	1.615448E-17	1.184410E-18
6.387150E+03	1.627073E-17	1.192920E-18
6.397053E+03	1.638707E-17	1.201436E-18
6.406956E+03	1.650407E-17	1.210002E-18
6.416858E+03	1.662159E-17	1.218604E-18
6.426761E+03	1.674018E-17	1.227284E-18
6.436663E+03	1.685995E-17	1.236051E-18
6.446566E+03	1.698124E-17	1.244930E-18
6.456468E+03	1.710364E-17	1.253889E-18
6.466371E+03	1.722802E-17	1.262993E-18
6.476273E+03	1.735393E-17	1.272210E-18
6.486176E+03	1.748175E-17	1.281566E-18
6.496079E+03	1.761156E-17	1.291068E-18
6.505981E+03	1.774317E-17	1.300701E-18
6.515884E+03	1.787694E-17	1.310493E-18
6.525786E+03	1.801296E-17	1.320450E-18
6.535689E+03	1.815102E-17	1.330556E-18
6.545591E+03	1.829118E-17	1.340816E-18
6.555494E+03	1.843353E-17	1.351236E-18
6.565396E+03	1.857843E-17	1.361842E-18
6.575299E+03	1.872534E-17	1.372596E-18
6.585202E+03	1.887463E-17	1.383524E-18
6.595104E+03	1.902634E-17	1.394629E-18
6.605007E+03	1.918023E-17	1.405894E-18
6.614909E+03	1.933665E-17	1.417344E-18
6.624812E+03	1.949533E-17	1.428959E-18
6.634714E+03	1.965664E-17	1.440767E-18
6.644617E+03	1.981994E-17	1.452721E-18
6.654520E+03	1.998562E-17	1.464849E-18
6.664422E+03	2.015406E-17	1.477178E-18
6.674325E+03	2.032458E-17	1.489660E-18
6.684227E+03	2.049759E-17	1.502324E-18
6.694130E+03	2.067274E-17	1.515145E-18
6.704032E+03	2.085044E-17	1.528153E-18
6.713935E+03	2.103036E-17	1.541322E-18
6.723837E+03	2.121250E-17	1.554655E-18
6.733740E+03	2.139729E-17	1.568181E-18
6.743643E+03	2.158399E-17	1.581847E-18
6.753545E+03	2.177338E-17	1.595710E-18
6.763448E+03	2.196470E-17	1.609714E-18
6.773350E+03	2.215877E-17	1.623920E-18
6.783253E+03	2.235478E-17	1.638267E-18
6.793155E+03	2.255273E-17	1.652756E-18
6.803058E+03	2.275301E-17	1.667416E-18
6.812960E+03	2.295561E-17	1.682246E-18
6.822863E+03	2.315965E-17	1.697180E-18
6.832766E+03	2.336595E-17	1.712280E-18
6.842668E+03	2.357402E-17	1.727510E-18
6.852571E+03	2.378426E-17	1.742898E-18
6.862473E+03	2.399570E-17	1.758374E-18
6.872376E+03	2.420873E-17	1.773966E-18
6.882278E+03	2.442325E-17	1.789668E-18
6.892181E+03	2.463872E-17	1.805438E-18
6.902083E+03	2.485551E-17	1.821305E-18
6.911986E+03	2.507352E-17	1.837261E-18
6.921889E+03	2.529221E-17	1.853266E-18
6.931791E+03	2.551143E-17	1.869311E-18
6.941694E+03	2.573111E-17	1.885389E-18
6.951596E+03	2.595165E-17	1.901529E-18
6.961499E+03	2.617194E-17	1.917651E-18
6.971401E+03	2.639293E-17	1.933824E-18
6.981304E+03	2.661348E-17	1.949965E-18
6.991207E+03	2.683406E-17	1.966107E-18
7.001109E+03	2.705404E-17	1.982205E-18
7.011012E+03	2.727391E-17	1.998295E-18
7.020914E+03	2.749360E-17	2.014372E-18
7.030817E+03	2.771253E-17	2.030392E-18
7.040719E+03	2.793008E-17	2.046312E-18
7.050622E+03	2.814733E-17	2.062209E-18
7.060524E+03	2.836370E-17	2.078042E-18
7.070427E+03	2.857917E-17	2.093808E-18
7.080330E+03	2.879372E-17	2.109507E-18
7.090232E+03	2.900674E-17	2.125094E-18
7.100135E+03	2.921883E-17	2.140611E-18
7.110037E+03	2.942936E-17	2.156015E-18
7.119940E+03	2.963835E-17	2.171306E-18
7.129842E+03	2.984639E-17	2.186528E-18
7.139745E+03	3.005288E-17	2.201635E-18
7.149647E+03	3.025843E-17	2.216673E-18
7.159550E+03	3.046177E-17	2.231550E-18
7.169453E+03	3.066353E-17	2.246310E-18
7.179355E+03	3.086365E-17	2.260951E-18
7.189258E+03	3.106212E-17	2.275470E-18
7.199160E+03	3.125889E-17	2.289865E-18
7.209063E+03	3.145391E-17	2.304132E-18
7.218965E+03	3.164643E-17	2.318215E-18
7.228868E+03	3.183705E-17	2.332159E-18
7.238770E+03	3.202567E-17	2.345957E-18
7.248673E+03	3.221222E-17	2.359603E-18
7.258576E+03	3.239591E-17	2.373039E-18
7.268478E+03	3.257732E-17	2.386309E-18
7.278381E+03	3.275710E-17	2.399458E-18
7.288283E+03	3.293371E-17	2.412376E-18
7.298186E+03	3.310779E-17	2.425109E-18
7.308088E+03	3.327927E-17	2.437651E-18
7.317991E+03	3.344884E-17	2.450053E-18
7.327894E+03	3.361571E-17	2.462257E-18
7.337796E+03	3.378062E-17	2.474319E-18
7.347699E+03	3.394435E-17	2.486294E-18
7.357601E+03	3.410616E-17	2.498127E-18
7.367504E+03	3.426765E-17	2.509938E-18
7.377406E+03	3.442737E-17	2.521619E-18
7.387309E+03	3.458617E-17	2.533234E-18
7.397211E+03	3.474337E-17	2.544730E-18
7.407114E+03	3.489988E-17	2.556177E-18
7.417017E+03	3.505421E-17	2.567463E-18
7.426919E+03	3.520725E-17	2.578656E-18
7.436822E+03	3.535912E-17	2.589764E-18
7.446724E+03	3.550909E-17	2.600732E-18
7.456627E+03	3.565889E-17	2.611687E-18
7.466529E+03	3.580692E-17	2.622514E-18
7.476432E+03	3.595408E-17	2.633277E-18
7.486334E+03	3.609958E-17	2.643918E-18
7.496237E+03	3.624429E-17	2.654502E-18
7.506140E+03	3.638740E-17	2.664969E-18
7.516042E+03	3.652978E-17	2.675383E-18
7.525945E+03	3.667060E-17	2.685683E-18
7.535847E+03	3.680983E-17	2.695866E-18
7.545750E+03	3.694836E-17	2.705999E-18
7.555652E+03	3.708528E-17	2.716014E-18
7.565555E+03	3.722054E-17	2.725907E-18
7.575457E+03	3.735500E-17	2.735742E-18
7.585360E+03	3.748767E-17	2.745446E-18
7.595263E+03	3.761940E-17	2.755082E-18
7.605165E+03	3.774823E-17	2.764505E-18
7.615068E+03	3.787589E-17	2.773844E-18
7.624970E+03	3.800228E-17	2.783089E-18
7.634873E+03	3.812630E-17	2.792161E-18
7.644775E+03	3.824874E-17	2.801118E-18
7.654678E+03	3.836850E-17	2.809878E-18
7.664581E+03	3.848539E-17	2.818428E-18
7.674483E+03	3.860016E-17	2.826825E-18
7.684386E+03	3.871265E-17	2.835053E-18
