#wls	flux	fluxerr
1.584409E+03	1.703272E-16	5.706413E-17
1.624020E+03	1.768878E-16	5.926112E-17
1.663630E+03	1.827741E-16	6.123213E-17
1.703240E+03	1.878752E-16	6.293998E-17
1.742850E+03	1.920573E-16	6.433986E-17
1.782461E+03	1.951399E-16	6.537136E-17
1.822071E+03	1.968786E-16	6.595258E-17
1.861681E+03	1.970462E-16	6.600743E-17
1.901291E+03	1.954021E-16	6.545538E-17
1.940902E+03	1.917547E-16	6.423224E-17
1.980512E+03	1.861201E-16	6.234351E-17
2.020122E+03	1.788209E-16	5.989722E-17
2.059732E+03	1.706644E-16	5.716390E-17
2.099342E+03	1.629109E-16	5.456561E-17
2.138953E+03	1.567780E-16	5.251021E-17
2.178563E+03	1.528914E-16	5.120720E-17
2.218173E+03	1.509174E-16	5.054478E-17
2.257783E+03	1.497717E-16	5.015978E-17
2.297394E+03	1.484323E-16	4.970988E-17
2.337004E+03	1.461539E-16	4.894553E-17
2.376614E+03	1.425562E-16	4.773938E-17
2.416224E+03	1.375670E-16	4.606727E-17
2.455835E+03	1.313158E-16	4.397260E-17
2.495445E+03	1.240242E-16	4.152967E-17
2.535055E+03	1.159401E-16	3.882148E-17
2.574665E+03	1.073194E-16	3.593378E-17
2.614276E+03	9.839862E-17	3.294574E-17
2.653886E+03	8.938866E-17	2.992802E-17
2.693496E+03	8.047342E-17	2.694219E-17
2.733106E+03	7.181436E-17	2.404231E-17
2.772716E+03	6.353510E-17	2.126976E-17
2.812327E+03	5.573761E-17	1.865868E-17
2.851937E+03	4.850429E-17	1.623663E-17
2.891547E+03	4.189359E-17	1.402316E-17
2.931157E+03	3.594304E-17	1.203083E-17
2.970768E+03	3.066381E-17	1.026334E-17
2.980670E+03	2.944748E-17	9.856118E-18
2.990573E+03	2.827180E-17	9.462513E-18
3.000475E+03	2.713671E-17	9.082502E-18
3.010378E+03	2.604139E-17	8.715810E-18
3.020280E+03	2.498504E-17	8.362166E-18
3.030183E+03	2.396735E-17	8.021473E-18
3.040086E+03	2.298718E-17	7.693341E-18
3.049988E+03	2.204548E-17	7.378089E-18
3.059891E+03	2.114151E-17	7.075471E-18
3.069793E+03	2.027423E-17	6.785141E-18
3.079696E+03	1.944225E-17	6.506630E-18
3.089598E+03	1.864463E-17	6.239622E-18
3.099501E+03	1.788004E-17	5.983676E-18
3.109403E+03	1.714727E-17	5.738383E-18
3.119306E+03	1.644547E-17	5.503458E-18
3.129209E+03	1.577319E-17	5.278418E-18
3.139111E+03	1.512996E-17	5.063103E-18
3.149014E+03	1.451439E-17	4.857049E-18
3.158916E+03	1.392572E-17	4.660004E-18
3.168819E+03	1.336297E-17	4.471635E-18
3.178721E+03	1.282516E-17	4.291615E-18
3.188624E+03	1.231155E-17	4.119698E-18
3.198526E+03	1.182121E-17	3.955571E-18
3.208429E+03	1.135304E-17	3.798868E-18
3.218332E+03	1.090674E-17	3.649483E-18
3.228234E+03	1.048088E-17	3.506942E-18
3.238137E+03	1.007515E-17	3.371140E-18
3.248039E+03	9.688394E-18	3.241691E-18
3.257942E+03	9.319992E-18	3.118385E-18
3.267844E+03	8.969304E-18	3.001009E-18
3.277747E+03	8.635308E-18	2.889221E-18
3.287650E+03	8.317547E-18	2.782867E-18
3.297552E+03	8.015312E-18	2.681710E-18
3.307455E+03	7.727801E-18	2.585482E-18
3.317357E+03	7.454371E-18	2.493968E-18
3.327260E+03	7.194398E-18	2.406958E-18
3.337162E+03	6.947380E-18	2.324284E-18
3.347065E+03	6.712546E-18	2.245688E-18
3.356967E+03	6.489528E-18	2.171047E-18
3.366870E+03	6.277618E-18	2.100124E-18
3.376773E+03	6.076320E-18	2.032754E-18
3.386675E+03	5.885230E-18	1.968799E-18
3.396578E+03	5.703668E-18	1.908034E-18
3.406480E+03	5.531347E-18	1.850361E-18
3.416383E+03	5.367786E-18	1.795621E-18
3.426285E+03	5.212404E-18	1.743617E-18
3.436188E+03	5.064966E-18	1.694273E-18
3.446090E+03	4.924950E-18	1.647413E-18
3.455993E+03	4.792040E-18	1.602930E-18
3.465896E+03	4.665881E-18	1.560707E-18
3.475798E+03	4.545987E-18	1.520581E-18
3.485701E+03	4.432110E-18	1.482468E-18
3.495603E+03	4.323869E-18	1.446241E-18
3.505506E+03	4.220918E-18	1.411785E-18
3.515408E+03	4.122975E-18	1.379004E-18
3.525311E+03	4.029699E-18	1.347786E-18
3.535213E+03	3.940814E-18	1.318037E-18
3.545116E+03	3.856025E-18	1.289658E-18
3.555019E+03	3.775133E-18	1.262584E-18
3.564921E+03	3.697918E-18	1.236740E-18
3.574824E+03	3.624134E-18	1.212044E-18
3.584726E+03	3.553625E-18	1.188444E-18
3.594629E+03	3.486236E-18	1.165889E-18
3.604531E+03	3.421762E-18	1.144308E-18
3.614434E+03	3.360161E-18	1.123689E-18
3.624337E+03	3.301237E-18	1.103966E-18
3.634239E+03	3.244922E-18	1.085116E-18
3.644142E+03	3.191121E-18	1.067107E-18
3.654044E+03	3.139736E-18	1.049906E-18
3.663947E+03	3.090702E-18	1.033492E-18
3.673849E+03	3.043978E-18	1.017851E-18
3.683752E+03	2.999417E-18	1.002933E-18
3.693654E+03	2.957030E-18	9.887430E-19
3.703557E+03	2.916699E-18	9.752408E-19
3.713460E+03	2.878384E-18	9.624129E-19
3.723362E+03	2.842041E-18	9.502448E-19
3.733265E+03	2.807560E-18	9.386992E-19
3.743167E+03	2.774944E-18	9.277776E-19
3.753070E+03	2.744106E-18	9.174510E-19
3.762972E+03	2.715008E-18	9.077061E-19
3.772875E+03	2.687587E-18	8.985223E-19
3.782777E+03	2.661806E-18	8.898868E-19
3.792680E+03	2.637606E-18	8.817802E-19
3.802583E+03	2.614950E-18	8.741900E-19
3.812485E+03	2.593784E-18	8.670980E-19
3.822388E+03	2.574095E-18	8.605000E-19
3.832290E+03	2.555828E-18	8.543776E-19
3.842193E+03	2.538936E-18	8.487146E-19
3.852095E+03	2.523384E-18	8.434999E-19
3.861998E+03	2.509126E-18	8.387176E-19
3.871900E+03	2.496154E-18	8.343654E-19
3.881803E+03	2.484421E-18	8.304277E-19
3.891706E+03	2.473902E-18	8.268953E-19
3.901608E+03	2.464551E-18	8.237538E-19
3.911511E+03	2.456328E-18	8.209889E-19
3.921413E+03	2.449244E-18	8.186051E-19
3.931316E+03	2.443225E-18	8.165770E-19
3.941218E+03	2.438265E-18	8.149030E-19
3.951121E+03	2.434326E-18	8.135700E-19
3.961024E+03	2.431388E-18	8.125714E-19
3.970926E+03	2.429433E-18	8.119015E-19
3.980829E+03	2.428408E-18	8.115420E-19
3.990731E+03	2.428309E-18	8.114922E-19
4.000634E+03	2.429107E-18	8.117417E-19
4.010536E+03	2.430784E-18	8.122851E-19
4.020439E+03	2.433307E-18	8.131110E-19
4.030341E+03	2.436644E-18	8.142088E-19
4.040244E+03	2.440802E-18	8.155807E-19
4.050147E+03	2.445729E-18	8.172094E-19
4.060049E+03	2.451417E-18	8.190923E-19
4.069952E+03	2.457855E-18	8.212254E-19
4.079854E+03	2.464995E-18	8.235928E-19
4.089757E+03	2.472848E-18	8.261983E-19
4.099659E+03	2.481367E-18	8.290261E-19
4.109562E+03	2.490546E-18	8.320744E-19
4.119464E+03	2.500377E-18	8.353399E-19
4.129367E+03	2.510817E-18	8.388089E-19
4.139270E+03	2.521879E-18	8.424853E-19
4.149172E+03	2.533500E-18	8.463478E-19
4.159075E+03	2.545713E-18	8.504082E-19
4.168977E+03	2.558457E-18	8.546456E-19
4.178880E+03	2.571728E-18	8.590586E-19
4.188782E+03	2.585502E-18	8.636394E-19
4.198685E+03	2.599778E-18	8.683876E-19
4.208587E+03	2.614493E-18	8.732819E-19
4.218490E+03	2.629665E-18	8.783286E-19
4.228393E+03	2.645253E-18	8.835135E-19
4.238295E+03	2.661212E-18	8.888223E-19
4.248198E+03	2.677542E-18	8.942545E-19
4.258100E+03	2.694221E-18	8.998029E-19
4.268003E+03	2.711183E-18	9.054456E-19
4.277905E+03	2.728407E-18	9.111750E-19
4.287808E+03	2.745867E-18	9.169832E-19
4.297711E+03	2.763539E-18	9.228616E-19
4.307613E+03	2.781400E-18	9.288024E-19
4.317516E+03	2.799442E-18	9.348034E-19
4.327418E+03	2.817643E-18	9.408572E-19
4.337321E+03	2.835974E-18	9.469538E-19
4.347223E+03	2.854478E-18	9.531075E-19
4.357126E+03	2.873127E-18	9.593092E-19
4.367028E+03	2.891917E-18	9.655579E-19
4.376931E+03	2.910871E-18	9.718606E-19
4.386834E+03	2.929985E-18	9.782160E-19
4.396736E+03	2.949235E-18	9.846167E-19
4.406639E+03	2.968642E-18	9.910690E-19
4.416541E+03	2.988182E-18	9.975656E-19
4.426444E+03	3.007858E-18	1.004107E-18
4.436346E+03	3.027669E-18	1.010692E-18
4.446249E+03	3.047570E-18	1.017308E-18
4.456151E+03	3.067587E-18	1.023961E-18
4.466054E+03	3.087701E-18	1.030647E-18
4.475957E+03	3.107895E-18	1.037358E-18
4.485859E+03	3.128173E-18	1.044097E-18
4.495762E+03	3.148493E-18	1.050849E-18
4.505664E+03	3.168865E-18	1.057618E-18
4.515567E+03	3.189301E-18	1.064408E-18
4.525469E+03	3.209785E-18	1.071214E-18
4.535372E+03	3.230280E-18	1.078022E-18
4.545274E+03	3.250799E-18	1.084838E-18
4.555177E+03	3.271333E-18	1.091658E-18
4.565080E+03	3.291870E-18	1.098479E-18
4.574982E+03	3.312431E-18	1.105307E-18
4.584885E+03	3.332981E-18	1.112131E-18
4.594787E+03	3.353539E-18	1.118957E-18
4.604690E+03	3.374102E-18	1.125784E-18
4.614592E+03	3.394666E-18	1.132610E-18
4.624495E+03	3.415225E-18	1.139434E-18
4.634398E+03	3.435776E-18	1.146256E-18
4.644300E+03	3.456319E-18	1.153073E-18
4.654203E+03	3.476911E-18	1.159907E-18
4.664105E+03	3.497554E-18	1.166756E-18
4.674008E+03	3.518249E-18	1.173623E-18
4.683910E+03	3.539060E-18	1.180527E-18
4.693813E+03	3.559962E-18	1.187461E-18
4.703715E+03	3.580956E-18	1.194425E-18
4.713618E+03	3.602082E-18	1.201433E-18
4.723521E+03	3.623344E-18	1.208485E-18
4.733423E+03	3.644718E-18	1.215574E-18
4.743326E+03	3.666244E-18	1.222713E-18
4.753228E+03	3.687930E-18	1.229904E-18
4.763131E+03	3.709750E-18	1.237139E-18
4.773033E+03	3.731751E-18	1.244434E-18
4.782936E+03	3.753939E-18	1.251791E-18
4.792838E+03	3.776329E-18	1.259214E-18
4.802741E+03	3.798929E-18	1.266706E-18
4.812644E+03	3.821720E-18	1.274262E-18
4.822546E+03	3.844784E-18	1.281907E-18
4.832449E+03	3.868064E-18	1.289624E-18
4.842351E+03	3.891572E-18	1.297415E-18
4.852254E+03	3.915358E-18	1.305299E-18
4.862156E+03	3.939440E-18	1.313281E-18
4.872059E+03	3.963829E-18	1.321364E-18
4.881961E+03	3.988469E-18	1.329530E-18
4.891864E+03	4.013448E-18	1.337808E-18
4.901767E+03	4.038743E-18	1.346190E-18
4.911669E+03	4.064367E-18	1.354681E-18
4.921572E+03	4.090335E-18	1.363286E-18
4.931474E+03	4.116660E-18	1.372009E-18
4.941377E+03	4.143315E-18	1.380841E-18
4.951279E+03	4.170311E-18	1.389785E-18
4.961182E+03	4.197700E-18	1.398859E-18
4.971085E+03	4.225449E-18	1.408053E-18
4.980987E+03	4.253529E-18	1.417355E-18
4.990890E+03	4.282024E-18	1.426796E-18
5.000792E+03	4.310820E-18	1.436335E-18
5.010695E+03	4.340003E-18	1.446001E-18
5.020597E+03	4.369577E-18	1.455798E-18
5.030500E+03	4.399418E-18	1.465682E-18
5.040402E+03	4.429657E-18	1.475697E-18
5.050305E+03	4.460205E-18	1.485814E-18
5.060208E+03	4.491067E-18	1.496035E-18
5.070110E+03	4.522280E-18	1.506371E-18
5.080013E+03	4.553757E-18	1.516794E-18
5.089915E+03	4.585494E-18	1.527303E-18
5.099818E+03	4.617532E-18	1.537910E-18
5.109720E+03	4.649820E-18	1.548600E-18
5.119623E+03	4.682354E-18	1.559369E-18
5.129525E+03	4.715079E-18	1.570202E-18
5.139428E+03	4.748035E-18	1.581110E-18
5.149331E+03	4.781118E-18	1.592059E-18
5.159233E+03	4.814411E-18	1.603076E-18
5.169136E+03	4.847857E-18	1.614143E-18
5.179038E+03	4.881396E-18	1.625240E-18
5.188941E+03	4.915012E-18	1.636361E-18
5.198843E+03	4.948738E-18	1.647517E-18
5.208746E+03	4.982457E-18	1.658669E-18
5.218648E+03	5.016201E-18	1.669828E-18
5.228551E+03	5.049998E-18	1.681004E-18
5.238454E+03	5.083676E-18	1.692138E-18
5.248356E+03	5.117360E-18	1.703273E-18
5.258259E+03	5.150876E-18	1.714351E-18
5.268161E+03	5.184345E-18	1.725411E-18
5.278064E+03	5.217590E-18	1.736395E-18
5.287966E+03	5.250681E-18	1.747327E-18
5.297869E+03	5.283591E-18	1.758197E-18
5.307772E+03	5.316236E-18	1.768977E-18
5.317674E+03	5.348693E-18	1.779693E-18
5.327577E+03	5.380774E-18	1.790283E-18
5.337479E+03	5.412606E-18	1.800788E-18
5.347382E+03	5.444111E-18	1.811183E-18
5.357284E+03	5.475258E-18	1.821457E-18
5.367187E+03	5.506020E-18	1.831602E-18
5.377089E+03	5.536373E-18	1.841609E-18
5.386992E+03	5.566229E-18	1.851449E-18
5.396895E+03	5.595565E-18	1.861115E-18
5.406797E+03	5.624351E-18	1.870597E-18
5.416700E+03	5.652562E-18	1.879885E-18
5.426602E+03	5.680112E-18	1.888953E-18
5.436505E+03	5.706916E-18	1.897770E-18
5.446407E+03	5.732999E-18	1.906347E-18
5.456310E+03	5.758277E-18	1.914655E-18
5.466212E+03	5.782659E-18	1.922663E-18
5.476115E+03	5.806055E-18	1.930342E-18
5.486018E+03	5.828490E-18	1.937700E-18
5.495920E+03	5.849816E-18	1.944688E-18
5.505823E+03	5.870056E-18	1.951314E-18
5.515725E+03	5.889058E-18	1.957527E-18
5.525628E+03	5.906791E-18	1.963317E-18
5.535530E+03	5.923277E-18	1.968691E-18
5.545433E+03	5.938366E-18	1.973600E-18
5.555335E+03	5.952085E-18	1.978052E-18
5.565238E+03	5.964407E-18	1.982039E-18
5.575141E+03	5.975237E-18	1.985529E-18
5.585043E+03	5.984550E-18	1.988514E-18
5.594946E+03	5.992383E-18	1.991006E-18
5.604848E+03	5.998713E-18	1.992999E-18
5.614751E+03	6.003456E-18	1.994463E-18
5.624653E+03	6.006661E-18	1.995415E-18
5.634556E+03	6.008376E-18	1.995872E-18
5.644459E+03	6.008465E-18	1.995788E-18
5.654361E+03	6.006985E-18	1.995182E-18
5.664264E+03	6.003998E-18	1.994075E-18
5.674166E+03	5.999504E-18	1.992467E-18
5.684069E+03	5.993507E-18	1.990359E-18
5.693971E+03	5.986018E-18	1.987756E-18
5.703874E+03	5.977044E-18	1.984659E-18
5.713776E+03	5.966668E-18	1.981096E-18
5.723679E+03	5.954843E-18	1.977052E-18
5.733582E+03	5.941717E-18	1.972576E-18
5.743484E+03	5.927253E-18	1.967656E-18
5.753387E+03	5.911480E-18	1.962301E-18
5.763289E+03	5.894556E-18	1.956565E-18
5.773192E+03	5.876390E-18	1.950415E-18
5.783094E+03	5.857085E-18	1.943888E-18
5.792997E+03	5.836749E-18	1.937019E-18
5.802899E+03	5.815366E-18	1.929803E-18
5.812802E+03	5.793048E-18	1.922277E-18
5.822705E+03	5.769786E-18	1.914438E-18
5.832607E+03	5.745769E-18	1.906348E-18
5.842510E+03	5.720991E-18	1.898007E-18
5.852412E+03	5.695517E-18	1.889435E-18
5.862315E+03	5.669473E-18	1.880675E-18
5.872217E+03	5.642866E-18	1.871728E-18
5.882120E+03	5.615821E-18	1.862636E-18
5.892022E+03	5.588348E-18	1.853403E-18
5.901925E+03	5.560574E-18	1.844071E-18
5.911828E+03	5.532564E-18	1.834661E-18
5.921730E+03	5.504386E-18	1.825196E-18
5.931633E+03	5.476036E-18	1.815675E-18
5.941535E+03	5.447643E-18	1.806140E-18
5.951438E+03	5.419264E-18	1.796610E-18
5.961340E+03	5.390895E-18	1.787084E-18
5.971243E+03	5.362652E-18	1.777601E-18
5.981146E+03	5.334525E-18	1.768157E-18
5.991048E+03	5.306502E-18	1.758748E-18
6.000951E+03	5.278759E-18	1.749432E-18
6.010853E+03	5.251213E-18	1.740182E-18
6.020756E+03	5.223972E-18	1.731035E-18
6.030658E+03	5.196948E-18	1.721960E-18
6.040561E+03	5.170243E-18	1.712991E-18
6.050463E+03	5.143833E-18	1.704120E-18
6.060366E+03	5.117747E-18	1.695357E-18
6.070269E+03	5.092017E-18	1.686713E-18
6.080171E+03	5.066608E-18	1.678176E-18
6.090074E+03	5.041547E-18	1.669755E-18
6.099976E+03	5.016857E-18	1.661457E-18
6.109879E+03	4.992560E-18	1.653290E-18
6.119781E+03	4.968675E-18	1.645260E-18
6.129684E+03	4.945155E-18	1.637352E-18
6.139586E+03	4.922079E-18	1.629591E-18
6.149489E+03	4.899459E-18	1.621982E-18
6.159392E+03	4.877308E-18	1.614528E-18
6.169294E+03	4.855696E-18	1.607253E-18
6.179197E+03	4.834695E-18	1.600182E-18
6.189099E+03	4.814376E-18	1.593336E-18
6.199002E+03	4.794807E-18	1.586739E-18
6.208904E+03	4.776057E-18	1.580413E-18
6.218807E+03	4.758259E-18	1.574403E-18
6.228709E+03	4.741350E-18	1.568687E-18
6.238612E+03	4.725590E-18	1.563352E-18
6.248515E+03	4.710920E-18	1.558377E-18
6.258417E+03	4.697472E-18	1.553807E-18
6.268320E+03	4.685314E-18	1.549664E-18
6.278222E+03	4.674515E-18	1.545970E-18
6.288125E+03	4.665078E-18	1.542727E-18
6.298027E+03	4.657076E-18	1.539958E-18
6.307930E+03	4.650581E-18	1.537688E-18
6.317833E+03	4.645597E-18	1.535916E-18
6.327735E+03	4.642133E-18	1.534647E-18
6.337638E+03	4.640263E-18	1.533905E-18
6.347540E+03	4.639861E-18	1.533647E-18
6.357443E+03	4.640933E-18	1.533876E-18
6.367345E+03	4.643419E-18	1.534572E-18
6.377248E+03	4.647186E-18	1.535690E-18
6.387150E+03	4.652311E-18	1.537256E-18
6.397053E+03	4.658657E-18	1.539225E-18
6.406956E+03	4.666301E-18	1.541622E-18
6.416858E+03	4.675247E-18	1.544448E-18
6.426761E+03	4.685431E-18	1.547682E-18
6.436663E+03	4.696858E-18	1.551325E-18
6.446566E+03	4.709531E-18	1.555379E-18
6.456468E+03	4.723458E-18	1.559845E-18
6.466371E+03	4.738642E-18	1.564726E-18
6.476273E+03	4.755166E-18	1.570047E-18
6.486176E+03	4.772965E-18	1.575787E-18
6.496079E+03	4.791964E-18	1.581923E-18
6.505981E+03	4.812325E-18	1.588506E-18
6.515884E+03	4.833902E-18	1.595489E-18
6.525786E+03	4.856781E-18	1.602900E-18
6.535689E+03	4.880965E-18	1.610739E-18
6.545591E+03	4.906466E-18	1.619012E-18
6.555494E+03	4.933293E-18	1.627719E-18
6.565396E+03	4.961373E-18	1.636838E-18
6.575299E+03	4.990793E-18	1.646397E-18
6.585202E+03	5.021480E-18	1.656371E-18
6.595104E+03	5.053529E-18	1.666792E-18
6.605007E+03	5.086862E-18	1.677635E-18
6.614909E+03	5.121487E-18	1.688901E-18
6.624812E+03	5.157501E-18	1.700621E-18
6.634714E+03	5.194916E-18	1.712802E-18
6.644617E+03	5.233566E-18	1.725386E-18
6.654520E+03	5.273637E-18	1.738437E-18
6.664422E+03	5.314959E-18	1.751896E-18
6.674325E+03	5.357724E-18	1.765828E-18
6.684227E+03	5.401853E-18	1.780206E-18
6.694130E+03	5.447262E-18	1.795003E-18
6.704032E+03	5.494152E-18	1.810284E-18
6.713935E+03	5.542343E-18	1.825990E-18
6.723837E+03	5.591939E-18	1.842156E-18
6.733740E+03	5.642957E-18	1.858787E-18
6.743643E+03	5.695406E-18	1.875885E-18
6.753545E+03	5.749199E-18	1.893421E-18
6.763448E+03	5.804445E-18	1.911432E-18
6.773350E+03	5.861054E-18	1.929888E-18
6.783253E+03	5.919142E-18	1.948827E-18
6.793155E+03	5.978612E-18	1.968216E-18
6.803058E+03	6.039475E-18	1.988060E-18
6.812960E+03	6.101850E-18	2.008396E-18
6.822863E+03	6.165522E-18	2.029155E-18
6.832766E+03	6.230727E-18	2.050414E-18
6.842668E+03	6.297361E-18	2.072138E-18
6.852571E+03	6.365433E-18	2.094330E-18
6.862473E+03	6.434949E-18	2.116993E-18
6.872376E+03	6.505918E-18	2.140127E-18
6.882278E+03	6.578222E-18	2.163696E-18
6.892181E+03	6.651991E-18	2.187742E-18
6.902083E+03	6.727230E-18	2.212265E-18
6.911986E+03	6.803948E-18	2.237269E-18
6.921889E+03	6.881886E-18	2.262668E-18
6.931791E+03	6.961442E-18	2.288594E-18
6.941694E+03	7.042217E-18	2.314914E-18
6.951596E+03	7.124483E-18	2.341719E-18
6.961499E+03	7.208104E-18	2.368962E-18
6.971401E+03	7.293078E-18	2.396644E-18
6.981304E+03	7.379403E-18	2.424763E-18
6.991207E+03	7.467077E-18	2.453320E-18
7.001109E+03	7.555946E-18	2.482262E-18
7.011012E+03	7.646153E-18	2.511637E-18
7.020914E+03	7.737692E-18	2.541443E-18
7.030817E+03	7.830399E-18	2.571626E-18
7.040719E+03	7.924426E-18	2.602235E-18
7.050622E+03	8.019599E-18	2.633213E-18
7.060524E+03	8.115906E-18	2.664557E-18
7.070427E+03	8.213330E-18	2.696260E-18
7.080330E+03	8.312026E-18	2.728373E-18
7.090232E+03	8.411634E-18	2.760778E-18
7.100135E+03	8.512131E-18	2.793467E-18
7.110037E+03	8.613846E-18	2.826548E-18
7.119940E+03	8.716403E-18	2.859898E-18
7.129842E+03	8.819769E-18	2.893506E-18
7.139745E+03	8.924104E-18	2.927424E-18
7.149647E+03	9.029190E-18	2.961580E-18
7.159550E+03	9.134992E-18	2.995963E-18
7.169453E+03	9.241476E-18	3.030561E-18
7.179355E+03	9.348604E-18	3.065363E-18
7.189258E+03	9.456541E-18	3.100422E-18
7.199160E+03	9.564843E-18	3.135592E-18
7.209063E+03	9.673877E-18	3.170995E-18
7.218965E+03	9.783400E-18	3.206549E-18
7.228868E+03	9.893364E-18	3.242239E-18
7.238770E+03	1.000394E-17	3.278123E-18
7.248673E+03	1.011488E-17	3.314116E-18
7.258576E+03	1.022635E-17	3.350274E-18
7.268478E+03	1.033832E-17	3.386586E-18
7.278381E+03	1.045097E-17	3.423116E-18
7.288283E+03	1.056428E-17	3.459852E-18
7.298186E+03	1.067846E-17	3.496863E-18
7.308088E+03	1.079323E-17	3.534061E-18
7.317991E+03	1.090932E-17	3.571680E-18
7.327894E+03	1.102672E-17	3.609721E-18
7.337796E+03	1.114517E-17	3.648097E-18
7.347699E+03	1.126545E-17	3.687062E-18
7.357601E+03	1.138731E-17	3.726535E-18
7.367504E+03	1.151103E-17	3.766608E-18
7.377406E+03	1.163636E-17	3.807198E-18
7.387309E+03	1.176358E-17	3.848398E-18
7.397211E+03	1.189188E-17	3.889941E-18
7.407114E+03	1.202181E-17	3.932008E-18
7.417017E+03	1.215251E-17	3.974316E-18
7.426919E+03	1.228424E-17	4.016953E-18
7.436822E+03	1.241669E-17	4.059815E-18
7.446724E+03	1.254953E-17	4.102794E-18
7.456627E+03	1.268302E-17	4.145975E-18
7.466529E+03	1.281619E-17	4.189042E-18
7.476432E+03	1.294960E-17	4.232178E-18
7.486334E+03	1.308287E-17	4.275261E-18
7.496237E+03	1.321596E-17	4.318273E-18
7.506140E+03	1.334846E-17	4.361083E-18
7.516042E+03	1.348063E-17	4.403776E-18
7.525945E+03	1.361207E-17	4.446218E-18
7.535847E+03	1.374268E-17	4.488383E-18
7.545750E+03	1.387274E-17	4.530358E-18
7.555652E+03	1.400182E-17	4.572004E-18
7.565555E+03	1.413019E-17	4.613410E-18
7.575457E+03	1.425706E-17	4.654315E-18
7.585360E+03	1.438305E-17	4.694926E-18
7.595263E+03	1.450773E-17	4.735097E-18
7.605165E+03	1.463136E-17	4.774919E-18
7.615068E+03	1.475349E-17	4.814245E-18
7.624970E+03	1.487404E-17	4.853046E-18
7.634873E+03	1.499291E-17	4.891289E-18
7.644775E+03	1.511079E-17	4.929203E-18
7.654678E+03	1.522643E-17	4.966375E-18
7.664581E+03	1.534091E-17	5.003165E-18
7.674483E+03	1.545337E-17	5.039287E-18
7.684386E+03	1.556412E-17	5.074845E-18
