#wls	flux	fluxerr
1.584409E+03	2.006404E-15	-4.362138E-15
1.624020E+03	1.957458E-15	-4.280632E-15
1.663630E+03	1.899170E-15	-4.177821E-15
1.703240E+03	1.832259E-15	-4.054903E-15
1.742850E+03	1.756795E-15	-3.911652E-15
1.782461E+03	1.667354E-15	-3.735479E-15
1.822071E+03	1.570025E-15	-3.539532E-15
1.861681E+03	1.465339E-15	-3.324612E-15
1.901291E+03	1.353808E-15	-3.091482E-15
1.940902E+03	1.231423E-15	-2.830452E-15
1.980512E+03	1.106440E-15	-2.560135E-15
2.020122E+03	9.826798E-16	-2.289192E-15
2.059732E+03	8.656130E-16	-2.030390E-15
2.099342E+03	7.578499E-16	-1.790005E-15
2.138953E+03	6.675114E-16	-1.587815E-15
2.178563E+03	5.943349E-16	-1.423964E-15
2.218173E+03	5.341353E-16	-1.289151E-15
2.257783E+03	4.789746E-16	-1.164602E-15
2.297394E+03	4.274249E-16	-1.047130E-15
2.337004E+03	3.775538E-16	-9.320972E-16
2.376614E+03	3.290625E-16	-8.187844E-16
2.416224E+03	2.809447E-16	-7.046057E-16
2.455835E+03	2.360917E-16	-5.969174E-16
2.495445E+03	1.952549E-16	-4.977601E-16
2.535055E+03	1.588999E-16	-4.085126E-16
2.574665E+03	1.263622E-16	-3.276312E-16
2.614276E+03	9.878308E-17	-2.583591E-16
2.653886E+03	7.587630E-17	-2.002213E-16
2.693496E+03	5.722970E-17	-1.523990E-16
2.733106E+03	4.198856E-17	-1.128412E-16
2.772716E+03	3.016522E-17	-8.183182E-17
2.812327E+03	2.119199E-17	-5.804610E-17
2.851937E+03	1.453689E-17	-4.021327E-17
2.891547E+03	9.615530E-18	-2.686557E-17
2.931157E+03	6.171922E-18	-1.742169E-17
2.970768E+03	3.829286E-18	-1.092352E-17
2.980670E+03	3.378405E-18	-9.663198E-18
2.990573E+03	2.966410E-18	-8.507423E-18
3.000475E+03	2.597162E-18	-7.468477E-18
3.010378E+03	2.266801E-18	-6.536141E-18
3.020280E+03	1.971968E-18	-5.701531E-18
3.030183E+03	1.707341E-18	-4.949902E-18
3.040086E+03	1.472441E-18	-4.280633E-18
3.049988E+03	1.264423E-18	-3.686082E-18
3.059891E+03	1.080777E-18	-3.159518E-18
3.069793E+03	9.175997E-19	-2.689992E-18
3.079696E+03	7.743652E-19	-2.276491E-18
3.089598E+03	6.489856E-19	-1.913318E-18
3.099501E+03	5.395529E-19	-1.595246E-18
3.109403E+03	4.434432E-19	-1.314844E-18
3.119306E+03	3.601967E-19	-1.071096E-18
3.129209E+03	2.883761E-19	-8.600241E-19
3.139111E+03	2.266729E-19	-6.779907E-19
3.149014E+03	1.733075E-19	-5.198944E-19
3.158916E+03	1.279490E-19	-3.849629E-19
3.168819E+03	8.962127E-20	-2.704505E-19
3.178721E+03	5.744837E-20	-1.738841E-19
3.188624E+03	3.026905E-20	-9.189402E-20
3.198526E+03	7.851673E-21	-2.390936E-20
3.208429E+03	-1.043935E-20	3.188658E-20
3.218332E+03	-2.516933E-20	7.711624E-20
3.228234E+03	-3.707565E-20	1.139472E-19
3.238137E+03	-4.630748E-20	1.427639E-19
3.248039E+03	-5.326195E-20	1.647208E-19
3.257942E+03	-5.828996E-20	1.808427E-19
3.267844E+03	-6.184113E-20	1.924694E-19
3.277747E+03	-6.399948E-20	1.998250E-19
3.287650E+03	-6.500414E-20	2.036180E-19
3.297552E+03	-6.506065E-20	2.044596E-19
3.307455E+03	-6.442944E-20	2.031369E-19
3.317357E+03	-6.315534E-20	1.997756E-19
3.327260E+03	-6.137247E-20	1.947813E-19
3.337162E+03	-5.919532E-20	1.885018E-19
3.347065E+03	-5.676781E-20	1.813785E-19
3.356967E+03	-5.411041E-20	1.734737E-19
3.366870E+03	-5.129372E-20	1.650062E-19
3.376773E+03	-4.837668E-20	1.561597E-19
3.386675E+03	-4.543390E-20	1.471673E-19
3.396578E+03	-4.247149E-20	1.380516E-19
3.406480E+03	-3.952487E-20	1.289264E-19
3.416383E+03	-3.662173E-20	1.198816E-19
3.426285E+03	-3.379479E-20	1.110214E-19
3.436188E+03	-3.104551E-20	1.023563E-19
3.446090E+03	-2.838840E-20	9.393581E-20
3.455993E+03	-2.583471E-20	8.579938E-20
3.465896E+03	-2.339423E-20	7.797957E-20
3.475798E+03	-2.106762E-20	7.048478E-20
3.485701E+03	-1.885837E-20	6.332983E-20
3.495603E+03	-1.676919E-20	5.652719E-20
3.505506E+03	-1.479847E-20	5.007313E-20
3.515408E+03	-1.294667E-20	4.397500E-20
3.525311E+03	-1.121301E-20	3.823378E-20
3.535213E+03	-9.595706E-21	3.284713E-20
3.545116E+03	-8.088370E-21	2.779576E-20
3.555019E+03	-6.691909E-21	2.308782E-20
3.564921E+03	-5.403414E-21	1.871696E-20
3.574824E+03	-4.219790E-21	1.467611E-20
3.584726E+03	-3.132242E-21	1.093782E-20
3.594629E+03	-2.142201E-21	7.511215E-21
3.604531E+03	-1.246037E-21	4.387081E-21
3.614434E+03	-4.399980E-22	1.555644E-21
3.624337E+03	2.849262E-22	-1.011600E-21
3.634239E+03	9.272470E-22	-3.306055E-21
3.644142E+03	1.490776E-21	-5.338098E-21
3.654044E+03	1.979355E-21	-7.118344E-21
3.663947E+03	2.401469E-21	-8.673929E-21
3.673849E+03	2.755966E-21	-9.998133E-21
3.683752E+03	3.046544E-21	-1.110149E-20
3.693654E+03	3.276951E-21	-1.199489E-20
3.703557E+03	3.454728E-21	-1.270267E-20
3.713460E+03	3.579122E-21	-1.322016E-20
3.723362E+03	3.653710E-21	-1.355808E-20
3.733265E+03	3.681847E-21	-1.372646E-20
3.743167E+03	3.669993E-21	-1.374643E-20
3.753070E+03	3.617947E-21	-1.361585E-20
3.762972E+03	3.528855E-21	-1.334444E-20
3.772875E+03	3.405911E-21	-1.294229E-20
3.782777E+03	3.254343E-21	-1.242671E-20
3.792680E+03	3.074468E-21	-1.179792E-20
3.802583E+03	2.869205E-21	-1.106543E-20
3.812485E+03	2.641471E-21	-1.023889E-20
3.822388E+03	2.395290E-21	-9.331896E-21
3.832290E+03	2.131661E-21	-8.347659E-21
3.842193E+03	1.853245E-21	-7.295329E-21
3.852095E+03	1.562657E-21	-6.184045E-21
3.861998E+03	1.262965E-21	-5.024612E-21
3.871900E+03	9.557135E-22	-3.822730E-21
3.881803E+03	6.433632E-22	-2.587439E-21
3.891706E+03	3.283175E-22	-1.327730E-21
3.901608E+03	1.273235E-23	-5.177650E-23
3.911511E+03	-3.012906E-22	1.232120E-21
3.921413E+03	-6.115010E-22	2.515037E-21
3.931316E+03	-9.157038E-22	3.788077E-21
3.941218E+03	-1.212541E-21	5.045266E-21
3.951121E+03	-1.499464E-21	6.276045E-21
3.961024E+03	-1.774447E-21	7.471623E-21
3.970926E+03	-2.035505E-21	8.623153E-21
3.980829E+03	-2.282017E-21	9.726654E-21
3.990731E+03	-2.511127E-21	1.076976E-20
4.000634E+03	-2.721082E-21	1.174397E-20
4.010536E+03	-2.910197E-21	1.264083E-20
4.020439E+03	-3.078543E-21	1.345824E-20
4.030341E+03	-3.223137E-21	1.418267E-20
4.040244E+03	-3.342562E-21	1.480615E-20
4.050147E+03	-3.435539E-21	1.532108E-20
4.060049E+03	-3.502834E-21	1.572744E-20
4.069952E+03	-3.541546E-21	1.601128E-20
4.079854E+03	-3.550723E-21	1.616578E-20
4.089757E+03	-3.529557E-21	1.618453E-20
4.099659E+03	-3.479540E-21	1.607002E-20
4.109562E+03	-3.398057E-21	1.580868E-20
4.119464E+03	-3.284774E-21	1.539566E-20
4.129367E+03	-3.139488E-21	1.482651E-20
4.139270E+03	-2.964399E-21	1.410657E-20
4.149172E+03	-2.757435E-21	1.322381E-20
4.159075E+03	-2.519011E-21	1.217621E-20
4.168977E+03	-2.249685E-21	1.096226E-20
4.178880E+03	-1.952347E-21	9.590752E-21
4.188782E+03	-1.625741E-21	8.052548E-21
4.198685E+03	-1.271116E-21	6.349286E-21
4.208587E+03	-8.899096E-22	4.483500E-21
4.218490E+03	-4.856587E-22	2.468079E-21
4.228393E+03	-5.822371E-23	2.985121E-22
4.238295E+03	3.902064E-22	-2.018695E-21
4.248198E+03	8.571860E-22	-4.475573E-21
4.258100E+03	1.338623E-21	-7.054392E-21
4.268003E+03	1.833285E-21	-9.753184E-21
4.277905E+03	2.337910E-21	-1.255885E-20
4.287808E+03	2.849032E-21	-1.545678E-20
4.297711E+03	3.362201E-21	-1.842392E-20
4.307613E+03	3.874530E-21	-2.144932E-20
4.317516E+03	4.381801E-21	-2.451243E-20
4.327418E+03	4.879512E-21	-2.759029E-20
4.337321E+03	5.363276E-21	-3.065503E-20
4.347223E+03	5.828434E-21	-3.368440E-20
4.357126E+03	6.269971E-21	-3.664935E-20
4.367028E+03	6.682607E-21	-3.951788E-20
4.376931E+03	7.062397E-21	-4.225738E-20
4.386834E+03	7.402916E-21	-4.483194E-20
4.396736E+03	7.698487E-21	-4.720211E-20
4.406639E+03	7.943191E-21	-4.932480E-20
4.416541E+03	8.134235E-21	-5.116472E-20
4.426444E+03	8.263358E-21	-5.266809E-20
4.436346E+03	8.324549E-21	-5.378351E-20
4.446249E+03	8.311732E-21	-5.445594E-20
4.456151E+03	8.223923E-21	-5.464934E-20
4.466054E+03	8.051153E-21	-5.428718E-20
4.475957E+03	7.787785E-21	-5.330605E-20
4.485859E+03	7.428204E-21	-5.163797E-20
4.495762E+03	6.974294E-21	-4.925140E-20
4.505664E+03	6.415047E-21	-4.604346E-20
4.515567E+03	5.745890E-21	-4.193759E-20
4.525469E+03	4.962913E-21	-3.685543E-20
4.535372E+03	4.072017E-21	-3.077761E-20
4.545274E+03	3.061995E-21	-2.356969E-20
4.555177E+03	1.930774E-21	-1.514551E-20
4.565080E+03	6.771974E-22	-5.417092E-21
4.574982E+03	-6.873561E-22	5.609405E-21
4.584885E+03	-2.173084E-21	1.810600E-20
4.594787E+03	-3.778195E-21	3.216541E-20
4.604690E+03	-5.499709E-21	4.788219E-20
4.614592E+03	-7.319732E-21	6.520894E-20
4.624495E+03	-9.245748E-21	8.436203E-20
4.634398E+03	-1.127091E-20	1.054391E-19
4.644300E+03	-1.338672E-20	1.285384E-19
4.654203E+03	-1.556815E-20	1.535508E-19
4.664105E+03	-1.781832E-20	1.807517E-19
4.674008E+03	-2.012380E-20	2.102393E-19
4.683910E+03	-2.246860E-20	2.421058E-19
4.693813E+03	-2.482111E-20	2.761608E-19
4.703715E+03	-2.717695E-20	3.127472E-19
4.713618E+03	-2.951465E-20	3.519593E-19
4.723521E+03	-3.181022E-20	3.938888E-19
4.733423E+03	-3.402632E-20	4.382291E-19
4.743326E+03	-3.614837E-20	4.854206E-19
4.753228E+03	-3.814516E-20	5.355456E-19
4.763131E+03	-3.998346E-20	5.886949E-19
4.773033E+03	-4.162369E-20	6.444208E-19
4.782936E+03	-4.303535E-20	7.032771E-19
4.792838E+03	-4.417704E-20	7.653440E-19
4.802741E+03	-4.500455E-20	8.307083E-19
4.812644E+03	-4.548097E-20	8.987464E-19
4.822546E+03	-4.555329E-20	9.701628E-19
4.832449E+03	-4.516743E-20	1.045021E-18
4.842351E+03	-4.426691E-20	1.123413E-18
4.852254E+03	-4.282462E-20	1.204494E-18
4.862156E+03	-4.075513E-20	1.289156E-18
4.872059E+03	-3.799012E-20	1.377447E-18
4.881961E+03	-3.445762E-20	1.469439E-18
4.891864E+03	-3.015120E-20	1.564009E-18
4.901767E+03	-2.493960E-20	1.662265E-18
4.911669E+03	-1.873879E-20	1.764262E-18
4.921572E+03	-1.145919E-20	1.870017E-18
4.931474E+03	-3.131448E-21	1.978085E-18
4.941377E+03	6.438923E-21	2.089820E-18
4.951279E+03	1.735395E-20	2.205247E-18
4.961182E+03	2.972128E-20	2.324362E-18
4.971085E+03	4.345019E-20	2.445283E-18
4.980987E+03	5.882056E-20	2.569692E-18
4.990890E+03	7.595251E-20	2.697543E-18
5.000792E+03	9.497082E-20	2.828753E-18
5.010695E+03	1.156924E-19	2.960985E-18
5.020597E+03	1.385112E-19	3.096287E-18
5.030500E+03	1.635612E-19	3.234493E-18
5.040402E+03	1.909853E-19	3.375506E-18
5.050305E+03	2.204614E-19	3.516400E-18
5.060208E+03	2.525315E-19	3.659611E-18
5.070110E+03	2.873456E-19	3.804967E-18
5.080013E+03	3.250588E-19	3.952282E-18
5.089915E+03	3.651504E-19	4.097969E-18
5.099818E+03	4.083596E-19	4.244973E-18
5.109720E+03	4.548507E-19	4.393096E-18
5.119623E+03	5.047786E-19	4.541996E-18
5.129525E+03	5.573468E-19	4.687378E-18
5.139428E+03	6.135538E-19	4.832770E-18
5.149331E+03	6.735609E-19	4.977854E-18
5.159233E+03	7.375301E-19	5.122284E-18
5.169136E+03	8.042749E-19	5.260908E-18
5.179038E+03	8.751239E-19	5.397862E-18
5.188941E+03	9.502421E-19	5.532838E-18
5.198843E+03	1.029769E-18	5.665357E-18
5.208746E+03	1.111979E-18	5.789426E-18
5.218648E+03	1.198653E-18	5.909899E-18
5.228551E+03	1.289910E-18	6.026278E-18
5.238454E+03	1.385859E-18	6.138050E-18
5.248356E+03	1.484030E-18	6.238493E-18
5.258259E+03	1.586829E-18	6.333186E-18
5.268161E+03	1.694316E-18	6.421551E-18
5.278064E+03	1.806596E-18	6.503210E-18
5.285588E+03	9.046781E-18	3.132810E-17
5.285984E+03	9.078483E-18	3.137384E-17
5.286182E+03	9.092812E-18	3.139133E-17
5.286380E+03	9.106170E-18	3.140541E-17
5.286578E+03	9.119498E-18	3.141938E-17
5.286974E+03	9.149800E-18	3.145968E-17
5.287568E+03	9.196738E-18	3.152468E-17
5.287766E+03	9.210612E-18	3.154012E-17
5.288559E+03	9.275265E-18	3.163257E-17
5.289153E+03	9.322010E-18	3.169513E-17
5.289351E+03	9.334147E-18	3.170414E-17
5.289549E+03	9.346871E-18	3.171508E-17
5.289747E+03	9.358857E-18	3.172350E-17
5.290738E+03	9.440014E-18	3.183625E-17
5.290936E+03	9.450930E-18	3.184069E-17
5.291926E+03	9.531987E-18	3.195099E-17
5.292124E+03	9.542643E-18	3.195425E-17
5.292323E+03	9.553340E-18	3.195760E-17
5.292719E+03	9.581922E-18	3.198817E-17
5.293709E+03	9.662528E-18	3.209387E-17
5.293907E+03	9.673733E-18	3.209849E-17
5.294303E+03	9.701669E-18	3.212589E-17
5.294501E+03	9.711395E-18	3.212547E-17
5.294699E+03	9.721572E-18	3.212650E-17
5.294897E+03	9.730665E-18	3.212394E-17
5.295095E+03	9.739777E-18	3.212140E-17
5.295294E+03	9.749278E-18	3.211996E-17
5.295888E+03	9.793676E-18	3.216815E-17
5.296086E+03	9.801938E-18	3.216281E-17
5.296878E+03	9.864728E-18	3.223776E-17
5.297076E+03	9.873102E-18	3.223241E-17
5.297472E+03	9.899208E-18	3.225212E-17
5.298858E+03	1.001637E-17	3.240305E-17
5.299056E+03	1.002337E-17	3.239282E-17
5.299452E+03	1.004958E-17	3.241174E-17
5.299650E+03	1.005671E-17	3.240185E-17
5.299848E+03	1.006253E-17	3.238777E-17
5.300047E+03	1.006980E-17	3.237832E-17
5.300245E+03	1.007625E-17	3.236623E-17
5.300443E+03	1.008236E-17	3.235304E-17
5.300641E+03	1.008748E-17	3.233668E-17
5.300840E+03	1.009204E-17	3.231837E-17
5.301038E+03	1.009664E-17	3.230037E-17
5.301632E+03	1.013763E-17	3.233303E-17
5.301830E+03	1.014169E-17	3.231322E-17
5.303018E+03	1.023801E-17	3.242246E-17
5.303612E+03	1.027871E-17	3.245256E-17
5.304009E+03	1.030101E-17	3.245712E-17
5.304801E+03	1.036043E-17	3.251235E-17
5.304999E+03	1.036409E-17	3.249092E-17
5.305197E+03	1.036706E-17	3.246732E-17
5.305395E+03	1.036948E-17	3.244204E-17
5.306584E+03	1.046512E-17	3.254286E-17
5.308169E+03	1.059991E-17	3.269609E-17
5.308366E+03	1.060113E-17	3.266693E-17
5.308960E+03	1.064024E-17	3.268794E-17
5.310544E+03	1.077584E-17	3.283761E-17
5.311138E+03	1.081609E-17	3.286034E-17
5.311535E+03	1.083618E-17	3.285461E-17
5.312130E+03	1.087559E-17	3.287408E-17
5.313120E+03	1.095364E-17	3.294290E-17
5.313318E+03	1.095336E-17	3.290872E-17
5.313714E+03	1.097243E-17	3.289936E-17
5.313912E+03	1.097132E-17	3.286275E-17
5.314704E+03	1.102875E-17	3.290136E-17
5.315100E+03	1.104686E-17	3.288874E-17
5.315893E+03	1.110384E-17	3.292482E-17
5.316487E+03	1.114075E-17	3.293410E-17
5.316685E+03	1.113763E-17	3.289157E-17
5.316884E+03	1.113441E-17	3.284864E-17
5.317874E+03	1.121022E-17	3.290537E-17
5.318270E+03	1.122720E-17	3.288855E-17
5.318468E+03	1.122401E-17	3.284595E-17
5.318666E+03	1.121985E-17	3.280057E-17
5.318864E+03	1.121545E-17	3.275452E-17
5.319260E+03	1.123048E-17	3.273210E-17
5.319459E+03	1.122611E-17	3.268628E-17
5.319657E+03	1.122019E-17	3.263600E-17
5.319855E+03	1.121498E-17	3.258783E-17
5.321240E+03	1.132804E-17	3.268409E-17
5.321438E+03	1.132160E-17	3.263247E-17
5.322627E+03	1.141535E-17	3.270330E-17
5.322825E+03	1.140774E-17	3.264841E-17
5.323023E+03	1.139927E-17	3.259115E-17
5.323222E+03	1.139170E-17	3.253656E-17
5.323420E+03	1.138410E-17	3.248194E-17
5.323618E+03	1.137603E-17	3.242607E-17
5.324014E+03	1.138732E-17	3.239258E-17
5.324410E+03	1.139789E-17	3.235708E-17
5.325598E+03	1.148954E-17	3.241967E-17
5.325796E+03	1.148084E-17	3.236231E-17
5.325994E+03	1.146983E-17	3.229854E-17
5.326192E+03	1.145994E-17	3.223802E-17
5.326786E+03	1.148844E-17	3.222015E-17
5.327381E+03	1.151808E-17	3.220524E-17
5.327579E+03	1.150583E-17	3.213842E-17
5.327976E+03	1.151309E-17	3.209344E-17
5.328174E+03	1.150004E-17	3.202462E-17
5.329164E+03	1.156798E-17	3.205101E-17
5.329362E+03	1.155547E-17	3.198390E-17
5.329560E+03	1.154160E-17	3.191316E-17
5.330154E+03	1.156780E-17	3.188852E-17
5.330352E+03	1.155372E-17	3.181743E-17
5.330946E+03	1.157860E-17	3.178911E-17
5.331145E+03	1.156383E-17	3.171638E-17
5.331343E+03	1.154835E-17	3.164182E-17
5.331541E+03	1.153235E-17	3.156597E-17
5.331739E+03	1.151540E-17	3.148762E-17
5.331937E+03	1.149876E-17	3.141027E-17
5.332333E+03	1.150228E-17	3.135624E-17
5.333126E+03	1.154562E-17	3.134680E-17
5.333323E+03	1.152720E-17	3.126520E-17
5.333521E+03	1.150829E-17	3.118227E-17
5.333719E+03	1.148930E-17	3.109926E-17
5.334313E+03	1.150968E-17	3.105975E-17
5.334511E+03	1.148995E-17	3.097507E-17
5.334908E+03	1.148955E-17	3.091121E-17
5.335106E+03	1.146914E-17	3.082502E-17
5.336690E+03	1.158831E-17	3.089340E-17
5.337086E+03	1.158694E-17	3.082706E-17
5.337284E+03	1.156515E-17	3.073786E-17
5.338076E+03	1.160333E-17	3.071434E-17
5.338274E+03	1.158099E-17	3.062408E-17
5.338870E+03	1.159839E-17	3.057656E-17
5.339860E+03	1.165545E-17	3.057134E-17
5.340454E+03	1.167197E-17	3.052145E-17
5.341048E+03	1.168827E-17	3.047097E-17
5.341246E+03	1.166372E-17	3.037604E-17
5.341444E+03	1.163832E-17	3.027911E-17
5.342038E+03	1.165402E-17	3.022759E-17
5.342434E+03	1.164853E-17	3.015195E-17
5.342831E+03	1.164307E-17	3.007655E-17
5.343623E+03	1.167753E-17	3.004306E-17
5.344614E+03	1.173001E-17	3.002471E-17
5.344811E+03	1.170229E-17	2.992344E-17
5.345208E+03	1.169457E-17	2.984267E-17
5.345603E+03	1.168598E-17	2.976022E-17
5.345801E+03	1.165687E-17	2.965586E-17
5.345999E+03	1.162809E-17	2.955253E-17
5.346197E+03	1.159990E-17	2.945087E-17
5.346792E+03	1.160821E-17	2.938202E-17
5.346990E+03	1.157672E-17	2.927247E-17
5.347188E+03	1.154508E-17	2.916272E-17
5.347386E+03	1.151305E-17	2.905217E-17
5.347584E+03	1.148061E-17	2.894080E-17
5.347782E+03	1.144804E-17	2.882930E-17
5.347980E+03	1.141533E-17	2.871761E-17
5.348178E+03	1.138196E-17	2.860449E-17
5.348772E+03	1.138712E-17	2.853005E-17
5.348970E+03	1.135334E-17	2.841639E-17
5.349168E+03	1.131914E-17	2.830192E-17
5.349367E+03	1.128489E-17	2.818736E-17
5.349961E+03	1.128838E-17	2.810995E-17
5.350754E+03	1.131115E-17	2.805189E-17
5.352338E+03	1.140991E-17	2.806647E-17
5.352536E+03	1.137312E-17	2.794739E-17
5.352932E+03	1.135506E-17	2.784606E-17
5.353130E+03	1.131738E-17	2.772530E-17
5.353328E+03	1.127954E-17	2.760435E-17
5.353526E+03	1.124126E-17	2.748257E-17
5.354120E+03	1.124072E-17	2.739708E-17
5.355310E+03	1.129684E-17	2.736523E-17
5.355508E+03	1.125705E-17	2.724092E-17
5.355706E+03	1.121708E-17	2.711641E-17
5.356498E+03	1.123323E-17	2.704449E-17
5.356696E+03	1.119218E-17	2.691806E-17
5.356894E+03	1.115094E-17	2.679143E-17
5.357092E+03	1.110873E-17	2.666267E-17
5.357290E+03	1.106659E-17	2.653434E-17
5.358280E+03	1.109894E-17	2.647605E-17
5.358874E+03	1.109310E-17	2.638081E-17
5.359270E+03	1.106826E-17	2.626778E-17
5.359864E+03	1.106157E-17	2.617124E-17
5.360063E+03	1.101714E-17	2.603924E-17
5.360261E+03	1.097242E-17	2.590695E-17
5.360459E+03	1.092725E-17	2.577381E-17
5.361053E+03	1.091834E-17	2.567361E-17
5.361251E+03	1.087236E-17	2.553924E-17
5.361449E+03	1.082590E-17	2.540401E-17
5.361845E+03	1.079729E-17	2.528485E-17
5.362043E+03	1.075008E-17	2.514844E-17
5.362242E+03	1.070241E-17	2.501121E-17
5.362440E+03	1.065455E-17	2.487377E-17
5.362638E+03	1.060732E-17	2.473807E-17
5.362836E+03	1.056016E-17	2.460279E-17
5.363232E+03	1.052929E-17	2.448049E-17
5.364420E+03	1.056777E-17	2.441873E-17
5.364816E+03	1.053593E-17	2.429507E-17
5.365212E+03	1.050256E-17	2.416832E-17
5.365410E+03	1.045178E-17	2.402671E-17
5.366204E+03	1.045262E-17	2.392970E-17
5.366798E+03	1.043489E-17	2.381534E-17
5.366996E+03	1.038215E-17	2.367055E-17
5.367194E+03	1.032923E-17	2.352561E-17
5.367392E+03	1.027725E-17	2.338309E-17
5.367590E+03	1.022390E-17	2.323772E-17
5.367788E+03	1.017004E-17	2.309148E-17
5.368382E+03	1.014930E-17	2.297317E-17
5.368976E+03	1.012951E-17	2.285748E-17
5.369570E+03	1.010951E-17	2.274175E-17
5.369767E+03	1.005447E-17	2.259469E-17
5.370165E+03	1.001530E-17	2.246010E-17
5.370362E+03	9.959161E-18	2.231124E-17
5.371353E+03	9.967969E-18	2.221567E-17
5.371551E+03	9.911325E-18	2.206659E-17
5.371749E+03	9.854792E-18	2.191803E-17
5.371947E+03	9.796533E-18	2.176592E-17
5.372343E+03	9.755324E-18	2.162952E-17
5.372541E+03	9.698317E-18	2.148088E-17
5.372937E+03	9.655488E-18	2.134177E-17
5.373135E+03	9.596744E-18	2.118996E-17
5.373531E+03	9.553178E-18	2.105009E-17
5.373730E+03	9.492951E-18	2.089571E-17
5.373928E+03	9.433123E-18	2.074251E-17
5.374126E+03	9.373674E-18	2.059043E-17
5.374324E+03	9.312775E-18	2.043545E-17
5.374522E+03	9.252868E-18	2.028295E-17
5.374720E+03	9.192441E-18	2.012960E-17
5.374918E+03	9.131477E-18	1.997536E-17
5.375116E+03	9.069978E-18	1.982025E-17
5.375908E+03	9.052013E-18	1.969907E-17
5.376106E+03	8.990050E-18	1.954392E-17
5.377097E+03	8.985718E-18	1.943317E-17
5.377692E+03	8.951796E-18	1.929948E-17
5.378286E+03	8.917859E-18	1.916641E-17
5.378484E+03	8.855360E-18	1.901229E-17
5.378682E+03	8.790723E-18	1.885388E-17
5.378880E+03	8.726163E-18	1.869594E-17
5.379078E+03	8.661346E-18	1.853777E-17
5.380662E+03	8.695050E-18	1.845543E-17
5.380860E+03	8.628993E-18	1.829613E-17
5.381454E+03	8.591260E-18	1.815917E-17
5.381654E+03	8.526170E-18	1.800270E-17
5.381852E+03	8.459168E-18	1.784260E-17
5.382445E+03	8.419224E-18	1.770289E-17
5.382841E+03	8.364422E-18	1.755094E-17
5.383237E+03	8.310448E-18	1.740129E-17
