#wls	flux	fluxerr
1.584409E+03	1.145993E-16	1.250135E-17
1.624020E+03	1.195781E-16	1.303842E-17
1.663630E+03	1.242971E-16	1.354650E-17
1.703240E+03	1.287059E-16	1.402013E-17
1.742850E+03	1.327108E-16	1.444912E-17
1.782461E+03	1.362025E-16	1.482163E-17
1.822071E+03	1.390055E-16	1.511864E-17
1.861681E+03	1.409414E-16	1.532087E-17
1.901291E+03	1.418057E-16	1.540624E-17
1.940902E+03	1.414207E-16	1.535562E-17
1.980512E+03	1.396971E-16	1.515958E-17
2.020122E+03	1.368114E-16	1.483751E-17
2.059732E+03	1.333106E-16	1.444893E-17
2.099342E+03	1.301007E-16	1.409212E-17
2.138953E+03	1.281922E-16	1.387642E-17
2.178563E+03	1.281789E-16	1.386578E-17
2.218173E+03	1.299194E-16	1.404453E-17
2.257783E+03	1.326816E-16	1.433315E-17
2.297394E+03	1.355325E-16	1.463071E-17
2.337004E+03	1.377522E-16	1.485949E-17
2.376614E+03	1.388968E-16	1.497179E-17
2.416224E+03	1.387751E-16	1.494727E-17
2.455835E+03	1.373851E-16	1.478601E-17
2.495445E+03	1.348045E-16	1.449670E-17
2.535055E+03	1.311494E-16	1.409213E-17
2.574665E+03	1.265724E-16	1.358898E-17
2.614276E+03	1.212065E-16	1.300182E-17
2.653886E+03	1.151969E-16	1.234641E-17
2.693496E+03	1.086718E-16	1.163671E-17
2.733106E+03	1.017706E-16	1.088784E-17
2.772716E+03	9.461753E-17	1.011319E-17
2.812327E+03	8.734098E-17	9.326610E-18
2.851937E+03	8.006553E-17	8.541461E-18
2.891547E+03	7.290944E-17	7.770390E-18
2.931157E+03	6.598157E-17	7.024990E-18
2.970768E+03	5.937639E-17	6.315278E-18
2.980670E+03	5.778432E-17	6.144355E-18
2.990573E+03	5.621883E-17	5.976338E-18
3.000475E+03	5.467927E-17	5.811157E-18
3.010378E+03	5.316868E-17	5.649132E-18
3.020280E+03	5.168631E-17	5.490184E-18
3.030183E+03	5.023266E-17	5.334362E-18
3.040086E+03	4.880872E-17	5.181770E-18
3.049988E+03	4.741875E-17	5.032858E-18
3.059891E+03	4.606259E-17	4.887608E-18
3.069793E+03	4.474141E-17	4.746139E-18
3.079696E+03	4.345356E-17	4.608276E-18
3.089598E+03	4.219935E-17	4.474048E-18
3.099501E+03	4.097824E-17	4.343396E-18
3.109403E+03	3.978978E-17	4.216270E-18
3.119306E+03	3.863361E-17	4.092629E-18
3.129209E+03	3.751011E-17	3.972510E-18
3.139111E+03	3.641821E-17	3.855800E-18
3.149014E+03	3.535831E-17	3.742535E-18
3.158916E+03	3.433005E-17	3.632678E-18
3.168819E+03	3.333308E-17	3.526188E-18
3.178721E+03	3.236764E-17	3.423088E-18
3.188624E+03	3.143220E-17	3.323215E-18
3.198526E+03	3.052805E-17	3.226700E-18
3.208429E+03	2.965316E-17	3.133329E-18
3.218332E+03	2.880864E-17	3.043215E-18
3.228234E+03	2.799304E-17	2.956204E-18
3.238137E+03	2.720636E-17	2.872293E-18
3.248039E+03	2.644810E-17	2.791426E-18
3.257942E+03	2.571734E-17	2.713504E-18
3.267844E+03	2.501435E-17	2.638554E-18
3.277747E+03	2.433779E-17	2.566432E-18
3.287650E+03	2.368714E-17	2.497081E-18
3.297552E+03	2.306257E-17	2.430516E-18
3.307455E+03	2.246277E-17	2.366597E-18
3.317357E+03	2.188721E-17	2.305267E-18
3.327260E+03	2.133533E-17	2.246464E-18
3.337162E+03	2.080684E-17	2.190156E-18
3.347065E+03	2.030060E-17	2.136219E-18
3.356967E+03	1.981604E-17	2.084594E-18
3.366870E+03	1.935289E-17	2.035250E-18
3.376773E+03	1.891029E-17	1.988094E-18
3.386675E+03	1.848770E-17	1.943067E-18
3.396578E+03	1.808411E-17	1.900061E-18
3.406480E+03	1.769921E-17	1.859044E-18
3.416383E+03	1.733249E-17	1.819958E-18
3.426285E+03	1.698301E-17	1.782705E-18
3.436188E+03	1.665033E-17	1.747235E-18
3.446090E+03	1.633376E-17	1.713475E-18
3.455993E+03	1.603308E-17	1.681402E-18
3.465896E+03	1.574731E-17	1.650909E-18
3.475798E+03	1.547625E-17	1.621975E-18
3.485701E+03	1.521919E-17	1.594525E-18
3.495603E+03	1.497560E-17	1.568500E-18
3.505506E+03	1.474502E-17	1.543854E-18
3.515408E+03	1.452682E-17	1.520517E-18
3.525311E+03	1.432075E-17	1.498463E-18
3.535213E+03	1.412610E-17	1.477615E-18
3.545116E+03	1.394247E-17	1.457932E-18
3.555019E+03	1.376968E-17	1.439393E-18
3.564921E+03	1.360722E-17	1.421944E-18
3.574824E+03	1.345478E-17	1.405551E-18
3.584726E+03	1.331190E-17	1.390166E-18
3.594629E+03	1.317818E-17	1.375746E-18
3.604531E+03	1.305335E-17	1.362261E-18
3.614434E+03	1.293690E-17	1.349659E-18
3.624337E+03	1.282872E-17	1.337926E-18
3.634239E+03	1.272837E-17	1.327015E-18
3.644142E+03	1.263563E-17	1.316904E-18
3.654044E+03	1.255045E-17	1.307584E-18
3.663947E+03	1.247238E-17	1.299011E-18
3.673849E+03	1.240127E-17	1.291167E-18
3.683752E+03	1.233717E-17	1.284057E-18
3.693654E+03	1.227980E-17	1.277649E-18
3.703557E+03	1.222898E-17	1.271927E-18
3.713460E+03	1.218477E-17	1.266893E-18
3.723362E+03	1.214689E-17	1.262520E-18
3.733265E+03	1.211526E-17	1.258799E-18
3.743167E+03	1.208994E-17	1.255734E-18
3.753070E+03	1.207073E-17	1.253304E-18
3.762972E+03	1.205758E-17	1.251503E-18
3.772875E+03	1.205040E-17	1.250322E-18
3.782777E+03	1.204914E-17	1.249755E-18
3.792680E+03	1.205382E-17	1.249802E-18
3.802583E+03	1.206429E-17	1.250448E-18
3.812485E+03	1.208056E-17	1.251694E-18
3.822388E+03	1.210269E-17	1.253544E-18
3.832290E+03	1.213050E-17	1.255981E-18
3.842193E+03	1.216393E-17	1.258996E-18
3.852095E+03	1.220313E-17	1.262605E-18
3.861998E+03	1.224803E-17	1.266799E-18
3.871900E+03	1.229845E-17	1.271560E-18
3.881803E+03	1.235452E-17	1.276901E-18
3.891706E+03	1.241628E-17	1.282825E-18
3.901608E+03	1.248345E-17	1.289301E-18
3.911511E+03	1.255613E-17	1.296342E-18
3.921413E+03	1.263434E-17	1.303946E-18
3.931316E+03	1.271798E-17	1.312105E-18
3.941218E+03	1.280683E-17	1.320793E-18
3.951121E+03	1.290110E-17	1.330034E-18
3.961024E+03	1.300056E-17	1.339801E-18
3.970926E+03	1.310507E-17	1.350080E-18
3.980829E+03	1.321471E-17	1.360880E-18
3.990731E+03	1.332924E-17	1.372174E-18
4.000634E+03	1.344873E-17	1.383968E-18
4.010536E+03	1.357278E-17	1.396223E-18
4.020439E+03	1.370161E-17	1.408959E-18
4.030341E+03	1.383491E-17	1.422144E-18
4.040244E+03	1.397255E-17	1.435765E-18
4.050147E+03	1.411457E-17	1.449825E-18
4.060049E+03	1.426059E-17	1.464284E-18
4.069952E+03	1.441080E-17	1.479161E-18
4.079854E+03	1.456478E-17	1.494414E-18
4.089757E+03	1.472249E-17	1.510037E-18
4.099659E+03	1.488388E-17	1.526024E-18
4.109562E+03	1.504865E-17	1.542346E-18
4.119464E+03	1.521675E-17	1.558996E-18
4.129367E+03	1.538801E-17	1.575957E-18
4.139270E+03	1.556212E-17	1.593196E-18
4.149172E+03	1.573916E-17	1.610720E-18
4.159075E+03	1.591868E-17	1.628486E-18
4.168977E+03	1.610075E-17	1.646498E-18
4.178880E+03	1.628493E-17	1.664710E-18
4.188782E+03	1.647112E-17	1.683116E-18
4.198685E+03	1.665912E-17	1.701691E-18
4.208587E+03	1.684844E-17	1.720387E-18
4.218490E+03	1.703911E-17	1.739205E-18
4.228393E+03	1.723077E-17	1.758110E-18
4.238295E+03	1.742301E-17	1.777061E-18
4.248198E+03	1.761544E-17	1.796015E-18
4.258100E+03	1.780791E-17	1.814959E-18
4.268003E+03	1.800017E-17	1.833867E-18
4.277905E+03	1.819148E-17	1.852664E-18
4.287808E+03	1.838186E-17	1.871351E-18
4.297711E+03	1.857055E-17	1.889852E-18
4.307613E+03	1.875756E-17	1.908169E-18
4.317516E+03	1.894229E-17	1.926240E-18
4.327418E+03	1.912461E-17	1.944051E-18
4.337321E+03	1.930436E-17	1.961589E-18
4.347223E+03	1.948148E-17	1.978846E-18
4.357126E+03	1.965592E-17	1.995818E-18
4.367028E+03	1.982796E-17	2.012534E-18
4.376931E+03	1.999786E-17	2.029020E-18
4.386834E+03	2.016577E-17	2.045292E-18
4.396736E+03	2.033201E-17	2.061383E-18
4.406639E+03	2.049659E-17	2.077293E-18
4.416541E+03	2.066003E-17	2.093077E-18
4.426444E+03	2.082235E-17	2.108737E-18
4.436346E+03	2.098376E-17	2.124292E-18
4.446249E+03	2.114443E-17	2.139761E-18
4.456151E+03	2.130457E-17	2.155167E-18
4.466054E+03	2.146439E-17	2.170528E-18
4.475957E+03	2.162409E-17	2.185866E-18
4.485859E+03	2.178348E-17	2.201162E-18
4.495762E+03	2.194314E-17	2.216474E-18
4.505664E+03	2.210291E-17	2.231786E-18
4.515567E+03	2.226296E-17	2.247115E-18
4.525469E+03	2.242331E-17	2.262463E-18
4.535372E+03	2.258434E-17	2.277869E-18
4.545274E+03	2.274606E-17	2.293333E-18
4.555177E+03	2.290824E-17	2.308831E-18
4.565080E+03	2.307148E-17	2.324425E-18
4.574982E+03	2.323553E-17	2.340089E-18
4.584885E+03	2.340037E-17	2.355821E-18
4.594787E+03	2.356638E-17	2.371659E-18
4.604690E+03	2.373372E-17	2.387619E-18
4.614592E+03	2.390192E-17	2.403653E-18
4.624495E+03	2.407157E-17	2.419821E-18
4.634398E+03	2.424263E-17	2.436119E-18
4.644300E+03	2.441504E-17	2.452540E-18
4.654203E+03	2.458901E-17	2.469105E-18
4.664105E+03	2.476448E-17	2.485808E-18
4.674008E+03	2.494169E-17	2.502673E-18
4.683910E+03	2.512019E-17	2.519654E-18
4.693813E+03	2.530025E-17	2.536778E-18
4.703715E+03	2.548216E-17	2.554075E-18
4.713618E+03	2.566532E-17	2.571484E-18
4.723521E+03	2.585026E-17	2.589057E-18
4.733423E+03	2.603682E-17	2.606779E-18
4.743326E+03	2.622484E-17	2.624633E-18
4.753228E+03	2.641485E-17	2.642672E-18
4.763131E+03	2.660614E-17	2.660826E-18
4.773033E+03	2.679950E-17	2.679172E-18
4.782936E+03	2.699418E-17	2.697635E-18
4.792838E+03	2.719066E-17	2.716264E-18
4.802741E+03	2.738844E-17	2.735007E-18
4.812644E+03	2.758800E-17	2.753913E-18
4.822546E+03	2.778877E-17	2.772925E-18
4.832449E+03	2.799098E-17	2.792066E-18
4.842351E+03	2.819460E-17	2.811332E-18
4.852254E+03	2.839933E-17	2.830692E-18
4.862156E+03	2.860512E-17	2.850143E-18
4.872059E+03	2.881191E-17	2.869678E-18
4.881961E+03	2.901996E-17	2.889322E-18
4.891864E+03	2.922867E-17	2.909017E-18
4.901767E+03	2.943857E-17	2.928813E-18
4.911669E+03	2.964907E-17	2.948652E-18
4.921572E+03	2.986039E-17	2.968558E-18
4.931474E+03	3.007221E-17	2.988496E-18
4.941377E+03	3.028444E-17	3.008459E-18
4.951279E+03	3.049702E-17	3.028440E-18
4.961182E+03	3.071009E-17	3.048453E-18
4.971085E+03	3.092292E-17	3.068426E-18
4.980987E+03	3.113562E-17	3.088369E-18
4.990890E+03	3.134766E-17	3.108230E-18
5.000792E+03	3.155911E-17	3.128016E-18
5.010695E+03	3.176937E-17	3.147668E-18
5.020597E+03	3.197782E-17	3.167123E-18
5.030500E+03	3.218441E-17	3.186378E-18
5.040402E+03	3.238877E-17	3.205396E-18
5.050305E+03	3.259016E-17	3.224105E-18
5.060208E+03	3.278783E-17	3.242429E-18
5.070110E+03	3.298192E-17	3.260383E-18
5.080013E+03	3.317128E-17	3.277854E-18
5.089915E+03	3.335539E-17	3.294792E-18
5.099818E+03	3.353370E-17	3.311143E-18
5.109720E+03	3.370568E-17	3.326854E-18
5.119623E+03	3.387044E-17	3.341839E-18
5.129525E+03	3.402778E-17	3.356079E-18
5.139428E+03	3.417649E-17	3.369455E-18
5.149331E+03	3.431637E-17	3.381949E-18
5.159233E+03	3.444621E-17	3.393443E-18
5.169136E+03	3.456612E-17	3.403947E-18
5.179038E+03	3.467488E-17	3.413344E-18
5.188941E+03	3.477222E-17	3.421608E-18
5.198843E+03	3.485683E-17	3.428612E-18
5.208746E+03	3.492840E-17	3.434327E-18
5.218648E+03	3.498627E-17	3.438688E-18
5.228551E+03	3.502902E-17	3.441559E-18
5.238454E+03	3.505595E-17	3.442872E-18
5.248356E+03	3.506668E-17	3.442592E-18
5.258259E+03	3.506017E-17	3.440619E-18
5.268161E+03	3.503537E-17	3.436851E-18
5.278064E+03	3.499165E-17	3.431228E-18
5.287966E+03	3.492840E-17	3.423695E-18
5.297869E+03	3.484511E-17	3.414201E-18
5.307772E+03	3.474099E-17	3.402674E-18
5.317674E+03	3.461607E-17	3.389117E-18
5.327577E+03	3.446983E-17	3.373482E-18
5.337479E+03	3.430257E-17	3.355803E-18
5.347382E+03	3.411412E-17	3.336063E-18
5.357284E+03	3.390551E-17	3.314366E-18
5.367187E+03	3.367767E-17	3.290806E-18
5.377089E+03	3.343108E-17	3.265432E-18
5.386992E+03	3.316781E-17	3.238447E-18
5.396895E+03	3.288913E-17	3.209978E-18
5.406797E+03	3.259523E-17	3.180046E-18
5.416700E+03	3.228883E-17	3.148918E-18
5.426602E+03	3.197119E-17	3.116716E-18
5.436505E+03	3.164373E-17	3.083581E-18
5.446407E+03	3.130835E-17	3.049701E-18
5.456310E+03	3.096680E-17	3.015245E-18
5.466212E+03	3.062091E-17	2.980393E-18
5.476115E+03	3.027318E-17	2.945389E-18
5.486018E+03	2.992548E-17	2.910413E-18
5.495920E+03	2.958062E-17	2.875740E-18
5.505823E+03	2.924099E-17	2.841602E-18
5.515725E+03	2.890868E-17	2.808200E-18
5.525628E+03	2.858622E-17	2.775780E-18
5.535530E+03	2.827575E-17	2.744549E-18
5.545433E+03	2.797925E-17	2.714696E-18
5.555335E+03	2.769876E-17	2.686419E-18
5.565238E+03	2.743589E-17	2.659870E-18
5.575141E+03	2.719192E-17	2.635174E-18
5.585043E+03	2.696821E-17	2.612458E-18
5.594946E+03	2.676554E-17	2.591796E-18
5.604848E+03	2.658470E-17	2.573263E-18
5.614751E+03	2.642593E-17	2.556879E-18
5.624653E+03	2.628922E-17	2.542640E-18
5.634556E+03	2.617459E-17	2.530545E-18
5.644459E+03	2.608160E-17	2.520551E-18
5.654361E+03	2.600961E-17	2.512592E-18
5.664264E+03	2.595813E-17	2.506617E-18
5.674166E+03	2.592627E-17	2.502542E-18
5.684069E+03	2.591342E-17	2.500301E-18
5.693971E+03	2.591836E-17	2.499777E-18
5.703874E+03	2.594075E-17	2.500935E-18
5.713776E+03	2.597953E-17	2.503670E-18
5.723679E+03	2.603398E-17	2.507912E-18
5.733582E+03	2.610409E-17	2.513656E-18
5.743484E+03	2.618886E-17	2.520806E-18
5.753387E+03	2.628852E-17	2.529382E-18
5.763289E+03	2.640283E-17	2.539358E-18
5.773192E+03	2.653165E-17	2.550720E-18
5.783094E+03	2.667461E-17	2.563430E-18
5.792997E+03	2.683222E-17	2.577537E-18
5.802899E+03	2.700421E-17	2.593012E-18
5.812802E+03	2.719085E-17	2.609879E-18
5.822705E+03	2.739214E-17	2.628137E-18
5.832607E+03	2.760781E-17	2.647758E-18
5.842510E+03	2.783814E-17	2.668767E-18
5.852412E+03	2.808344E-17	2.691193E-18
5.862315E+03	2.834304E-17	2.714970E-18
5.872217E+03	2.861720E-17	2.740119E-18
5.882120E+03	2.890580E-17	2.766631E-18
5.892022E+03	2.920903E-17	2.794518E-18
5.901925E+03	2.952606E-17	2.823702E-18
5.911828E+03	2.985733E-17	2.854223E-18
5.921730E+03	3.020190E-17	2.885989E-18
5.931633E+03	3.055983E-17	2.919004E-18
5.941535E+03	3.093079E-17	2.953236E-18
5.951438E+03	3.131403E-17	2.988611E-18
5.961340E+03	3.170953E-17	3.025126E-18
5.971243E+03	3.211612E-17	3.062668E-18
5.981146E+03	3.253401E-17	3.101256E-18
5.991048E+03	3.296155E-17	3.140732E-18
6.000951E+03	3.339891E-17	3.181110E-18
6.010853E+03	3.384468E-17	3.222255E-18
6.020756E+03	3.429854E-17	3.264137E-18
6.030658E+03	3.475896E-17	3.306608E-18
6.040561E+03	3.522508E-17	3.349586E-18
6.050463E+03	3.569558E-17	3.392946E-18
6.060366E+03	3.616948E-17	3.436593E-18
6.070269E+03	3.664489E-17	3.480348E-18
6.080171E+03	3.712020E-17	3.524059E-18
6.090074E+03	3.759425E-17	3.567613E-18
6.099976E+03	3.806535E-17	3.610854E-18
6.109879E+03	3.853085E-17	3.653528E-18
6.119781E+03	3.898950E-17	3.695520E-18
6.129684E+03	3.943963E-17	3.736670E-18
6.139586E+03	3.988018E-17	3.776882E-18
6.149489E+03	4.031085E-17	3.816125E-18
6.159392E+03	4.073148E-17	3.854388E-18
6.169294E+03	4.114258E-17	3.891721E-18
6.179197E+03	4.154588E-17	3.928288E-18
6.189099E+03	4.194167E-17	3.964116E-18
6.199002E+03	4.232980E-17	3.999193E-18
6.208904E+03	4.271235E-17	4.033718E-18
6.218807E+03	4.308986E-17	4.067741E-18
6.228709E+03	4.346179E-17	4.101212E-18
6.238612E+03	4.383047E-17	4.134353E-18
6.248515E+03	4.419481E-17	4.167060E-18
6.258417E+03	4.455666E-17	4.199508E-18
6.268320E+03	4.491553E-17	4.231653E-18
6.278222E+03	4.527211E-17	4.263559E-18
6.288125E+03	4.562650E-17	4.295237E-18
6.298027E+03	4.597879E-17	4.326694E-18
6.307930E+03	4.632906E-17	4.357939E-18
6.317833E+03	4.667671E-17	4.388916E-18
6.327735E+03	4.702111E-17	4.419566E-18
6.337638E+03	4.736291E-17	4.449952E-18
6.347540E+03	4.770075E-17	4.479944E-18
6.357443E+03	4.803526E-17	4.509604E-18
6.367345E+03	4.836571E-17	4.538863E-18
6.377248E+03	4.869200E-17	4.567713E-18
6.387150E+03	4.901482E-17	4.596218E-18
6.397053E+03	4.933561E-17	4.624515E-18
6.406956E+03	4.965443E-17	4.652610E-18
6.416858E+03	4.997209E-17	4.680578E-18
6.426761E+03	5.028950E-17	4.708506E-18
6.436663E+03	5.060603E-17	4.736334E-18
6.446566E+03	5.092339E-17	4.764224E-18
6.456468E+03	5.124178E-17	4.792193E-18
6.466371E+03	5.156059E-17	4.820185E-18
6.476273E+03	5.188163E-17	4.848368E-18
6.486176E+03	5.220427E-17	4.876687E-18
6.496079E+03	5.252788E-17	4.905079E-18
6.505981E+03	5.285429E-17	4.933718E-18
6.515884E+03	5.318286E-17	4.962542E-18
6.525786E+03	5.351373E-17	4.991566E-18
6.535689E+03	5.384796E-17	5.020888E-18
6.545591E+03	5.418395E-17	5.050358E-18
6.555494E+03	5.452179E-17	5.079987E-18
6.565396E+03	5.486338E-17	5.109950E-18
6.575299E+03	5.520699E-17	5.140086E-18
6.585202E+03	5.555262E-17	5.170396E-18
6.595104E+03	5.590120E-17	5.200966E-18
6.605007E+03	5.625174E-17	5.231705E-18
6.614909E+03	5.660417E-17	5.262607E-18
6.624812E+03	5.695935E-17	5.293750E-18
6.634714E+03	5.731518E-17	5.324942E-18
6.644617E+03	5.767148E-17	5.356164E-18
6.654520E+03	5.803003E-17	5.387583E-18
6.664422E+03	5.838862E-17	5.418993E-18
6.674325E+03	5.874696E-17	5.450369E-18
6.684227E+03	5.910581E-17	5.481782E-18
6.694130E+03	5.946384E-17	5.513109E-18
6.704032E+03	5.982072E-17	5.544319E-18
6.713935E+03	6.017609E-17	5.575379E-18
6.723837E+03	6.052959E-17	5.606258E-18
6.733740E+03	6.087975E-17	5.636821E-18
6.743643E+03	6.122728E-17	5.667132E-18
6.753545E+03	6.157178E-17	5.697158E-18
6.763448E+03	6.191175E-17	5.726758E-18
6.773350E+03	6.224792E-17	5.756002E-18
6.783253E+03	6.257872E-17	5.784747E-18
6.793155E+03	6.290378E-17	5.812958E-18
6.803058E+03	6.322271E-17	5.840601E-18
6.812960E+03	6.353396E-17	5.867534E-18
6.822863E+03	6.383954E-17	5.893944E-18
6.832766E+03	6.413796E-17	5.919693E-18
6.842668E+03	6.442769E-17	5.944644E-18
6.852571E+03	6.470966E-17	5.968882E-18
6.862473E+03	6.498235E-17	5.992269E-18
6.872376E+03	6.524549E-17	6.014782E-18
6.882278E+03	6.550006E-17	6.036512E-18
6.892181E+03	6.574456E-17	6.057321E-18
6.902083E+03	6.597876E-17	6.077192E-18
6.911986E+03	6.620245E-17	6.096106E-18
6.921889E+03	6.641545E-17	6.114047E-18
6.931791E+03	6.661630E-17	6.130884E-18
6.941694E+03	6.680749E-17	6.146846E-18
6.951596E+03	6.698637E-17	6.161691E-18
6.961499E+03	6.715287E-17	6.175416E-18
6.971401E+03	6.730835E-17	6.188145E-18
6.981304E+03	6.745156E-17	6.199765E-18
6.991207E+03	6.758261E-17	6.210290E-18
7.001109E+03	6.770170E-17	6.219737E-18
7.011012E+03	6.780907E-17	6.228132E-18
7.020914E+03	6.790641E-17	6.235629E-18
7.030817E+03	6.799140E-17	6.242018E-18
7.040719E+03	6.806449E-17	6.247342E-18
7.050622E+03	6.812762E-17	6.251780E-18
7.060524E+03	6.818142E-17	6.255391E-18
7.070427E+03	6.822521E-17	6.258113E-18
7.080330E+03	6.826114E-17	6.260147E-18
7.090232E+03	6.828726E-17	6.261312E-18
7.100135E+03	6.830725E-17	6.261948E-18
7.110037E+03	6.832064E-17	6.262013E-18
7.119940E+03	6.832842E-17	6.261599E-18
7.129842E+03	6.833017E-17	6.260668E-18
7.139745E+03	6.832976E-17	6.259575E-18
7.149647E+03	6.832536E-17	6.258154E-18
7.159550E+03	6.831943E-17	6.256630E-18
7.169453E+03	6.831146E-17	6.254959E-18
7.179355E+03	6.830379E-17	6.253353E-18
7.189258E+03	6.829575E-17	6.251753E-18
7.199160E+03	6.828799E-17	6.250220E-18
7.209063E+03	6.828247E-17	6.248932E-18
7.218965E+03	6.827810E-17	6.247791E-18
7.228868E+03	6.827655E-17	6.246951E-18
7.238770E+03	6.827495E-17	6.246148E-18
7.248673E+03	6.827466E-17	6.245509E-18
7.258576E+03	6.827692E-17	6.245148E-18
7.268478E+03	6.827850E-17	6.244768E-18
7.278381E+03	6.828043E-17	6.244466E-18
7.288283E+03	6.828080E-17	6.244068E-18
7.298186E+03	6.828057E-17	6.243662E-18
7.308088E+03	6.827778E-17	6.243069E-18
7.317991E+03	6.827191E-17	6.242243E-18
7.327894E+03	6.826252E-17	6.241142E-18
7.337796E+03	6.824764E-17	6.239591E-18
7.347699E+03	6.822691E-17	6.237554E-18
7.357601E+03	6.819998E-17	6.235002E-18
7.367504E+03	6.816660E-17	6.231912E-18
7.377406E+03	6.812808E-17	6.228404E-18
7.387309E+03	6.808278E-17	6.224329E-18
7.397211E+03	6.803366E-17	6.219958E-18
7.407114E+03	6.798073E-17	6.215293E-18
7.417017E+03	6.792402E-17	6.210337E-18
7.426919E+03	6.786357E-17	6.205093E-18
7.436822E+03	6.779942E-17	6.199567E-18
7.446724E+03	6.773496E-17	6.194067E-18
7.456627E+03	6.766770E-17	6.188364E-18
7.466529E+03	6.759976E-17	6.182653E-18
7.476432E+03	6.753167E-17	6.176979E-18
7.486334E+03	6.746548E-17	6.171531E-18
7.496237E+03	6.739851E-17	6.166061E-18
7.506140E+03	6.733278E-17	6.160755E-18
7.516042E+03	6.726871E-17	6.155651E-18
7.525945E+03	6.720834E-17	6.150933E-18
7.535847E+03	6.714892E-17	6.146349E-18
7.545750E+03	6.709400E-17	6.142224E-18
7.555652E+03	6.704238E-17	6.138448E-18
7.565555E+03	6.699282E-17	6.134906E-18
7.575457E+03	6.694881E-17	6.131917E-18
7.585360E+03	6.690908E-17	6.129365E-18
7.595263E+03	6.687389E-17	6.127273E-18
7.605165E+03	6.684346E-17	6.125659E-18
7.615068E+03	6.681794E-17	6.124539E-18
7.624970E+03	6.679746E-17	6.123923E-18
7.634873E+03	6.678366E-17	6.123962E-18
7.644775E+03	6.677326E-17	6.124355E-18
7.654678E+03	6.676938E-17	6.125387E-18
7.664581E+03	6.677022E-17	6.126891E-18
7.674483E+03	6.677549E-17	6.128844E-18
7.684386E+03	6.678486E-17	6.131212E-18
