#wls	flux	fluxerr
1.584409E+03	1.128057E-16	4.074696E-18
1.624020E+03	1.155901E-16	4.171768E-18
1.663630E+03	1.180763E-16	4.257837E-18
1.703240E+03	1.202222E-16	4.331413E-18
1.742850E+03	1.219936E-16	4.391292E-18
1.782461E+03	1.233019E-16	4.434315E-18
1.822071E+03	1.240470E-16	4.456931E-18
1.861681E+03	1.240996E-16	4.454552E-18
1.901291E+03	1.233144E-16	4.422038E-18
1.940902E+03	1.215739E-16	4.355272E-18
1.980512E+03	1.188561E-16	4.253569E-18
2.020122E+03	1.153475E-16	4.123707E-18
2.059732E+03	1.115024E-16	3.982012E-18
2.099342E+03	1.081026E-16	3.856417E-18
2.138953E+03	1.059793E-16	3.776490E-18
2.178563E+03	1.056048E-16	3.758906E-18
2.218173E+03	1.068907E-16	3.800309E-18
2.257783E+03	1.092434E-16	3.879406E-18
2.297394E+03	1.119344E-16	3.970229E-18
2.337004E+03	1.143649E-16	4.051507E-18
2.376614E+03	1.161722E-16	4.110443E-18
2.416224E+03	1.172119E-16	4.142011E-18
2.455835E+03	1.174528E-16	4.145204E-18
2.495445E+03	1.169513E-16	4.122125E-18
2.535055E+03	1.157898E-16	4.075780E-18
2.574665E+03	1.140464E-16	4.009001E-18
2.614276E+03	1.118022E-16	3.924733E-18
2.653886E+03	1.091260E-16	3.825461E-18
2.693496E+03	1.060853E-16	3.713617E-18
2.733106E+03	1.027358E-16	3.591213E-18
2.772716E+03	9.913127E-17	3.460175E-18
2.812327E+03	9.532119E-17	3.322280E-18
2.851937E+03	9.136539E-17	3.179649E-18
2.891547E+03	8.731920E-17	3.034236E-18
2.931157E+03	8.323799E-17	2.887986E-18
2.970768E+03	7.918747E-17	2.743190E-18
2.980670E+03	7.818762E-17	2.707495E-18
2.990573E+03	7.719398E-17	2.672040E-18
3.000475E+03	7.620749E-17	2.636856E-18
3.010378E+03	7.523060E-17	2.602029E-18
3.020280E+03	7.426404E-17	2.567583E-18
3.030183E+03	7.330860E-17	2.533546E-18
3.040086E+03	7.236591E-17	2.499973E-18
3.049988E+03	7.143964E-17	2.466991E-18
3.059891E+03	7.053334E-17	2.434722E-18
3.069793E+03	6.964797E-17	2.403197E-18
3.079696E+03	6.878327E-17	2.372409E-18
3.089598E+03	6.793772E-17	2.342302E-18
3.099501E+03	6.711397E-17	2.312969E-18
3.109403E+03	6.630954E-17	2.284321E-18
3.119306E+03	6.552588E-17	2.256410E-18
3.129209E+03	6.476460E-17	2.229290E-18
3.139111E+03	6.402477E-17	2.202927E-18
3.149014E+03	6.330807E-17	2.177379E-18
3.158916E+03	6.261374E-17	2.152618E-18
3.168819E+03	6.194348E-17	2.128703E-18
3.178721E+03	6.129790E-17	2.105652E-18
3.188624E+03	6.067651E-17	2.083450E-18
3.198526E+03	6.008107E-17	2.062154E-18
3.208429E+03	5.951231E-17	2.041789E-18
3.218332E+03	5.897091E-17	2.022377E-18
3.228234E+03	5.845760E-17	2.003943E-18
3.238137E+03	5.797323E-17	1.986513E-18
3.248039E+03	5.751858E-17	1.970114E-18
3.257942E+03	5.709352E-17	1.954741E-18
3.267844E+03	5.670079E-17	1.940484E-18
3.277747E+03	5.633950E-17	1.927314E-18
3.287650E+03	5.601140E-17	1.915288E-18
3.297552E+03	5.571659E-17	1.904408E-18
3.307455E+03	5.545685E-17	1.894734E-18
3.317357E+03	5.523329E-17	1.886302E-18
3.327260E+03	5.504512E-17	1.879085E-18
3.337162E+03	5.489519E-17	1.873176E-18
3.347065E+03	5.478287E-17	1.868554E-18
3.356967E+03	5.471013E-17	1.865285E-18
3.366870E+03	5.467809E-17	1.863404E-18
3.376773E+03	5.468645E-17	1.862899E-18
3.386675E+03	5.473794E-17	1.863863E-18
3.396578E+03	5.483234E-17	1.866284E-18
3.406480E+03	5.497098E-17	1.870208E-18
3.416383E+03	5.515519E-17	1.875678E-18
3.426285E+03	5.538567E-17	1.882714E-18
3.436188E+03	5.566464E-17	1.891391E-18
3.446090E+03	5.599206E-17	1.901706E-18
3.455993E+03	5.636958E-17	1.913712E-18
3.465896E+03	5.679804E-17	1.927435E-18
3.475798E+03	5.727980E-17	1.942954E-18
3.485701E+03	5.781514E-17	1.960275E-18
3.495603E+03	5.840506E-17	1.979431E-18
3.505506E+03	5.905198E-17	2.000501E-18
3.515408E+03	5.975565E-17	2.023474E-18
3.525311E+03	6.051779E-17	2.048406E-18
3.535213E+03	6.134025E-17	2.075357E-18
3.545116E+03	6.222334E-17	2.104335E-18
3.555019E+03	6.316897E-17	2.135402E-18
3.564921E+03	6.417734E-17	2.168563E-18
3.574824E+03	6.524951E-17	2.203849E-18
3.584726E+03	6.638707E-17	2.241313E-18
3.594629E+03	6.758944E-17	2.280932E-18
3.604531E+03	6.885878E-17	2.322777E-18
3.614434E+03	7.019500E-17	2.366841E-18
3.624337E+03	7.159843E-17	2.413132E-18
3.634239E+03	7.306859E-17	2.461632E-18
3.644142E+03	7.460628E-17	2.512366E-18
3.654044E+03	7.621131E-17	2.565323E-18
3.663947E+03	7.788240E-17	2.620459E-18
3.673849E+03	7.961959E-17	2.677771E-18
3.683752E+03	8.142175E-17	2.737220E-18
3.693654E+03	8.328678E-17	2.798731E-18
3.703557E+03	8.521532E-17	2.862325E-18
3.713460E+03	8.720357E-17	2.927871E-18
3.723362E+03	8.924987E-17	2.995312E-18
3.733265E+03	9.135307E-17	3.064605E-18
3.743167E+03	9.350805E-17	3.135578E-18
3.753070E+03	9.571370E-17	3.208191E-18
3.762972E+03	9.796505E-17	3.282277E-18
3.772875E+03	1.002593E-16	3.357740E-18
3.782777E+03	1.025925E-16	3.434444E-18
3.792680E+03	1.049592E-16	3.512210E-18
3.802583E+03	1.073547E-16	3.590874E-18
3.812485E+03	1.097748E-16	3.670299E-18
3.822388E+03	1.122130E-16	3.750271E-18
3.832290E+03	1.146648E-16	3.830630E-18
3.842193E+03	1.171231E-16	3.911142E-18
3.852095E+03	1.195827E-16	3.991637E-18
3.861998E+03	1.220372E-16	4.071901E-18
3.871900E+03	1.244802E-16	4.151720E-18
3.881803E+03	1.269062E-16	4.230910E-18
3.891706E+03	1.293074E-16	4.309216E-18
3.901608E+03	1.316784E-16	4.386456E-18
3.911511E+03	1.340137E-16	4.462450E-18
3.921413E+03	1.363043E-16	4.536903E-18
3.931316E+03	1.385475E-16	4.609724E-18
3.941218E+03	1.407358E-16	4.680667E-18
3.951121E+03	1.428632E-16	4.749538E-18
3.961024E+03	1.449250E-16	4.816179E-18
3.970926E+03	1.469143E-16	4.880369E-18
3.980829E+03	1.488284E-16	4.942016E-18
3.990731E+03	1.506620E-16	5.000954E-18
4.000634E+03	1.524104E-16	5.057025E-18
4.010536E+03	1.540676E-16	5.110038E-18
4.020439E+03	1.556321E-16	5.159946E-18
4.030341E+03	1.570998E-16	5.206619E-18
4.040244E+03	1.584672E-16	5.249940E-18
4.050147E+03	1.597309E-16	5.289807E-18
4.060049E+03	1.608880E-16	5.326125E-18
4.069952E+03	1.619373E-16	5.358858E-18
4.079854E+03	1.628751E-16	5.387892E-18
4.089757E+03	1.637012E-16	5.413220E-18
4.099659E+03	1.644142E-16	5.434804E-18
4.109562E+03	1.650133E-16	5.452623E-18
4.119464E+03	1.654984E-16	5.466674E-18
4.129367E+03	1.658698E-16	5.476974E-18
4.139270E+03	1.661298E-16	5.483604E-18
4.149172E+03	1.662772E-16	5.486529E-18
4.159075E+03	1.663159E-16	5.485877E-18
4.168977E+03	1.662501E-16	5.481799E-18
4.178880E+03	1.660810E-16	5.474331E-18
4.188782E+03	1.658144E-16	5.463671E-18
4.198685E+03	1.654543E-16	5.449951E-18
4.208587E+03	1.650080E-16	5.433420E-18
4.218490E+03	1.644810E-16	5.414262E-18
4.228393E+03	1.638796E-16	5.392682E-18
4.238295E+03	1.632149E-16	5.369050E-18
4.248198E+03	1.624917E-16	5.343527E-18
4.258100E+03	1.617226E-16	5.316531E-18
4.268003E+03	1.609167E-16	5.288359E-18
4.277905E+03	1.600850E-16	5.259372E-18
4.287808E+03	1.592376E-16	5.229908E-18
4.297711E+03	1.583877E-16	5.200398E-18
4.307613E+03	1.575474E-16	5.171238E-18
4.317516E+03	1.567271E-16	5.142772E-18
4.327418E+03	1.559421E-16	5.115499E-18
4.337321E+03	1.552010E-16	5.089698E-18
4.347223E+03	1.545134E-16	5.065687E-18
4.357126E+03	1.538800E-16	5.043486E-18
4.367028E+03	1.532979E-16	5.022997E-18
4.376931E+03	1.527579E-16	5.003917E-18
4.386834E+03	1.522553E-16	4.986091E-18
4.396736E+03	1.517817E-16	4.969238E-18
4.406639E+03	1.513285E-16	4.953085E-18
4.416541E+03	1.508925E-16	4.937517E-18
4.426444E+03	1.504670E-16	4.922319E-18
4.436346E+03	1.500476E-16	4.907346E-18
4.446249E+03	1.496311E-16	4.892491E-18
4.456151E+03	1.492151E-16	4.877677E-18
4.466054E+03	1.487969E-16	4.862813E-18
4.475957E+03	1.483772E-16	4.847924E-18
4.485859E+03	1.479562E-16	4.833016E-18
4.495762E+03	1.475334E-16	4.818070E-18
4.505664E+03	1.471087E-16	4.803087E-18
4.515567E+03	1.466854E-16	4.788168E-18
4.525469E+03	1.462655E-16	4.773384E-18
4.535372E+03	1.458487E-16	4.758724E-18
4.545274E+03	1.454404E-16	4.744360E-18
4.555177E+03	1.450391E-16	4.730246E-18
4.565080E+03	1.446490E-16	4.716515E-18
4.574982E+03	1.442728E-16	4.703256E-18
4.584885E+03	1.439118E-16	4.690515E-18
4.594787E+03	1.435689E-16	4.678380E-18
4.604690E+03	1.432441E-16	4.666854E-18
4.614592E+03	1.429431E-16	4.656119E-18
4.624495E+03	1.426646E-16	4.646136E-18
4.634398E+03	1.424133E-16	4.637051E-18
4.644300E+03	1.421908E-16	4.628925E-18
4.654203E+03	1.420008E-16	4.621869E-18
4.664105E+03	1.418439E-16	4.615902E-18
4.674008E+03	1.417231E-16	4.611129E-18
4.683910E+03	1.416387E-16	4.607550E-18
4.693813E+03	1.415941E-16	4.605280E-18
4.703715E+03	1.415872E-16	4.604245E-18
4.713618E+03	1.416196E-16	4.604503E-18
4.723521E+03	1.416919E-16	4.606067E-18
4.733423E+03	1.418033E-16	4.608910E-18
4.743326E+03	1.419559E-16	4.613100E-18
4.753228E+03	1.421489E-16	4.618616E-18
4.763131E+03	1.423832E-16	4.625480E-18
4.773033E+03	1.426594E-16	4.633711E-18
4.782936E+03	1.429779E-16	4.643324E-18
4.792838E+03	1.433376E-16	4.654280E-18
4.802741E+03	1.437412E-16	4.666670E-18
4.812644E+03	1.441843E-16	4.680344E-18
4.822546E+03	1.446690E-16	4.695373E-18
4.832449E+03	1.451929E-16	4.711680E-18
4.842351E+03	1.457561E-16	4.729266E-18
4.852254E+03	1.463543E-16	4.747987E-18
4.862156E+03	1.469868E-16	4.767829E-18
4.872059E+03	1.476518E-16	4.788723E-18
4.881961E+03	1.483453E-16	4.810543E-18
4.891864E+03	1.490663E-16	4.833260E-18
4.901767E+03	1.498109E-16	4.856742E-18
4.911669E+03	1.505780E-16	4.880952E-18
4.921572E+03	1.513619E-16	4.905708E-18
4.931474E+03	1.521631E-16	4.931026E-18
4.941377E+03	1.529760E-16	4.956725E-18
4.951279E+03	1.538000E-16	4.982782E-18
4.961182E+03	1.546314E-16	5.009078E-18
4.971085E+03	1.554697E-16	5.035599E-18
4.980987E+03	1.563134E-16	5.062292E-18
4.990890E+03	1.571577E-16	5.089007E-18
5.000792E+03	1.580031E-16	5.115754E-18
5.010695E+03	1.588485E-16	5.142504E-18
5.020597E+03	1.596932E-16	5.169229E-18
5.030500E+03	1.605334E-16	5.195808E-18
5.040402E+03	1.613719E-16	5.222329E-18
5.050305E+03	1.622083E-16	5.248785E-18
5.060208E+03	1.630376E-16	5.275007E-18
5.070110E+03	1.638643E-16	5.301146E-18
5.080013E+03	1.646850E-16	5.327089E-18
5.089915E+03	1.654991E-16	5.352816E-18
5.099818E+03	1.663061E-16	5.378314E-18
5.109720E+03	1.671033E-16	5.403494E-18
5.119623E+03	1.678913E-16	5.428376E-18
5.129525E+03	1.686668E-16	5.452855E-18
5.139428E+03	1.694280E-16	5.476866E-18
5.149331E+03	1.701724E-16	5.500335E-18
5.159233E+03	1.708935E-16	5.523052E-18
5.169136E+03	1.715916E-16	5.545021E-18
5.179038E+03	1.722609E-16	5.566061E-18
5.188941E+03	1.728952E-16	5.585971E-18
5.198843E+03	1.734898E-16	5.604595E-18
5.208746E+03	1.740393E-16	5.621762E-18
5.218648E+03	1.745362E-16	5.637232E-18
5.228551E+03	1.749764E-16	5.650869E-18
5.238454E+03	1.753502E-16	5.662362E-18
5.248356E+03	1.756531E-16	5.671570E-18
5.258259E+03	1.758755E-16	5.678176E-18
5.268161E+03	1.760131E-16	5.682048E-18
5.278064E+03	1.760585E-16	5.682946E-18
5.287966E+03	1.760066E-16	5.680704E-18
5.297869E+03	1.758527E-16	5.675177E-18
5.307772E+03	1.755898E-16	5.666133E-18
5.317674E+03	1.752168E-16	5.653542E-18
5.327577E+03	1.747303E-16	5.637296E-18
5.337479E+03	1.741301E-16	5.617384E-18
5.347382E+03	1.734135E-16	5.593726E-18
5.357284E+03	1.725865E-16	5.566514E-18
5.367187E+03	1.716480E-16	5.535712E-18
5.377089E+03	1.706033E-16	5.501493E-18
5.386992E+03	1.694595E-16	5.464089E-18
5.396895E+03	1.682168E-16	5.423502E-18
5.406797E+03	1.668767E-16	5.379787E-18
5.416700E+03	1.654425E-16	5.333049E-18
5.426602E+03	1.639335E-16	5.283910E-18
5.436505E+03	1.623680E-16	5.232962E-18
5.446407E+03	1.607612E-16	5.180692E-18
5.456310E+03	1.591283E-16	5.127592E-18
5.466212E+03	1.574842E-16	5.074145E-18
5.476115E+03	1.558411E-16	5.020740E-18
5.486018E+03	1.542171E-16	4.967961E-18
5.495920E+03	1.526239E-16	4.916186E-18
5.505823E+03	1.510744E-16	4.865827E-18
5.515725E+03	1.495837E-16	4.817375E-18
5.525628E+03	1.481620E-16	4.771152E-18
5.535530E+03	1.468211E-16	4.727543E-18
5.545433E+03	1.455720E-16	4.686897E-18
5.555335E+03	1.444230E-16	4.649481E-18
5.565238E+03	1.433823E-16	4.615558E-18
5.575141E+03	1.424553E-16	4.585306E-18
5.585043E+03	1.416461E-16	4.558850E-18
5.594946E+03	1.409586E-16	4.536313E-18
5.604848E+03	1.403921E-16	4.517679E-18
5.614751E+03	1.399506E-16	4.503068E-18
5.624653E+03	1.396290E-16	4.492319E-18
5.634556E+03	1.394270E-16	4.485419E-18
5.644459E+03	1.393396E-16	4.482210E-18
5.654361E+03	1.393598E-16	4.482460E-18
5.664264E+03	1.394833E-16	4.486036E-18
5.674166E+03	1.397009E-16	4.492637E-18
5.684069E+03	1.400055E-16	4.502036E-18
5.693971E+03	1.403880E-16	4.513938E-18
5.703874E+03	1.408403E-16	4.528084E-18
5.713776E+03	1.413513E-16	4.544113E-18
5.723679E+03	1.419141E-16	4.561809E-18
5.733582E+03	1.425163E-16	4.580766E-18
5.743484E+03	1.431499E-16	4.600732E-18
5.753387E+03	1.438076E-16	4.621469E-18
5.763289E+03	1.444812E-16	4.642714E-18
5.773192E+03	1.451614E-16	4.664169E-18
5.783094E+03	1.458428E-16	4.685658E-18
5.792997E+03	1.465208E-16	4.707037E-18
5.802899E+03	1.471868E-16	4.728029E-18
5.812802E+03	1.478377E-16	4.748533E-18
5.822705E+03	1.484713E-16	4.768478E-18
5.832607E+03	1.490811E-16	4.787658E-18
5.842510E+03	1.496680E-16	4.806099E-18
5.852412E+03	1.502301E-16	4.823744E-18
5.862315E+03	1.507628E-16	4.840443E-18
5.872217E+03	1.512671E-16	4.856230E-18
5.882120E+03	1.517444E-16	4.871149E-18
5.892022E+03	1.521917E-16	4.885102E-18
5.901925E+03	1.526111E-16	4.898162E-18
5.911828E+03	1.530038E-16	4.910365E-18
5.921730E+03	1.533695E-16	4.921699E-18
5.931633E+03	1.537098E-16	4.932221E-18
5.941535E+03	1.540270E-16	4.942002E-18
5.951438E+03	1.543218E-16	4.951063E-18
5.961340E+03	1.545988E-16	4.959556E-18
5.971243E+03	1.548595E-16	4.967528E-18
5.981146E+03	1.551076E-16	4.975096E-18
5.991048E+03	1.553436E-16	4.982279E-18
6.000951E+03	1.555756E-16	4.989336E-18
6.010853E+03	1.558033E-16	4.996254E-18
6.020756E+03	1.560358E-16	5.003329E-18
6.030658E+03	1.562736E-16	5.010576E-18
6.040561E+03	1.565270E-16	5.018326E-18
6.050463E+03	1.567975E-16	5.026628E-18
6.060366E+03	1.570947E-16	5.035786E-18
6.070269E+03	1.574267E-16	5.046063E-18
6.080171E+03	1.578003E-16	5.057676E-18
6.090074E+03	1.582226E-16	5.070851E-18
6.099976E+03	1.587047E-16	5.085944E-18
6.109879E+03	1.592554E-16	5.103239E-18
6.119781E+03	1.598828E-16	5.122994E-18
6.129684E+03	1.605929E-16	5.145400E-18
6.139586E+03	1.613912E-16	5.170635E-18
6.149489E+03	1.622757E-16	5.198633E-18
6.159392E+03	1.632354E-16	5.229041E-18
6.169294E+03	1.642660E-16	5.261721E-18
6.179197E+03	1.653562E-16	5.296312E-18
6.189099E+03	1.664968E-16	5.332515E-18
6.199002E+03	1.676825E-16	5.370169E-18
6.208904E+03	1.689047E-16	5.408988E-18
6.218807E+03	1.701568E-16	5.448767E-18
6.228709E+03	1.714308E-16	5.489247E-18
6.238612E+03	1.727189E-16	5.530179E-18
6.248515E+03	1.740210E-16	5.571558E-18
6.258417E+03	1.753255E-16	5.613015E-18
6.268320E+03	1.766311E-16	5.654507E-18
6.278222E+03	1.779294E-16	5.695765E-18
6.288125E+03	1.792200E-16	5.736775E-18
6.298027E+03	1.804953E-16	5.777299E-18
6.307930E+03	1.817532E-16	5.817264E-18
6.317833E+03	1.829920E-16	5.856617E-18
6.327735E+03	1.842025E-16	5.895066E-18
6.337638E+03	1.853862E-16	5.932657E-18
6.347540E+03	1.865398E-16	5.969282E-18
6.357443E+03	1.876600E-16	6.004843E-18
6.367345E+03	1.887468E-16	6.039330E-18
6.377248E+03	1.898001E-16	6.072751E-18
6.387150E+03	1.908207E-16	6.105122E-18
6.397053E+03	1.918065E-16	6.136381E-18
6.406956E+03	1.927555E-16	6.166465E-18
6.416858E+03	1.936691E-16	6.195416E-18
6.426761E+03	1.945400E-16	6.223003E-18
6.436663E+03	1.953728E-16	6.249370E-18
6.446566E+03	1.961664E-16	6.274486E-18
6.456468E+03	1.969202E-16	6.298327E-18
6.466371E+03	1.976333E-16	6.320869E-18
6.476273E+03	1.983053E-16	6.342098E-18
6.486176E+03	1.989392E-16	6.362106E-18
6.496079E+03	1.995316E-16	6.380791E-18
6.505981E+03	2.000858E-16	6.398254E-18
6.515884E+03	2.006021E-16	6.414508E-18
6.525786E+03	2.010775E-16	6.429456E-18
6.535689E+03	2.015160E-16	6.443222E-18
6.545591E+03	2.019180E-16	6.455824E-18
6.555494E+03	2.022843E-16	6.467286E-18
6.565396E+03	2.026156E-16	6.477631E-18
6.575299E+03	2.029127E-16	6.486883E-18
6.585202E+03	2.031763E-16	6.495067E-18
6.595104E+03	2.034039E-16	6.502104E-18
6.605007E+03	2.035997E-16	6.508123E-18
6.614909E+03	2.037608E-16	6.513035E-18
6.624812E+03	2.038914E-16	6.516974E-18
6.634714E+03	2.039921E-16	6.519959E-18
6.644617E+03	2.040598E-16	6.521893E-18
6.654520E+03	2.040950E-16	6.522788E-18
6.664422E+03	2.041015E-16	6.522769E-18
6.674325E+03	2.040724E-16	6.521615E-18
6.684227E+03	2.040151E-16	6.519560E-18
6.694130E+03	2.039260E-16	6.516493E-18
6.704032E+03	2.038016E-16	6.512302E-18
6.713935E+03	2.036455E-16	6.507098E-18
6.723837E+03	2.034577E-16	6.500885E-18
6.733740E+03	2.032346E-16	6.493547E-18
6.743643E+03	2.029799E-16	6.485200E-18
6.753545E+03	2.026898E-16	6.475727E-18
6.763448E+03	2.023682E-16	6.465250E-18
6.773350E+03	2.020077E-16	6.453535E-18
6.783253E+03	2.016162E-16	6.440830E-18
6.793155E+03	2.011862E-16	6.426902E-18
6.803058E+03	2.007259E-16	6.412005E-18
6.812960E+03	2.002279E-16	6.395911E-18
6.822863E+03	1.996967E-16	6.378758E-18
6.832766E+03	1.991291E-16	6.360448E-18
6.842668E+03	1.985296E-16	6.341124E-18
6.852571E+03	1.978952E-16	6.320686E-18
6.862473E+03	1.972305E-16	6.299286E-18
6.872376E+03	1.965288E-16	6.276710E-18
6.882278E+03	1.957987E-16	6.253229E-18
6.892181E+03	1.950374E-16	6.228758E-18
6.902083E+03	1.942422E-16	6.203206E-18
6.911986E+03	1.934216E-16	6.176851E-18
6.921889E+03	1.925693E-16	6.149487E-18
6.931791E+03	1.916902E-16	6.121272E-18
6.941694E+03	1.907816E-16	6.092122E-18
6.951596E+03	1.898487E-16	6.062197E-18
6.961499E+03	1.888887E-16	6.031416E-18
6.971401E+03	1.879068E-16	5.999940E-18
6.981304E+03	1.868969E-16	5.967573E-18
6.991207E+03	1.858676E-16	5.934595E-18
7.001109E+03	1.848130E-16	5.900815E-18
7.011012E+03	1.837419E-16	5.866513E-18
7.020914E+03	1.826483E-16	5.831500E-18
7.030817E+03	1.815376E-16	5.795944E-18
7.040719E+03	1.804076E-16	5.759778E-18
7.050622E+03	1.792634E-16	5.723167E-18
7.060524E+03	1.781068E-16	5.686165E-18
7.070427E+03	1.769321E-16	5.648592E-18
7.080330E+03	1.757483E-16	5.610734E-18
7.090232E+03	1.745569E-16	5.572641E-18
7.100135E+03	1.733525E-16	5.534138E-18
7.110037E+03	1.721404E-16	5.495396E-18
7.119940E+03	1.709222E-16	5.456465E-18
7.129842E+03	1.696960E-16	5.417287E-18
7.139745E+03	1.684703E-16	5.378130E-18
7.149647E+03	1.672396E-16	5.338821E-18
7.159550E+03	1.660054E-16	5.299407E-18
7.169453E+03	1.647725E-16	5.260041E-18
7.179355E+03	1.635355E-16	5.220548E-18
7.189258E+03	1.623021E-16	5.181179E-18
7.199160E+03	1.610702E-16	5.141866E-18
7.209063E+03	1.598410E-16	5.102644E-18
7.218965E+03	1.586121E-16	5.063440E-18
7.228868E+03	1.573846E-16	5.024289E-18
7.238770E+03	1.561630E-16	4.985330E-18
7.248673E+03	1.549451E-16	4.946496E-18
7.258576E+03	1.537289E-16	4.907725E-18
7.268478E+03	1.525159E-16	4.869061E-18
7.278381E+03	1.513077E-16	4.830558E-18
7.288283E+03	1.501061E-16	4.792274E-18
7.298186E+03	1.489102E-16	4.754178E-18
7.308088E+03	1.477194E-16	4.716251E-18
7.317991E+03	1.465366E-16	4.678587E-18
7.327894E+03	1.453591E-16	4.641101E-18
7.337796E+03	1.441971E-16	4.604114E-18
7.347699E+03	1.430460E-16	4.567482E-18
7.357601E+03	1.419109E-16	4.531368E-18
7.367504E+03	1.408007E-16	4.496060E-18
7.377406E+03	1.397250E-16	4.461854E-18
7.387309E+03	1.386877E-16	4.428885E-18
7.397211E+03	1.377022E-16	4.397579E-18
7.407114E+03	1.367765E-16	4.368187E-18
7.417017E+03	1.359242E-16	4.341145E-18
7.426919E+03	1.351492E-16	4.316580E-18
7.436822E+03	1.344629E-16	4.294852E-18
7.446724E+03	1.338655E-16	4.275972E-18
7.456627E+03	1.333519E-16	4.259777E-18
7.466529E+03	1.329178E-16	4.246126E-18
7.476432E+03	1.325526E-16	4.234681E-18
7.486334E+03	1.322544E-16	4.225386E-18
7.496237E+03	1.320133E-16	4.217921E-18
7.506140E+03	1.318228E-16	4.212081E-18
7.516042E+03	1.316804E-16	4.207783E-18
7.525945E+03	1.315810E-16	4.204866E-18
7.535847E+03	1.315205E-16	4.203199E-18
7.545750E+03	1.314922E-16	4.202568E-18
7.555652E+03	1.314990E-16	4.203067E-18
7.565555E+03	1.315323E-16	4.204419E-18
7.575457E+03	1.315958E-16	4.206745E-18
7.585360E+03	1.316816E-16	4.209789E-18
7.595263E+03	1.317940E-16	4.213691E-18
7.605165E+03	1.319253E-16	4.218205E-18
7.615068E+03	1.320803E-16	4.223485E-18
7.624970E+03	1.322546E-16	4.229388E-18
7.634873E+03	1.324471E-16	4.235881E-18
7.644775E+03	1.326533E-16	4.242821E-18
7.654678E+03	1.328786E-16	4.250377E-18
7.664581E+03	1.331186E-16	4.258412E-18
7.674483E+03	1.333723E-16	4.266892E-18
7.684386E+03	1.336354E-16	4.275684E-18
