#wls	flux	fluxerr
1.584409E+03	-4.874903E-17	-3.421314E-17
1.624020E+03	-5.503476E-17	-3.851782E-17
1.663630E+03	-6.138560E-17	-4.284285E-17
1.703240E+03	-6.763135E-17	-4.705150E-17
1.742850E+03	-7.380524E-17	-5.118152E-17
1.782461E+03	-7.966161E-17	-5.504079E-17
1.822071E+03	-8.520734E-17	-5.865520E-17
1.861681E+03	-9.010463E-17	-6.176755E-17
1.901291E+03	-9.433259E-17	-6.439319E-17
1.940902E+03	-9.749248E-17	-6.623430E-17
1.980512E+03	-9.967240E-17	-6.739034E-17
2.020122E+03	-1.006957E-16	-6.771584E-17
2.059732E+03	-1.011438E-16	-6.764689E-17
2.099342E+03	-1.014621E-16	-6.744694E-17
2.138953E+03	-1.027793E-16	-6.790169E-17
2.178563E+03	-1.053955E-16	-6.915227E-17
2.218173E+03	-1.096723E-16	-7.145801E-17
2.257783E+03	-1.147729E-16	-7.420351E-17
2.297394E+03	-1.203347E-16	-7.718987E-17
2.337004E+03	-1.253048E-16	-7.967982E-17
2.376614E+03	-1.296678E-16	-8.172747E-17
2.416224E+03	-1.327351E-16	-8.284497E-17
2.455835E+03	-1.349165E-16	-8.337243E-17
2.495445E+03	-1.356934E-16	-8.293543E-17
2.535055E+03	-1.356960E-16	-8.201482E-17
2.574665E+03	-1.343973E-16	-8.023416E-17
2.614276E+03	-1.325085E-16	-7.811956E-17
2.653886E+03	-1.294644E-16	-7.527672E-17
2.693496E+03	-1.260238E-16	-7.225068E-17
2.733106E+03	-1.215837E-16	-6.863267E-17
2.772716E+03	-1.169325E-16	-6.497089E-17
2.812327E+03	-1.114417E-16	-6.085268E-17
2.851937E+03	-1.059343E-16	-5.682637E-17
2.891547E+03	-9.977382E-17	-5.248743E-17
2.931157E+03	-9.378463E-17	-4.836086E-17
2.962444E+03	-8.348920E-16	-4.232981E-16
2.962642E+03	-8.299080E-16	-4.207257E-16
2.962840E+03	-8.248069E-16	-4.180938E-16
2.963038E+03	-8.197066E-16	-4.154629E-16
2.963434E+03	-8.145918E-16	-4.127799E-16
2.963632E+03	-8.095406E-16	-4.101753E-16
2.965414E+03	-8.039895E-16	-4.069599E-16
2.965810E+03	-7.988644E-16	-4.042767E-16
2.966008E+03	-7.938018E-16	-4.016704E-16
2.967198E+03	-7.884445E-16	-3.986956E-16
2.967396E+03	-7.833688E-16	-3.960852E-16
2.969573E+03	-7.776872E-16	-3.927347E-16
2.970366E+03	-7.724119E-16	-3.898964E-16
2.990570E+03	-7.606217E-16	-3.795627E-16
3.034342E+03	-7.369342E-16	-3.582060E-16
3.049990E+03	-7.253954E-16	-3.492345E-16
3.053753E+03	-7.187872E-16	-3.452300E-16
3.054347E+03	-7.136709E-16	-3.426437E-16
3.055734E+03	-7.081230E-16	-3.396805E-16
3.055932E+03	-7.031756E-16	-3.372648E-16
3.064252E+03	-6.943079E-16	-3.312405E-16
3.065637E+03	-6.888413E-16	-3.283398E-16
3.069797E+03	-6.819809E-16	-3.241944E-16
3.070391E+03	-6.768843E-16	-3.216476E-16
3.074948E+03	-6.697721E-16	-3.173211E-16
3.078709E+03	-6.632124E-16	-3.134390E-16
3.080294E+03	-6.577424E-16	-3.105291E-16
3.080691E+03	-6.528367E-16	-3.081322E-16
3.081483E+03	-6.477934E-16	-3.055917E-16
3.081681E+03	-6.430078E-16	-3.032943E-16
3.082275E+03	-6.380409E-16	-3.008331E-16
3.082870E+03	-6.330343E-16	-2.983550E-16
3.083068E+03	-6.282401E-16	-2.960566E-16
3.083860E+03	-6.231133E-16	-2.934863E-16
3.084256E+03	-6.181684E-16	-2.910806E-16
3.085246E+03	-6.129102E-16	-2.884147E-16
3.086237E+03	-6.076714E-16	-2.857607E-16
3.086435E+03	-6.029514E-16	-2.835037E-16
3.087030E+03	-5.980136E-16	-2.810705E-16
3.088812E+03	-5.925028E-16	-2.781489E-16
3.089208E+03	-5.875964E-16	-2.757725E-16
3.090197E+03	-5.823999E-16	-2.731526E-16
3.090990E+03	-5.773142E-16	-2.706233E-16
3.093169E+03	-5.716470E-16	-2.675744E-16
3.093367E+03	-5.669257E-16	-2.653290E-16
3.094754E+03	-5.616124E-16	-2.625967E-16
3.095942E+03	-5.563975E-16	-2.599494E-16
3.096140E+03	-5.517471E-16	-2.577422E-16
3.096338E+03	-5.470978E-16	-2.555361E-16
3.096734E+03	-5.423605E-16	-2.532555E-16
3.096932E+03	-5.377294E-16	-2.510593E-16
3.097527E+03	-5.329083E-16	-2.487080E-16
3.098121E+03	-5.281059E-16	-2.463674E-16
3.098320E+03	-5.234820E-16	-2.441775E-16
3.098716E+03	-5.187729E-16	-2.419159E-16
3.098914E+03	-5.141671E-16	-2.397358E-16
3.099310E+03	-5.094623E-16	-2.374781E-16
3.101487E+03	-5.040129E-16	-2.345899E-16
3.101685E+03	-4.994334E-16	-2.324269E-16
3.102280E+03	-4.946007E-16	-2.300846E-16
3.102874E+03	-4.897865E-16	-2.277525E-16
3.103073E+03	-4.851268E-16	-2.255551E-16
3.103667E+03	-4.803485E-16	-2.232427E-16
3.103865E+03	-4.756938E-16	-2.210494E-16
3.104459E+03	-4.710383E-16	-2.187970E-16
3.105251E+03	-4.661914E-16	-2.164280E-16
3.105449E+03	-4.616170E-16	-2.142752E-16
3.106044E+03	-4.568866E-16	-2.119929E-16
3.106242E+03	-4.522877E-16	-2.098305E-16
3.106440E+03	-4.477337E-16	-2.076895E-16
3.107628E+03	-4.429123E-16	-2.052851E-16
3.107826E+03	-4.383651E-16	-2.031498E-16
3.108420E+03	-4.336533E-16	-2.008839E-16
3.108618E+03	-4.292695E-16	-1.988260E-16
3.109213E+03	-4.246510E-16	-1.966061E-16
3.109411E+03	-4.201125E-16	-1.944783E-16
3.109807E+03	-4.157046E-16	-1.923851E-16
3.110006E+03	-4.113575E-16	-1.903473E-16
3.110402E+03	-4.068534E-16	-1.882115E-16
3.111194E+03	-4.021812E-16	-1.859482E-16
3.111392E+03	-3.977981E-16	-1.838964E-16
3.111590E+03	-3.933442E-16	-1.818125E-16
3.111986E+03	-3.888372E-16	-1.796800E-16
3.112184E+03	-3.844305E-16	-1.776192E-16
3.112382E+03	-3.800539E-16	-1.755730E-16
3.112579E+03	-3.758087E-16	-1.735881E-16
3.113768E+03	-3.711461E-16	-1.712930E-16
3.114164E+03	-3.667121E-16	-1.691999E-16
3.114759E+03	-3.622435E-16	-1.670689E-16
3.115749E+03	-3.577082E-16	-1.648635E-16
3.115947E+03	-3.534929E-16	-1.628981E-16
3.116145E+03	-3.492072E-16	-1.609010E-16
3.116541E+03	-3.449175E-16	-1.588805E-16
3.117333E+03	-3.406074E-16	-1.568084E-16
3.117531E+03	-3.363720E-16	-1.548370E-16
3.117730E+03	-3.321669E-16	-1.528801E-16
3.118720E+03	-3.278801E-16	-1.508026E-16
3.119116E+03	-3.237646E-16	-1.488684E-16
3.119710E+03	-3.194924E-16	-1.468429E-16
3.119908E+03	-3.153982E-16	-1.449410E-16
3.120701E+03	-3.111323E-16	-1.429010E-16
3.120899E+03	-3.069859E-16	-1.409769E-16
3.121097E+03	-3.028695E-16	-1.390672E-16
3.121295E+03	-2.988404E-16	-1.371981E-16
3.121494E+03	-2.947840E-16	-1.353169E-16
3.122286E+03	-2.906523E-16	-1.333459E-16
3.122484E+03	-2.866295E-16	-1.314820E-16
3.122682E+03	-2.825940E-16	-1.296127E-16
3.122880E+03	-2.786739E-16	-1.277969E-16
3.123474E+03	-2.746951E-16	-1.259195E-16
3.123672E+03	-2.707222E-16	-1.240810E-16
3.124266E+03	-2.666504E-16	-1.221635E-16
3.124464E+03	-2.627673E-16	-1.203676E-16
3.124859E+03	-2.588512E-16	-1.185406E-16
3.125058E+03	-2.549856E-16	-1.167540E-16
3.125255E+03	-2.511219E-16	-1.149688E-16
3.125455E+03	-2.473018E-16	-1.132039E-16
3.126247E+03	-2.433162E-16	-1.113170E-16
3.126841E+03	-2.394525E-16	-1.095032E-16
3.127237E+03	-2.356947E-16	-1.077545E-16
3.127435E+03	-2.319272E-16	-1.060172E-16
3.127633E+03	-2.282463E-16	-1.043199E-16
3.128029E+03	-2.245521E-16	-1.026026E-16
3.128227E+03	-2.208747E-16	-1.009081E-16
3.128623E+03	-2.171709E-16	-9.918804E-17
3.128821E+03	-2.135109E-16	-9.750271E-17
3.129019E+03	-2.098523E-16	-9.581844E-17
3.129416E+03	-2.062262E-16	-9.413622E-17
3.129812E+03	-2.026593E-16	-9.248191E-17
3.130604E+03	-1.989471E-16	-9.073662E-17
3.131000E+03	-1.953441E-16	-8.906818E-17
3.131397E+03	-1.917438E-16	-8.740182E-17
3.131595E+03	-1.883386E-16	-8.583749E-17
3.132189E+03	-1.848624E-16	-8.421739E-17
3.132387E+03	-1.813762E-16	-8.261749E-17
3.132585E+03	-1.779904E-16	-8.106375E-17
3.132981E+03	-1.745573E-16	-7.947763E-17
3.133180E+03	-1.711888E-16	-7.793288E-17
3.133378E+03	-1.678498E-16	-7.640197E-17
3.133576E+03	-1.645686E-16	-7.489780E-17
3.133972E+03	-1.611862E-16	-7.333757E-17
3.134170E+03	-1.579927E-16	-7.187438E-17
3.134368E+03	-1.547583E-16	-7.039295E-17
3.134566E+03	-1.514968E-16	-6.889966E-17
3.134764E+03	-1.483352E-16	-6.745221E-17
3.134962E+03	-1.451045E-16	-6.597370E-17
3.135160E+03	-1.418749E-16	-6.449617E-17
3.135556E+03	-1.386741E-16	-6.302314E-17
3.135754E+03	-1.356111E-16	-6.162231E-17
3.136150E+03	-1.325285E-16	-6.020444E-17
3.136347E+03	-1.294517E-16	-5.879839E-17
3.136744E+03	-1.263676E-16	-5.738110E-17
3.137537E+03	-1.231926E-16	-5.590750E-17
3.137735E+03	-1.201682E-16	-5.452716E-17
3.137933E+03	-1.172236E-16	-5.318343E-17
3.138131E+03	-1.142155E-16	-5.181128E-17
3.138527E+03	-1.112101E-16	-5.043350E-17
3.138725E+03	-1.082654E-16	-4.909106E-17
3.139517E+03	-1.052549E-16	-4.769869E-17
3.139715E+03	-1.023396E-16	-4.637091E-17
3.139913E+03	-9.945199E-17	-4.505605E-17
3.140111E+03	-9.659223E-17	-4.375419E-17
3.140507E+03	-9.374254E-17	-4.245116E-17
3.140705E+03	-9.094030E-17	-4.117626E-17
3.140904E+03	-8.816720E-17	-3.991491E-17
3.141300E+03	-8.540439E-17	-3.865304E-17
3.141894E+03	-8.265618E-17	-3.739310E-17
3.142092E+03	-7.997350E-17	-3.617427E-17
3.142885E+03	-7.727194E-17	-3.493214E-17
3.143677E+03	-7.460137E-17	-3.370543E-17
3.143875E+03	-7.200199E-17	-3.252632E-17
3.144073E+03	-6.939390E-17	-3.134361E-17
3.144469E+03	-6.684839E-17	-3.018515E-17
3.144866E+03	-6.430079E-17	-2.902641E-17
3.145064E+03	-6.178902E-17	-2.788853E-17
3.145658E+03	-5.930239E-17	-2.675458E-17
3.146054E+03	-5.682504E-17	-2.562949E-17
3.146252E+03	-5.449356E-17	-2.457438E-17
3.146846E+03	-5.214667E-17	-2.350581E-17
3.147440E+03	-4.979712E-17	-2.243696E-17
3.147638E+03	-4.746904E-17	-2.138490E-17
3.148233E+03	-4.514926E-17	-2.033097E-17
3.148431E+03	-4.286441E-17	-1.929929E-17
3.149026E+03	-4.062865E-17	-1.828468E-17
3.149223E+03	-3.845649E-17	-1.730461E-17
3.149817E+03	-3.630446E-17	-1.632911E-17
3.150213E+03	-3.411244E-17	-1.533871E-17
3.150411E+03	-3.198043E-17	-1.437796E-17
3.150609E+03	-2.995060E-17	-1.346341E-17
3.150807E+03	-2.790917E-17	-1.254392E-17
3.151005E+03	-2.587414E-17	-1.162757E-17
3.151797E+03	-2.382738E-17	-1.070153E-17
3.151995E+03	-2.177599E-17	-9.778763E-18
3.152193E+03	-1.982105E-17	-8.899576E-18
3.152590E+03	-1.783401E-17	-8.005061E-18
3.152788E+03	-1.597807E-17	-7.170949E-18
3.153382E+03	-1.405870E-17	-6.306766E-18
3.153580E+03	-1.215981E-17	-5.454121E-18
3.153778E+03	-1.028068E-17	-4.610586E-18
3.153977E+03	-8.443681E-18	-3.786189E-18
3.154175E+03	-6.647162E-18	-2.980184E-18
3.154373E+03	-4.929774E-18	-2.209887E-18
3.154769E+03	-3.236186E-18	-1.450272E-18
3.154967E+03	-1.567751E-18	-7.024723E-19
3.155363E+03	7.592528E-20	3.401034E-20
3.155561E+03	1.695062E-18	7.591829E-19
3.155759E+03	3.289352E-18	1.473016E-18
3.156353E+03	4.856668E-18	2.173922E-18
3.156552E+03	6.404057E-18	2.866136E-18
3.157344E+03	7.921263E-18	3.543075E-18
3.158136E+03	9.411393E-18	4.207110E-18
3.158334E+03	1.088177E-17	4.863686E-18
3.158730E+03	1.232441E-17	5.506856E-18
3.158928E+03	1.374434E-17	6.140413E-18
3.159324E+03	1.513565E-17	6.759997E-18
3.159523E+03	1.650479E-17	7.370398E-18
3.159721E+03	1.784998E-17	7.969929E-18
3.159919E+03	1.916848E-17	8.557365E-18
3.160315E+03	2.045847E-17	9.130561E-18
3.160514E+03	2.170958E-17	9.687486E-18
3.160711E+03	2.295878E-17	1.024341E-17
3.161899E+03	2.418427E-17	1.078059E-17
3.162493E+03	2.543989E-17	1.133526E-17
3.163681E+03	2.658944E-17	1.183691E-17
3.163879E+03	2.776182E-17	1.235698E-17
3.164077E+03	2.881612E-17	1.282435E-17
3.164870E+03	2.985078E-17	1.327690E-17
3.165069E+03	3.094838E-17	1.376303E-17
3.165267E+03	3.194722E-17	1.420511E-17
3.165465E+03	3.294969E-17	1.464866E-17
3.165663E+03	3.394895E-17	1.509066E-17
3.165861E+03	3.496140E-17	1.553838E-17
3.166059E+03	3.598017E-17	1.598878E-17
3.166257E+03	3.695758E-17	1.642067E-17
3.166851E+03	3.779436E-17	1.678494E-17
3.167049E+03	3.872547E-17	1.719588E-17
3.167445E+03	3.957339E-17	1.756714E-17
3.167643E+03	4.042309E-17	1.794165E-17
3.167841E+03	4.121385E-17	1.828989E-17
3.168238E+03	4.200400E-17	1.863496E-17
3.168436E+03	4.276525E-17	1.896985E-17
3.168634E+03	4.348672E-17	1.928699E-17
3.168832E+03	4.423774E-17	1.961713E-17
3.169228E+03	4.493169E-17	1.991889E-17
3.169822E+03	4.554634E-17	2.018228E-17
3.170020E+03	4.610981E-17	2.042889E-17
3.170416E+03	4.669184E-17	2.068055E-17
3.170813E+03	4.726646E-17	2.092874E-17
3.171209E+03	4.783374E-17	2.117355E-17
3.171803E+03	4.834296E-17	2.138930E-17
3.172002E+03	4.881356E-17	2.159426E-17
3.172200E+03	4.929477E-17	2.180385E-17
3.172397E+03	4.969729E-17	2.197859E-17
3.172596E+03	5.015903E-17	2.217944E-17
3.172991E+03	5.059504E-17	2.236550E-17
3.173783E+03	5.097377E-17	2.251931E-17
3.174575E+03	5.127185E-17	2.263730E-17
3.174773E+03	5.152948E-17	2.274761E-17
3.174971E+03	5.181527E-17	2.287031E-17
3.175565E+03	5.211493E-17	2.299213E-17
3.175763E+03	5.230049E-17	2.307049E-17
3.176359E+03	5.251037E-17	2.315252E-17
3.177151E+03	5.263973E-17	2.319547E-17
3.177547E+03	5.279439E-17	2.325655E-17
3.177943E+03	5.297700E-17	2.332990E-17
3.178933E+03	5.303853E-17	2.333923E-17
3.179131E+03	5.316376E-17	2.339077E-17
3.180518E+03	5.320493E-17	2.338390E-17
3.180716E+03	5.321457E-17	2.338457E-17
3.180914E+03	5.327106E-17	2.340581E-17
3.181508E+03	5.327965E-17	2.339885E-17
3.181706E+03	5.330658E-17	2.340710E-17
3.183291E+03	5.321361E-17	2.333765E-17
3.183489E+03	5.315627E-17	2.330892E-17
3.183886E+03	5.304021E-17	2.325089E-17
3.184084E+03	5.282411E-17	2.315261E-17
3.185272E+03	5.268303E-17	2.306949E-17
3.185469E+03	5.254995E-17	2.300769E-17
3.185667E+03	5.238220E-17	2.293072E-17
3.185865E+03	5.215198E-17	2.282642E-17
3.186657E+03	5.186497E-17	2.268681E-17
3.187251E+03	5.157429E-17	2.254923E-17
3.187449E+03	5.129412E-17	2.242327E-17
3.187649E+03	5.099942E-17	2.229098E-17
3.188639E+03	5.063694E-17	2.211545E-17
3.189827E+03	5.024638E-17	2.192451E-17
3.191412E+03	4.981455E-17	2.170912E-17
3.191610E+03	4.945547E-17	2.154929E-17
3.192006E+03	4.906785E-17	2.137374E-17
3.192600E+03	4.865076E-17	2.118217E-17
3.192798E+03	4.824223E-17	2.100103E-17
3.195572E+03	4.769000E-17	2.071532E-17
3.196364E+03	4.724143E-17	2.050763E-17
3.197551E+03	4.672947E-17	2.026635E-17
3.197749E+03	4.619015E-17	2.002931E-17
3.197947E+03	4.575200E-17	1.983620E-17
3.198938E+03	4.521153E-17	1.958646E-17
3.199929E+03	4.461751E-17	1.931393E-17
3.200523E+03	4.405236E-17	1.906028E-17
3.203098E+03	4.333566E-17	1.871174E-17
3.203692E+03	4.272276E-17	1.843834E-17
3.204088E+03	4.212502E-17	1.817461E-17
3.204286E+03	4.152376E-17	1.791236E-17
3.204485E+03	4.090850E-17	1.764414E-17
3.205079E+03	4.025440E-17	1.735376E-17
3.205277E+03	3.960775E-17	1.707228E-17
3.206465E+03	3.889279E-17	1.674812E-17
3.208050E+03	3.814311E-17	1.640439E-17
3.208446E+03	3.744379E-17	1.609849E-17
3.208643E+03	3.674403E-17	1.579512E-17
3.208841E+03	3.603168E-17	1.548644E-17
3.209040E+03	3.530420E-17	1.517133E-17
3.210823E+03	3.448322E-17	1.479721E-17
3.211021E+03	3.371188E-17	1.446391E-17
3.211615E+03	3.287841E-17	1.409952E-17
3.211813E+03	3.201969E-17	1.372907E-17
3.212209E+03	3.117687E-17	1.336341E-17
3.213397E+03	3.027448E-17	1.296411E-17
3.213595E+03	2.941348E-17	1.259339E-17
3.213793E+03	2.855555E-17	1.222410E-17
3.213991E+03	2.766479E-17	1.184088E-17
3.214189E+03	2.677071E-17	1.145635E-17
3.214784E+03	2.591196E-17	1.108350E-17
3.215973E+03	2.501361E-17	1.068888E-17
3.216171E+03	2.408193E-17	1.028909E-17
3.216963E+03	2.311007E-17	9.867478E-18
3.217953E+03	2.217964E-17	9.462545E-18
3.218151E+03	2.120308E-17	9.044450E-18
3.218547E+03	2.024399E-17	8.632537E-18
3.219340E+03	1.928223E-17	8.217084E-18
3.219538E+03	1.833517E-17	7.812228E-18
3.219736E+03	1.734548E-17	7.389342E-18
3.220528E+03	1.634049E-17	6.956682E-18
3.220726E+03	1.534143E-17	6.530287E-18
3.221518E+03	1.431107E-17	6.087737E-18
3.221716E+03	1.325331E-17	5.636861E-18
3.221914E+03	1.223402E-17	5.202489E-18
3.222112E+03	1.122672E-17	4.773362E-18
3.222310E+03	1.011262E-17	4.298968E-18
3.223301E+03	9.054403E-18	3.845970E-18
3.223697E+03	8.042800E-18	3.415162E-18
3.223895E+03	7.008675E-18	2.975562E-18
3.224687E+03	5.916156E-18	2.510085E-18
3.224885E+03	4.761880E-18	2.020022E-18
3.225479E+03	3.648775E-18	1.547075E-18
3.226073E+03	2.470537E-18	1.046989E-18
3.226867E+03	1.303849E-18	5.521947E-19
3.227263E+03	1.774349E-19	7.512098E-20
3.228253E+03	-8.660491E-19	-3.663594E-19
3.229045E+03	-1.903379E-18	-8.046444E-19
3.229441E+03	-2.969841E-18	-1.255072E-18
3.230035E+03	-4.049718E-18	-1.710587E-18
3.230432E+03	-5.122416E-18	-2.162977E-18
3.230630E+03	-6.251156E-18	-2.639159E-18
3.231224E+03	-7.336630E-18	-3.095896E-18
3.231422E+03	-8.409371E-18	-3.547982E-18
3.232413E+03	-9.568837E-18	-4.033824E-18
3.233402E+03	-1.062168E-17	-4.473952E-18
3.233600E+03	-1.171995E-17	-4.935734E-18
3.234393E+03	-1.282728E-17	-5.398482E-18
3.234591E+03	-1.399344E-17	-5.888294E-18
3.235383E+03	-1.507494E-17	-6.339158E-18
3.235581E+03	-1.617283E-17	-6.799699E-18
3.235977E+03	-1.726325E-17	-7.255734E-18
3.236175E+03	-1.840269E-17	-7.733352E-18
3.236769E+03	-1.953254E-17	-8.204040E-18
3.236967E+03	-2.060795E-17	-8.654287E-18
3.237561E+03	-2.163037E-17	-9.079103E-18
3.237759E+03	-2.270985E-17	-9.530607E-18
3.238553E+03	-2.373834E-17	-9.955561E-18
3.239147E+03	-2.486447E-17	-1.042261E-17
3.239543E+03	-2.587743E-17	-1.084358E-17
3.239741E+03	-2.691377E-17	-1.127595E-17
3.240533E+03	-2.797733E-17	-1.171368E-17
3.240731E+03	-2.909109E-17	-1.217795E-17
3.241325E+03	-3.008979E-17	-1.258967E-17
3.242910E+03	-3.103862E-17	-1.296919E-17
3.243504E+03	-3.209011E-17	-1.340176E-17
3.244296E+03	-3.305741E-17	-1.379641E-17
3.244692E+03	-3.407523E-17	-1.421639E-17
3.244890E+03	-3.516557E-17	-1.466881E-17
3.245484E+03	-3.617727E-17	-1.508317E-17
3.246475E+03	-3.719820E-17	-1.549569E-17
3.247069E+03	-3.822425E-17	-1.591501E-17
3.247663E+03	-3.923949E-17	-1.632940E-17
3.248059E+03	-4.021164E-17	-1.672827E-17
3.248257E+03	-4.116483E-17	-1.712189E-17
3.249049E+03	-4.213251E-17	-1.751246E-17
3.250437E+03	-4.295010E-17	-1.783100E-17
3.250635E+03	-4.381855E-17	-1.818843E-17
3.250833E+03	-4.466821E-17	-1.853795E-17
3.251031E+03	-4.551247E-17	-1.888511E-17
3.251427E+03	-4.639801E-17	-1.924598E-17
3.252021E+03	-4.719485E-17	-1.956647E-17
3.252219E+03	-4.803515E-17	-1.991145E-17
3.252417E+03	-4.887605E-17	-2.025655E-17
3.252615E+03	-4.965975E-17	-2.057783E-17
3.253011E+03	-5.042178E-17	-2.088644E-17
3.253804E+03	-5.118181E-17	-2.118674E-17
3.254002E+03	-5.195187E-17	-2.150181E-17
3.254200E+03	-5.269129E-17	-2.180410E-17
3.255389E+03	-5.337970E-17	-2.206619E-17
3.255587E+03	-5.414180E-17	-2.237739E-17
3.256378E+03	-5.472347E-17	-2.260225E-17
3.257171E+03	-5.541624E-17	-2.287258E-17
3.257963E+03	-5.602115E-17	-2.310632E-17
3.258359E+03	-5.669274E-17	-2.337524E-17
3.258755E+03	-5.728591E-17	-2.361165E-17
3.259151E+03	-5.780787E-17	-2.381855E-17
3.259349E+03	-5.836775E-17	-2.404508E-17
3.259547E+03	-5.892002E-17	-2.426839E-17
3.260538E+03	-5.931754E-17	-2.441094E-17
3.260736E+03	-5.979219E-17	-2.460201E-17
3.260934E+03	-6.024989E-17	-2.478603E-17
3.261132E+03	-6.073448E-17	-2.498105E-17
3.261331E+03	-6.126493E-17	-2.519486E-17
3.261925E+03	-6.171344E-17	-2.536608E-17
3.262915E+03	-6.200104E-17	-2.546215E-17
3.263113E+03	-6.235417E-17	-2.560271E-17
3.263509E+03	-6.268180E-17	-2.572827E-17
3.264499E+03	-6.291598E-17	-2.580188E-17
3.264895E+03	-6.311951E-17	-2.587631E-17
3.265093E+03	-6.342357E-17	-2.599642E-17
3.265292E+03	-6.367795E-17	-2.609613E-17
3.265886E+03	-6.391551E-17	-2.617975E-17
3.266085E+03	-6.409156E-17	-2.624725E-17
3.266481E+03	-6.422610E-17	-2.629314E-17
3.267273E+03	-6.428217E-17	-2.629766E-17
3.267471E+03	-6.435319E-17	-2.632210E-17
3.267669E+03	-6.446984E-17	-2.636519E-17
3.268064E+03	-6.444061E-17	-2.634401E-17
3.268659E+03	-6.434731E-17	-2.629199E-17
3.268857E+03	-6.433024E-17	-2.628039E-17
3.269055E+03	-6.425252E-17	-2.624405E-17
3.269451E+03	-6.405487E-17	-2.615412E-17
3.269649E+03	-6.391294E-17	-2.609158E-17
3.270045E+03	-6.365610E-17	-2.597758E-17
3.270243E+03	-6.350039E-17	-2.590948E-17
3.270441E+03	-6.326318E-17	-2.580814E-17
3.270639E+03	-6.293409E-17	-2.566936E-17
3.271035E+03	-6.262461E-17	-2.553413E-17
3.271233E+03	-6.229139E-17	-2.539378E-17
3.271431E+03	-6.187346E-17	-2.521896E-17
3.271630E+03	-6.139293E-17	-2.501866E-17
3.272422E+03	-6.086891E-17	-2.478759E-17
3.272620E+03	-6.029913E-17	-2.455122E-17
3.273017E+03	-5.970924E-17	-2.430244E-17
3.273215E+03	-5.906742E-17	-2.403696E-17
3.273413E+03	-5.839359E-17	-2.375855E-17
3.273809E+03	-5.769931E-17	-2.346775E-17
3.274007E+03	-5.692714E-17	-2.314959E-17
3.274799E+03	-5.784169E-17	-2.350481E-17
3.275393E+03	-5.637571E-17	-2.289689E-17
3.275789E+03	-5.407258E-17	-2.195368E-17
3.276185E+03	-5.360423E-17	-2.175578E-17
3.276978E+03	-5.352798E-17	-2.170938E-17
3.277177E+03	-5.371525E-17	-2.178143E-17
3.277375E+03	-5.414162E-17	-2.195041E-17
3.277771E+03	-5.471294E-17	-2.217413E-17
