#wls	flux	fluxerr
1.584409E+03	5.979788E-17	1.290969E-17
1.624020E+03	6.238538E-17	1.343718E-17
1.663630E+03	6.480117E-17	1.392520E-17
1.703240E+03	6.699497E-17	1.436322E-17
1.742850E+03	6.893929E-17	1.474570E-17
1.782461E+03	7.055926E-17	1.505444E-17
1.822071E+03	7.176568E-17	1.527344E-17
1.861681E+03	7.247385E-17	1.538538E-17
1.901291E+03	7.257113E-17	1.536721E-17
1.940902E+03	7.198535E-17	1.520192E-17
1.980512E+03	7.068406E-17	1.488662E-17
2.020122E+03	6.877520E-17	1.444520E-17
2.059732E+03	6.653693E-17	1.393698E-17
2.099342E+03	6.444228E-17	1.345876E-17
2.138953E+03	6.298714E-17	1.311629E-17
2.178563E+03	6.244348E-17	1.296486E-17
2.218173E+03	6.271776E-17	1.298343E-17
2.257783E+03	6.344028E-17	1.309157E-17
2.297394E+03	6.415737E-17	1.319767E-17
2.337004E+03	6.454121E-17	1.323451E-17
2.376614E+03	6.440275E-17	1.316409E-17
2.416224E+03	6.368274E-17	1.297269E-17
2.455835E+03	6.240066E-17	1.266818E-17
2.495445E+03	6.060828E-17	1.226223E-17
2.535055E+03	5.838293E-17	1.177148E-17
2.574665E+03	5.580754E-17	1.121108E-17
2.614276E+03	5.295588E-17	1.059920E-17
2.653886E+03	4.989711E-17	9.950233E-18
2.693496E+03	4.669643E-17	9.277584E-18
2.733106E+03	4.341720E-17	8.592213E-18
2.772716E+03	4.010809E-17	7.906077E-18
2.812327E+03	3.681811E-17	7.228867E-18
2.851937E+03	3.359297E-17	6.569472E-18
2.891547E+03	3.047610E-17	5.934987E-18
2.931157E+03	2.749942E-17	5.332801E-18
2.970768E+03	2.469095E-17	4.767975E-18
2.980670E+03	2.401827E-17	4.633165E-18
2.990573E+03	2.335739E-17	4.500769E-18
3.000475E+03	2.270911E-17	4.371079E-18
3.010378E+03	2.207297E-17	4.243995E-18
3.020280E+03	2.144952E-17	4.119615E-18
3.030183E+03	2.083935E-17	3.997989E-18
3.040086E+03	2.024164E-17	3.879011E-18
3.049988E+03	1.965842E-17	3.763062E-18
3.059891E+03	1.908948E-17	3.650092E-18
3.069793E+03	1.853526E-17	3.540125E-18
3.079696E+03	1.799477E-17	3.433018E-18
3.089598E+03	1.746765E-17	3.328690E-18
3.099501E+03	1.695422E-17	3.227198E-18
3.109403E+03	1.645383E-17	3.128361E-18
3.119306E+03	1.596716E-17	3.032349E-18
3.129209E+03	1.549318E-17	2.938956E-18
3.139111E+03	1.503267E-17	2.848323E-18
3.149014E+03	1.458504E-17	2.760290E-18
3.158916E+03	1.415059E-17	2.674944E-18
3.168819E+03	1.372889E-17	2.592199E-18
3.178721E+03	1.332003E-17	2.512062E-18
3.188624E+03	1.292394E-17	2.434477E-18
3.198526E+03	1.254044E-17	2.359439E-18
3.208429E+03	1.216927E-17	2.286887E-18
3.218332E+03	1.181073E-17	2.216874E-18
3.228234E+03	1.146460E-17	2.149317E-18
3.238137E+03	1.113082E-17	2.084229E-18
3.248039E+03	1.080904E-17	2.021535E-18
3.257942E+03	1.049906E-17	1.961192E-18
3.267844E+03	1.020091E-17	1.903171E-18
3.277747E+03	9.914142E-18	1.847405E-18
3.287650E+03	9.638630E-18	1.793866E-18
3.297552E+03	9.374120E-18	1.742498E-18
3.307455E+03	9.120170E-18	1.693188E-18
3.317357E+03	8.876696E-18	1.645938E-18
3.327260E+03	8.643308E-18	1.600668E-18
3.337162E+03	8.419737E-18	1.557322E-18
3.347065E+03	8.205793E-18	1.515837E-18
3.356967E+03	8.000926E-18	1.476127E-18
3.366870E+03	7.805082E-18	1.438174E-18
3.376773E+03	7.617909E-18	1.401910E-18
3.386675E+03	7.439111E-18	1.367253E-18
3.396578E+03	7.268369E-18	1.334159E-18
3.406480E+03	7.105445E-18	1.302579E-18
3.416383E+03	6.949918E-18	1.272431E-18
3.426285E+03	6.801709E-18	1.243677E-18
3.436188E+03	6.660385E-18	1.216251E-18
3.446090E+03	6.525731E-18	1.190109E-18
3.455993E+03	6.397485E-18	1.165199E-18
3.465896E+03	6.275453E-18	1.141465E-18
3.475798E+03	6.159338E-18	1.118864E-18
3.485701E+03	6.048917E-18	1.097352E-18
3.495603E+03	5.943914E-18	1.076875E-18
3.505506E+03	5.844129E-18	1.057379E-18
3.515408E+03	5.749325E-18	1.038832E-18
3.525311E+03	5.659273E-18	1.021188E-18
3.535213E+03	5.573814E-18	1.004415E-18
3.545116E+03	5.492736E-18	9.884601E-19
3.555019E+03	5.415848E-18	9.732976E-19
3.564921E+03	5.342961E-18	9.588911E-19
3.574824E+03	5.274005E-18	9.452251E-19
3.584726E+03	5.208808E-18	9.322536E-19
3.594629E+03	5.147206E-18	9.199572E-19
3.604531E+03	5.088947E-18	9.082881E-19
3.614434E+03	5.033941E-18	8.972276E-19
3.624337E+03	4.982104E-18	8.867474E-19
3.634239E+03	4.933256E-18	8.768244E-19
3.644142E+03	4.887323E-18	8.674433E-19
3.654044E+03	4.844230E-18	8.585885E-19
3.663947E+03	4.803909E-18	8.502356E-19
3.673849E+03	4.766284E-18	8.423794E-19
3.683752E+03	4.731240E-18	8.349980E-19
3.693654E+03	4.698792E-18	8.280920E-19
3.703557E+03	4.668916E-18	8.216448E-19
3.713460E+03	4.641486E-18	8.156430E-19
3.723362E+03	4.616473E-18	8.100793E-19
3.733265E+03	4.593880E-18	8.049526E-19
3.743167E+03	4.573683E-18	8.002472E-19
3.753070E+03	4.555836E-18	7.959627E-19
3.762972E+03	4.540267E-18	7.920851E-19
3.772875E+03	4.526946E-18	7.886072E-19
3.782777E+03	4.515930E-18	7.855283E-19
3.792680E+03	4.507179E-18	7.828486E-19
3.802583E+03	4.500629E-18	7.805552E-19
3.812485E+03	4.496326E-18	7.786546E-19
3.822388E+03	4.494222E-18	7.771279E-19
3.832290E+03	4.494349E-18	7.759879E-19
3.842193E+03	4.496609E-18	7.752157E-19
3.852095E+03	4.501083E-18	7.748235E-19
3.861998E+03	4.507754E-18	7.747987E-19
3.871900E+03	4.516581E-18	7.751405E-19
3.881803E+03	4.527529E-18	7.758415E-19
3.891706E+03	4.540603E-18	7.769007E-19
3.901608E+03	4.555825E-18	7.783123E-19
3.911511E+03	4.573182E-18	7.800803E-19
3.921413E+03	4.592607E-18	7.821916E-19
3.931316E+03	4.614102E-18	7.846451E-19
3.941218E+03	4.637692E-18	7.874354E-19
3.951121E+03	4.663362E-18	7.905662E-19
3.961024E+03	4.691077E-18	7.940297E-19
3.970926E+03	4.720803E-18	7.978189E-19
3.980829E+03	4.752564E-18	8.019284E-19
3.990731E+03	4.786339E-18	8.063608E-19
4.000634E+03	4.822061E-18	8.111029E-19
4.010536E+03	4.859768E-18	8.161598E-19
4.020439E+03	4.899453E-18	8.215214E-19
4.030341E+03	4.941063E-18	8.271844E-19
4.040244E+03	4.984609E-18	8.331491E-19
4.050147E+03	5.030062E-18	8.394092E-19
4.060049E+03	5.077462E-18	8.459627E-19
4.069952E+03	5.126717E-18	8.527997E-19
4.079854E+03	5.177883E-18	8.599280E-19
4.089757E+03	5.230891E-18	8.673347E-19
4.099659E+03	5.285825E-18	8.750255E-19
4.109562E+03	5.342548E-18	8.829829E-19
4.119464E+03	5.401074E-18	8.912076E-19
4.129367E+03	5.461420E-18	8.997009E-19
4.139270E+03	5.523587E-18	9.084553E-19
4.149172E+03	5.587522E-18	9.174668E-19
4.159075E+03	5.653154E-18	9.267225E-19
4.168977E+03	5.720500E-18	9.362237E-19
4.178880E+03	5.789567E-18	9.459641E-19
4.188782E+03	5.860297E-18	9.559387E-19
4.198685E+03	5.932614E-18	9.661339E-19
4.208587E+03	6.006491E-18	9.765441E-19
4.218490E+03	6.081936E-18	9.871637E-19
4.228393E+03	6.158884E-18	9.979863E-19
4.238295E+03	6.237255E-18	1.008998E-18
4.248198E+03	6.317012E-18	1.020191E-18
4.258100E+03	6.398159E-18	1.031560E-18
4.268003E+03	6.480512E-18	1.043080E-18
4.277905E+03	6.564023E-18	1.054742E-18
4.287808E+03	6.648640E-18	1.066536E-18
4.297711E+03	6.734345E-18	1.078454E-18
4.307613E+03	6.820976E-18	1.090474E-18
4.317516E+03	6.908407E-18	1.102575E-18
4.327418E+03	6.996615E-18	1.114753E-18
4.337321E+03	7.085628E-18	1.127008E-18
4.347223E+03	7.175431E-18	1.139340E-18
4.357126E+03	7.265945E-18	1.151736E-18
4.367028E+03	7.357199E-18	1.164201E-18
4.376931E+03	7.449275E-18	1.176743E-18
4.386834E+03	7.542164E-18	1.189363E-18
4.396736E+03	7.635791E-18	1.202050E-18
4.406639E+03	7.730141E-18	1.214800E-18
4.416541E+03	7.825383E-18	1.227637E-18
4.426444E+03	7.921401E-18	1.240543E-18
4.436346E+03	8.018187E-18	1.253519E-18
4.446249E+03	8.115669E-18	1.266550E-18
4.456151E+03	8.214051E-18	1.279668E-18
4.466054E+03	8.313117E-18	1.292839E-18
4.475957E+03	8.412886E-18	1.306066E-18
4.485859E+03	8.513325E-18	1.319344E-18
4.495762E+03	8.614430E-18	1.332669E-18
4.505664E+03	8.716133E-18	1.346031E-18
4.515567E+03	8.818373E-18	1.359422E-18
4.525469E+03	8.921137E-18	1.372839E-18
4.535372E+03	9.024390E-18	1.386273E-18
4.545274E+03	9.128121E-18	1.399726E-18
4.555177E+03	9.232175E-18	1.413172E-18
4.565080E+03	9.336650E-18	1.426626E-18
4.574982E+03	9.441512E-18	1.440081E-18
4.584885E+03	9.546688E-18	1.453528E-18
4.594787E+03	9.652136E-18	1.466959E-18
4.604690E+03	9.757989E-18	1.480395E-18
4.614592E+03	9.864191E-18	1.493824E-18
4.624495E+03	9.970828E-18	1.507262E-18
4.634398E+03	1.007788E-17	1.520706E-18
4.644300E+03	1.018533E-17	1.534150E-18
4.654203E+03	1.029339E-17	1.547628E-18
4.664105E+03	1.040191E-17	1.561114E-18
4.674008E+03	1.051098E-17	1.574625E-18
4.683910E+03	1.062049E-17	1.588144E-18
4.693813E+03	1.073058E-17	1.601687E-18
4.703715E+03	1.084106E-17	1.615228E-18
4.713618E+03	1.095204E-17	1.628785E-18
4.723521E+03	1.106346E-17	1.642346E-18
4.733423E+03	1.117542E-17	1.655925E-18
4.743326E+03	1.128784E-17	1.669510E-18
4.753228E+03	1.140074E-17	1.683106E-18
4.763131E+03	1.151411E-17	1.696711E-18
4.773033E+03	1.162795E-17	1.710319E-18
4.782936E+03	1.174228E-17	1.723937E-18
4.792838E+03	1.185697E-17	1.737548E-18
4.802741E+03	1.197216E-17	1.751170E-18
4.812644E+03	1.208779E-17	1.764788E-18
4.822546E+03	1.220382E-17	1.778401E-18
4.832449E+03	1.232023E-17	1.792008E-18
4.842351E+03	1.243719E-17	1.805632E-18
4.852254E+03	1.255439E-17	1.819219E-18
4.862156E+03	1.267215E-17	1.832825E-18
4.872059E+03	1.279038E-17	1.846435E-18
4.881961E+03	1.290895E-17	1.860031E-18
4.891864E+03	1.302789E-17	1.873606E-18
4.901767E+03	1.314727E-17	1.887180E-18
4.911669E+03	1.326693E-17	1.900730E-18
4.921572E+03	1.338696E-17	1.914269E-18
4.931474E+03	1.350694E-17	1.927724E-18
4.941377E+03	1.362719E-17	1.941153E-18
4.951279E+03	1.374750E-17	1.954526E-18
4.961182E+03	1.386767E-17	1.967812E-18
4.971085E+03	1.398757E-17	1.980983E-18
4.980987E+03	1.410712E-17	1.994039E-18
4.990890E+03	1.422620E-17	2.006965E-18
5.000792E+03	1.434470E-17	2.019744E-18
5.010695E+03	1.446229E-17	2.032316E-18
5.020597E+03	1.457884E-17	2.044679E-18
5.030500E+03	1.469433E-17	2.056830E-18
5.040402E+03	1.480840E-17	2.068720E-18
5.050305E+03	1.492066E-17	2.080277E-18
5.060208E+03	1.503091E-17	2.091495E-18
5.070110E+03	1.513912E-17	2.102369E-18
5.080013E+03	1.524476E-17	2.112829E-18
5.089915E+03	1.534770E-17	2.122839E-18
5.099818E+03	1.544772E-17	2.132389E-18
5.109720E+03	1.554477E-17	2.141476E-18
5.119623E+03	1.563854E-17	2.150060E-18
5.129525E+03	1.572843E-17	2.158040E-18
5.139428E+03	1.581467E-17	2.165470E-18
5.149331E+03	1.589690E-17	2.172306E-18
5.159233E+03	1.597494E-17	2.178526E-18
5.169136E+03	1.604831E-17	2.184046E-18
5.179038E+03	1.611694E-17	2.188882E-18
5.188941E+03	1.618061E-17	2.193009E-18
5.198843E+03	1.623895E-17	2.196381E-18
5.208746E+03	1.629159E-17	2.198929E-18
5.218648E+03	1.633845E-17	2.200669E-18
5.228551E+03	1.637927E-17	2.201574E-18
5.238454E+03	1.641382E-17	2.201614E-18
5.248356E+03	1.644134E-17	2.200672E-18
5.258259E+03	1.646191E-17	2.198787E-18
5.268161E+03	1.647529E-17	2.195934E-18
5.278064E+03	1.648124E-17	2.192086E-18
5.285615E+03	3.586653E-18	4.762700E-19
5.286407E+03	3.849262E-18	5.110548E-19
5.286803E+03	3.977441E-18	5.280278E-19
5.287001E+03	4.038515E-18	5.361129E-19
5.287199E+03	4.099619E-18	5.442012E-19
5.287398E+03	4.160727E-18	5.522893E-19
5.287992E+03	4.354220E-18	5.778996E-19
5.288190E+03	4.414068E-18	5.858178E-19
5.288586E+03	4.540402E-18	6.025329E-19
5.289775E+03	4.933702E-18	6.545583E-19
5.290963E+03	5.326290E-18	7.064626E-19
5.292746E+03	5.917267E-18	7.845467E-19
5.293539E+03	6.173769E-18	8.184156E-19
5.293935E+03	6.297102E-18	8.346939E-19
5.294529E+03	6.487441E-18	8.598136E-19
5.294925E+03	6.610001E-18	8.759824E-19
5.295321E+03	6.732352E-18	8.921207E-19
5.295519E+03	6.788059E-18	8.994641E-19
5.296112E+03	6.975546E-18	9.241892E-19
5.296310E+03	7.030230E-18	9.313945E-19
5.296509E+03	7.085079E-18	9.386208E-19
5.296707E+03	7.138719E-18	9.456866E-19
5.296904E+03	7.192124E-18	9.527208E-19
5.297499E+03	7.377240E-18	9.771174E-19
5.298094E+03	7.562231E-18	1.001491E-18
5.298688E+03	7.746814E-18	1.025804E-18
5.299678E+03	8.062230E-18	1.067342E-18
5.299876E+03	8.113287E-18	1.074056E-18
5.300074E+03	8.163207E-18	1.080618E-18
5.300272E+03	8.212644E-18	1.087116E-18
5.301263E+03	8.524859E-18	1.128203E-18
5.301659E+03	8.638609E-18	1.143159E-18
5.301857E+03	8.686855E-18	1.149495E-18
5.302055E+03	8.734523E-18	1.155753E-18
5.302253E+03	8.781399E-18	1.161906E-18
5.302649E+03	8.893515E-18	1.176640E-18
5.302847E+03	8.939996E-18	1.182738E-18
5.303046E+03	8.986437E-18	1.188831E-18
5.303244E+03	9.032783E-18	1.194911E-18
5.304036E+03	9.272864E-18	1.226461E-18
5.304432E+03	9.381414E-18	1.240712E-18
5.304828E+03	9.489433E-18	1.254890E-18
5.305027E+03	9.532850E-18	1.260578E-18
5.305621E+03	9.704359E-18	1.283092E-18
5.305819E+03	9.746319E-18	1.288585E-18
5.306017E+03	9.787643E-18	1.293993E-18
5.306413E+03	9.892568E-18	1.307753E-18
5.306809E+03	9.997469E-18	1.321507E-18
5.307403E+03	1.016566E-17	1.343566E-18
5.307601E+03	1.020534E-17	1.348753E-18
5.307799E+03	1.024384E-17	1.353783E-18
5.308194E+03	1.034532E-17	1.367077E-18
5.308791E+03	1.051060E-17	1.388739E-18
5.309384E+03	1.067543E-17	1.410336E-18
5.309780E+03	1.077537E-17	1.423417E-18
5.309978E+03	1.080994E-17	1.427923E-18
5.310176E+03	1.084418E-17	1.432384E-18
5.310374E+03	1.087989E-17	1.437039E-18
5.310572E+03	1.091335E-17	1.441397E-18
5.312156E+03	1.138517E-17	1.503198E-18
5.312354E+03	1.141679E-17	1.507307E-18
5.312552E+03	1.144793E-17	1.511353E-18
5.312751E+03	1.147975E-17	1.515489E-18
5.313345E+03	1.163505E-17	1.535794E-18
5.313742E+03	1.172654E-17	1.547737E-18
5.313940E+03	1.175491E-17	1.551415E-18
5.314138E+03	1.178364E-17	1.555140E-18
5.315128E+03	1.205941E-17	1.591192E-18
5.315524E+03	1.214722E-17	1.602641E-18
5.315920E+03	1.223473E-17	1.614048E-18
5.316118E+03	1.226120E-17	1.617471E-18
5.316713E+03	1.240797E-17	1.636621E-18
5.317109E+03	1.249215E-17	1.647583E-18
5.317307E+03	1.251451E-17	1.650461E-18
5.317505E+03	1.253649E-17	1.653289E-18
5.318099E+03	1.267902E-17	1.671870E-18
5.318297E+03	1.270027E-17	1.674599E-18
5.319486E+03	1.302404E-17	1.716846E-18
5.319684E+03	1.304297E-17	1.719268E-18
5.319882E+03	1.306151E-17	1.721638E-18
5.320080E+03	1.307967E-17	1.723958E-18
5.320278E+03	1.309803E-17	1.726303E-18
5.320873E+03	1.323337E-17	1.743915E-18
5.321071E+03	1.324848E-17	1.745831E-18
5.321269E+03	1.326321E-17	1.747697E-18
5.321466E+03	1.327854E-17	1.749642E-18
5.321664E+03	1.329260E-17	1.751420E-18
5.321862E+03	1.330586E-17	1.753092E-18
5.322852E+03	1.355352E-17	1.785338E-18
5.323050E+03	1.356582E-17	1.786880E-18
5.323644E+03	1.369476E-17	1.803631E-18
5.323842E+03	1.370540E-17	1.804955E-18
5.324636E+03	1.388982E-17	1.828927E-18
5.325824E+03	1.418993E-17	1.867960E-18
5.326418E+03	1.431266E-17	1.883872E-18
5.326616E+03	1.431850E-17	1.884560E-18
5.327804E+03	1.461149E-17	1.922624E-18
5.328002E+03	1.461522E-17	1.923033E-18
5.328597E+03	1.473294E-17	1.938271E-18
5.328795E+03	1.473442E-17	1.938382E-18
5.328993E+03	1.473545E-17	1.938434E-18
5.329191E+03	1.473673E-17	1.938518E-18
5.329390E+03	1.473686E-17	1.938452E-18
5.330578E+03	1.501947E-17	1.975113E-18
5.330776E+03	1.501736E-17	1.974751E-18
5.331370E+03	1.512753E-17	1.988981E-18
5.331568E+03	1.512324E-17	1.988331E-18
5.331964E+03	1.517593E-17	1.995086E-18
5.332163E+03	1.517212E-17	1.994498E-18
5.332558E+03	1.522196E-17	2.000877E-18
5.332955E+03	1.527094E-17	2.007142E-18
5.333153E+03	1.526391E-17	2.006131E-18
5.333548E+03	1.531078E-17	2.012118E-18
5.333746E+03	1.530111E-17	2.010760E-18
5.333944E+03	1.529149E-17	2.009409E-18
5.334142E+03	1.528254E-17	2.008146E-18
5.334340E+03	1.527149E-17	2.006608E-18
5.334538E+03	1.525952E-17	2.004948E-18
5.334935E+03	1.530054E-17	2.010163E-18
5.335133E+03	1.528683E-17	2.008275E-18
5.335331E+03	1.527266E-17	2.006328E-18
5.335727E+03	1.531070E-17	2.011151E-18
5.335925E+03	1.529490E-17	2.008989E-18
5.336124E+03	1.527863E-17	2.006764E-18
5.336322E+03	1.526127E-17	2.004398E-18
5.336718E+03	1.529593E-17	2.008775E-18
5.337510E+03	1.543377E-17	2.026527E-18
5.337708E+03	1.541360E-17	2.023791E-18
5.337906E+03	1.539295E-17	2.020992E-18
5.339888E+03	1.583643E-17	2.078317E-18
5.340086E+03	1.581344E-17	2.075211E-18
5.340284E+03	1.578936E-17	2.071961E-18
5.340482E+03	1.576541E-17	2.068728E-18
5.340680E+03	1.574057E-17	2.065380E-18
5.341076E+03	1.576584E-17	2.068516E-18
5.341274E+03	1.573979E-17	2.065009E-18
5.342660E+03	1.601401E-17	2.100348E-18
5.342858E+03	1.598573E-17	2.096548E-18
5.343056E+03	1.595632E-17	2.092600E-18
5.344641E+03	1.627432E-17	2.133564E-18
5.344838E+03	1.624217E-17	2.129258E-18
5.345037E+03	1.620970E-17	2.124908E-18
5.345236E+03	1.617633E-17	2.120441E-18
5.345632E+03	1.619230E-17	2.122350E-18
5.345829E+03	1.615742E-17	2.117687E-18
5.346027E+03	1.612079E-17	2.112795E-18
5.346225E+03	1.608433E-17	2.107925E-18
5.346423E+03	1.604738E-17	2.102991E-18
5.347017E+03	1.610448E-17	2.110199E-18
5.347215E+03	1.606610E-17	2.105078E-18
5.348008E+03	1.616822E-17	2.118091E-18
5.348206E+03	1.612740E-17	2.112652E-18
5.348404E+03	1.608604E-17	2.107143E-18
5.348602E+03	1.604429E-17	2.101582E-18
5.348800E+03	1.600272E-17	2.096046E-18
5.348998E+03	1.596134E-17	2.090535E-18
5.349196E+03	1.591666E-17	2.084593E-18
5.349394E+03	1.587156E-17	2.078596E-18
5.349592E+03	1.582594E-17	2.072531E-18
5.350583E+03	1.596122E-17	2.089793E-18
5.350979E+03	1.595981E-17	2.089426E-18
5.351177E+03	1.591001E-17	2.082816E-18
5.351375E+03	1.585970E-17	2.076139E-18
5.351574E+03	1.581173E-17	2.069770E-18
5.352168E+03	1.584895E-17	2.074372E-18
5.352564E+03	1.584185E-17	2.073262E-18
5.352762E+03	1.578798E-17	2.066122E-18
5.353158E+03	1.577829E-17	2.064675E-18
5.353356E+03	1.572529E-17	2.057649E-18
5.353752E+03	1.571544E-17	2.056181E-18
5.353950E+03	1.565974E-17	2.048804E-18
5.354346E+03	1.564730E-17	2.046999E-18
5.354544E+03	1.559025E-17	2.039447E-18
5.355535E+03	1.570028E-17	2.053393E-18
5.355734E+03	1.564217E-17	2.045704E-18
5.355932E+03	1.558333E-17	2.037921E-18
5.356130E+03	1.552397E-17	2.030069E-18
5.356724E+03	1.554528E-17	2.032589E-18
5.356921E+03	1.548441E-17	2.024543E-18
5.357516E+03	1.550383E-17	2.026818E-18
5.357714E+03	1.544139E-17	2.018566E-18
5.357911E+03	1.537850E-17	2.010258E-18
5.358109E+03	1.531508E-17	2.001881E-18
5.358505E+03	1.529053E-17	1.998497E-18
5.358703E+03	1.522577E-17	1.989946E-18
5.358901E+03	1.516057E-17	1.981339E-18
5.359892E+03	1.524972E-17	1.992555E-18
5.360288E+03	1.522166E-17	1.988716E-18
5.360486E+03	1.515352E-17	1.979727E-18
5.361279E+03	1.520023E-17	1.985482E-18
5.361873E+03	1.520681E-17	1.986082E-18
5.362863E+03	1.528609E-17	1.996001E-18
5.363260E+03	1.525166E-17	1.991332E-18
5.364052E+03	1.528906E-17	1.995865E-18
5.364250E+03	1.521275E-17	1.985818E-18
5.364448E+03	1.514020E-17	1.976261E-18
5.364646E+03	1.506711E-17	1.966635E-18
5.364844E+03	1.499099E-17	1.956614E-18
5.365042E+03	1.491433E-17	1.946523E-18
5.365438E+03	1.487273E-17	1.940924E-18
5.365636E+03	1.479386E-17	1.930546E-18
5.366032E+03	1.475051E-17	1.924722E-18
5.366231E+03	1.467139E-17	1.914314E-18
5.366429E+03	1.459154E-17	1.903812E-18
5.367023E+03	1.457982E-17	1.902033E-18
5.367222E+03	1.449843E-17	1.891333E-18
5.367420E+03	1.441649E-17	1.880562E-18
5.368212E+03	1.443482E-17	1.882623E-18
5.368410E+03	1.435008E-17	1.871489E-18
5.368608E+03	1.426397E-17	1.860178E-18
5.369004E+03	1.421017E-17	1.852999E-18
5.369399E+03	1.416159E-17	1.846504E-18
5.369796E+03	1.410835E-17	1.839401E-18
5.370389E+03	1.408627E-17	1.836281E-18
5.370587E+03	1.399610E-17	1.824447E-18
5.370785E+03	1.390814E-17	1.812902E-18
5.370984E+03	1.381871E-17	1.801166E-18
5.371182E+03	1.372786E-17	1.789246E-18
5.371579E+03	1.367021E-17	1.781576E-18
5.371777E+03	1.357800E-17	1.769481E-18
5.371975E+03	1.348616E-17	1.757435E-18
5.372173E+03	1.339382E-17	1.745326E-18
5.372569E+03	1.333164E-17	1.737072E-18
5.372767E+03	1.324075E-17	1.725153E-18
5.372965E+03	1.314744E-17	1.712921E-18
5.373361E+03	1.308076E-17	1.704084E-18
5.373559E+03	1.298804E-17	1.691931E-18
5.373757E+03	1.289573E-17	1.679833E-18
5.374153E+03	1.282822E-17	1.670892E-18
5.374351E+03	1.273368E-17	1.658505E-18
5.374549E+03	1.263762E-17	1.645922E-18
5.374946E+03	1.256849E-17	1.636775E-18
5.375540E+03	1.252545E-17	1.630955E-18
5.375738E+03	1.242895E-17	1.618320E-18
5.375936E+03	1.233095E-17	1.605488E-18
5.376134E+03	1.223141E-17	1.592459E-18
5.376332E+03	1.213428E-17	1.579744E-18
5.376927E+03	1.208670E-17	1.573342E-18
5.377125E+03	1.198702E-17	1.560298E-18
5.377323E+03	1.188681E-17	1.547186E-18
5.377719E+03	1.181218E-17	1.537338E-18
5.378709E+03	1.181242E-17	1.537031E-18
5.378908E+03	1.171132E-17	1.523810E-18
