#wls	flux	fluxerr
1.584409E+03	1.198068E-16	1.749902E-17
1.624020E+03	1.238204E-16	1.804635E-17
1.663630E+03	1.275373E-16	1.854712E-17
1.703240E+03	1.309521E-16	1.900073E-17
1.742850E+03	1.339929E-16	1.939698E-17
1.782461E+03	1.365621E-16	1.972207E-17
1.822071E+03	1.385337E-16	1.995826E-17
1.861681E+03	1.397335E-16	2.008109E-17
1.901291E+03	1.399866E-16	2.006627E-17
1.940902E+03	1.391431E-16	1.989338E-17
1.980512E+03	1.371368E-16	1.955423E-17
2.020122E+03	1.341641E-16	1.907810E-17
2.059732E+03	1.307392E-16	1.853910E-17
2.099342E+03	1.277553E-16	1.806414E-17
2.138953E+03	1.262200E-16	1.779478E-17
2.178563E+03	1.267459E-16	1.781536E-17
2.218173E+03	1.292264E-16	1.810832E-17
2.257783E+03	1.330074E-16	1.857967E-17
2.297394E+03	1.371975E-16	1.910347E-17
2.337004E+03	1.410814E-16	1.957978E-17
2.376614E+03	1.442103E-16	1.994684E-17
2.416224E+03	1.463767E-16	2.017699E-17
2.455835E+03	1.475428E-16	2.026637E-17
2.495445E+03	1.477367E-16	2.022020E-17
2.535055E+03	1.470534E-16	2.005291E-17
2.574665E+03	1.455723E-16	1.977657E-17
2.614276E+03	1.433813E-16	1.940436E-17
2.653886E+03	1.405550E-16	1.894750E-17
2.693496E+03	1.371701E-16	1.841737E-17
2.733106E+03	1.332908E-16	1.782355E-17
2.772716E+03	1.289776E-16	1.717500E-17
2.812327E+03	1.242986E-16	1.648162E-17
2.851937E+03	1.193191E-16	1.575276E-17
2.891547E+03	1.141137E-16	1.499892E-17
2.931157E+03	1.087613E-16	1.423093E-17
2.970768E+03	1.033427E-16	1.345973E-17
2.980670E+03	1.019866E-16	1.326763E-17
2.990573E+03	1.006328E-16	1.307618E-17
3.000475E+03	9.928236E-17	1.288552E-17
3.010378E+03	9.793814E-17	1.269602E-17
3.020280E+03	9.659885E-17	1.250753E-17
3.030183E+03	9.526549E-17	1.232016E-17
3.040086E+03	9.394409E-17	1.213470E-17
3.049988E+03	9.263522E-17	1.195121E-17
3.059891E+03	9.134711E-17	1.177076E-17
3.069793E+03	9.007710E-17	1.159299E-17
3.079696E+03	8.882474E-17	1.141785E-17
3.089598E+03	8.759324E-17	1.124572E-17
3.099501E+03	8.637895E-17	1.107615E-17
3.109403E+03	8.518363E-17	1.090934E-17
3.119306E+03	8.400748E-17	1.074533E-17
3.129209E+03	8.285239E-17	1.058433E-17
3.139111E+03	8.171722E-17	1.042620E-17
3.149014E+03	8.060400E-17	1.027120E-17
3.158916E+03	7.951335E-17	1.011938E-17
3.168819E+03	7.844457E-17	9.970654E-18
3.178721E+03	7.739986E-17	9.825291E-18
3.188624E+03	7.638137E-17	9.683554E-18
3.198526E+03	7.538733E-17	9.545205E-18
3.208429E+03	7.442124E-17	9.410679E-18
3.218332E+03	7.348148E-17	9.279759E-18
3.228234E+03	7.257271E-17	9.153020E-18
3.238137E+03	7.169216E-17	9.030101E-18
3.248039E+03	7.084202E-17	8.911263E-18
3.257942E+03	7.002428E-17	8.796745E-18
3.267844E+03	6.923870E-17	8.686500E-18
3.277747E+03	6.848718E-17	8.580752E-18
3.287650E+03	6.776841E-17	8.479323E-18
3.297552E+03	6.708429E-17	8.382432E-18
3.307455E+03	6.643554E-17	8.290154E-18
3.317357E+03	6.582290E-17	8.202566E-18
3.327260E+03	6.524703E-17	8.119732E-18
3.337162E+03	6.470766E-17	8.041599E-18
3.347065E+03	6.420546E-17	7.968233E-18
3.356967E+03	6.374105E-17	7.899696E-18
3.366870E+03	6.331503E-17	7.836041E-18
3.376773E+03	6.292711E-17	7.777213E-18
3.386675E+03	6.257788E-17	7.723267E-18
3.396578E+03	6.226788E-17	7.674251E-18
3.406480E+03	6.199683E-17	7.630110E-18
3.416383E+03	6.176530E-17	7.590894E-18
3.426285E+03	6.157378E-17	7.556643E-18
3.436188E+03	6.142124E-17	7.527212E-18
3.446090E+03	6.130901E-17	7.502742E-18
3.455993E+03	6.123681E-17	7.483181E-18
3.465896E+03	6.120442E-17	7.468479E-18
3.475798E+03	6.121236E-17	7.458679E-18
3.485701E+03	6.125969E-17	7.453646E-18
3.495603E+03	6.134693E-17	7.453425E-18
3.505506E+03	6.147387E-17	7.457966E-18
3.515408E+03	6.164034E-17	7.467229E-18
3.525311E+03	6.184614E-17	7.481169E-18
3.535213E+03	6.209105E-17	7.499740E-18
3.545116E+03	6.237420E-17	7.522815E-18
3.555019E+03	6.269607E-17	7.550431E-18
3.564921E+03	6.305573E-17	7.582456E-18
3.574824E+03	6.345360E-17	7.618922E-18
3.584726E+03	6.388807E-17	7.659613E-18
3.594629E+03	6.436016E-17	7.704633E-18
3.604531E+03	6.486752E-17	7.753680E-18
3.614434E+03	6.541040E-17	7.806767E-18
3.624337E+03	6.598773E-17	7.863743E-18
3.634239E+03	6.659964E-17	7.924609E-18
3.644142E+03	6.724422E-17	7.989118E-18
3.654044E+03	6.792153E-17	8.057259E-18
3.663947E+03	6.863015E-17	8.128846E-18
3.673849E+03	6.936996E-17	8.203848E-18
3.683752E+03	7.013938E-17	8.282063E-18
3.693654E+03	7.093880E-17	8.363519E-18
3.703557E+03	7.176578E-17	8.447913E-18
3.713460E+03	7.262049E-17	8.535250E-18
3.723362E+03	7.350167E-17	8.625367E-18
3.733265E+03	7.440859E-17	8.718166E-18
3.743167E+03	7.533980E-17	8.813462E-18
3.753070E+03	7.629508E-17	8.911215E-18
3.762972E+03	7.727207E-17	9.011139E-18
3.772875E+03	7.827034E-17	9.113172E-18
3.782777E+03	7.928872E-17	9.217165E-18
3.792680E+03	8.032594E-17	9.322962E-18
3.802583E+03	8.138064E-17	9.430395E-18
3.812485E+03	8.245062E-17	9.539201E-18
3.822388E+03	8.353581E-17	9.649362E-18
3.832290E+03	8.463460E-17	9.760686E-18
3.842193E+03	8.574458E-17	9.872889E-18
3.852095E+03	8.686472E-17	9.985848E-18
3.861998E+03	8.799323E-17	1.009935E-17
3.871900E+03	8.912899E-17	1.021326E-17
3.881803E+03	9.026931E-17	1.032728E-17
3.891706E+03	9.141378E-17	1.044135E-17
3.901608E+03	9.255962E-17	1.055516E-17
3.911511E+03	9.370641E-17	1.066866E-17
3.921413E+03	9.485129E-17	1.078151E-17
3.931316E+03	9.599222E-17	1.089351E-17
3.941218E+03	9.712874E-17	1.100459E-17
3.951121E+03	9.825800E-17	1.111444E-17
3.961024E+03	9.937875E-17	1.122292E-17
3.970926E+03	1.004890E-16	1.132981E-17
3.980829E+03	1.015875E-16	1.143498E-17
3.990731E+03	1.026723E-16	1.153824E-17
4.000634E+03	1.037415E-16	1.163936E-17
4.010536E+03	1.047941E-16	1.173823E-17
4.020439E+03	1.058292E-16	1.183478E-17
4.030341E+03	1.068431E-16	1.192861E-17
4.040244E+03	1.078368E-16	1.201984E-17
4.050147E+03	1.088069E-16	1.210811E-17
4.060049E+03	1.097536E-16	1.219345E-17
4.069952E+03	1.106745E-16	1.227561E-17
4.079854E+03	1.115691E-16	1.235454E-17
4.089757E+03	1.124358E-16	1.243012E-17
4.099659E+03	1.132736E-16	1.250220E-17
4.109562E+03	1.140809E-16	1.257067E-17
4.119464E+03	1.148568E-16	1.263542E-17
4.129367E+03	1.156007E-16	1.269644E-17
4.139270E+03	1.163118E-16	1.275361E-17
4.149172E+03	1.169877E-16	1.280674E-17
4.159075E+03	1.176275E-16	1.285571E-17
4.168977E+03	1.182299E-16	1.290042E-17
4.178880E+03	1.187946E-16	1.294087E-17
4.188782E+03	1.193195E-16	1.297684E-17
4.198685E+03	1.198031E-16	1.300820E-17
4.208587E+03	1.202430E-16	1.303470E-17
4.218490E+03	1.206385E-16	1.305631E-17
4.228393E+03	1.209869E-16	1.307275E-17
4.238295E+03	1.212861E-16	1.308383E-17
4.248198E+03	1.215338E-16	1.308933E-17
4.258100E+03	1.217258E-16	1.308881E-17
4.268003E+03	1.218610E-16	1.308221E-17
4.277905E+03	1.219347E-16	1.306904E-17
4.287808E+03	1.219434E-16	1.304897E-17
4.297711E+03	1.218827E-16	1.302157E-17
4.307613E+03	1.217511E-16	1.298670E-17
4.317516E+03	1.215420E-16	1.294371E-17
4.327418E+03	1.212542E-16	1.289251E-17
4.337321E+03	1.208849E-16	1.283284E-17
4.347223E+03	1.204332E-16	1.276466E-17
4.357126E+03	1.199035E-16	1.268846E-17
4.367028E+03	1.193030E-16	1.260503E-17
4.376931E+03	1.186413E-16	1.251545E-17
4.386834E+03	1.179246E-16	1.242037E-17
4.396736E+03	1.171629E-16	1.232089E-17
4.406639E+03	1.163632E-16	1.221773E-17
4.416541E+03	1.155327E-16	1.211170E-17
4.426444E+03	1.146806E-16	1.200375E-17
4.436346E+03	1.138103E-16	1.189426E-17
4.446249E+03	1.129310E-16	1.178418E-17
4.456151E+03	1.120451E-16	1.167377E-17
4.466054E+03	1.111597E-16	1.156377E-17
4.475957E+03	1.102785E-16	1.145456E-17
4.485859E+03	1.094057E-16	1.134658E-17
4.495762E+03	1.085454E-16	1.124023E-17
4.505664E+03	1.076989E-16	1.113566E-17
4.515567E+03	1.068716E-16	1.103339E-17
4.525469E+03	1.060645E-16	1.093354E-17
4.535372E+03	1.052804E-16	1.083636E-17
4.545274E+03	1.045216E-16	1.074210E-17
4.555177E+03	1.037906E-16	1.065098E-17
4.565080E+03	1.030884E-16	1.056311E-17
4.574982E+03	1.024161E-16	1.047857E-17
4.584885E+03	1.017753E-16	1.039752E-17
4.594787E+03	1.011678E-16	1.032012E-17
4.604690E+03	1.005949E-16	1.024648E-17
4.614592E+03	1.000562E-16	1.017656E-17
4.624495E+03	9.955362E-17	1.011052E-17
4.634398E+03	9.908743E-17	1.004839E-17
4.644300E+03	9.865756E-17	9.990123E-18
4.654203E+03	9.826482E-17	9.935799E-18
4.664105E+03	9.790897E-17	9.885371E-18
4.674008E+03	9.758964E-17	9.838784E-18
4.683910E+03	9.730658E-17	9.795996E-18
4.693813E+03	9.705971E-17	9.756980E-18
4.703715E+03	9.684891E-17	9.721707E-18
4.713618E+03	9.667397E-17	9.690139E-18
4.723521E+03	9.653459E-17	9.662230E-18
4.733423E+03	9.642941E-17	9.637826E-18
4.743326E+03	9.635887E-17	9.616956E-18
4.753228E+03	9.632050E-17	9.599357E-18
4.763131E+03	9.631549E-17	9.585134E-18
4.773033E+03	9.634122E-17	9.574010E-18
4.782936E+03	9.639780E-17	9.565983E-18
4.792838E+03	9.648437E-17	9.560952E-18
4.802741E+03	9.659811E-17	9.558626E-18
4.812644E+03	9.673994E-17	9.559084E-18
4.822546E+03	9.690790E-17	9.562120E-18
4.832449E+03	9.710194E-17	9.567717E-18
4.842351E+03	9.731815E-17	9.575478E-18
4.852254E+03	9.755831E-17	9.585570E-18
4.862156E+03	9.781946E-17	9.597691E-18
4.872059E+03	9.810148E-17	9.611821E-18
4.881961E+03	9.840231E-17	9.627749E-18
4.891864E+03	9.872187E-17	9.645458E-18
4.901767E+03	9.905715E-17	9.664648E-18
4.911669E+03	9.940805E-17	9.685301E-18
4.921572E+03	9.977451E-17	9.707406E-18
4.931474E+03	1.001535E-16	9.730666E-18
4.941377E+03	1.005441E-16	9.754974E-18
4.951279E+03	1.009462E-16	9.780323E-18
4.961182E+03	1.013588E-16	9.806615E-18
4.971085E+03	1.017789E-16	9.833553E-18
4.980987E+03	1.022066E-16	9.861136E-18
4.990890E+03	1.026408E-16	9.889265E-18
5.000792E+03	1.030805E-16	9.917840E-18
5.010695E+03	1.035237E-16	9.946663E-18
5.020597E+03	1.039693E-16	9.975633E-18
5.030500E+03	1.044174E-16	1.000475E-17
5.040402E+03	1.048646E-16	1.003370E-17
5.050305E+03	1.053110E-16	1.006247E-17
5.060208E+03	1.057542E-16	1.009086E-17
5.070110E+03	1.061930E-16	1.011874E-17
5.080013E+03	1.066259E-16	1.014598E-17
5.089915E+03	1.070516E-16	1.017245E-17
5.099818E+03	1.074675E-16	1.019790E-17
5.109720E+03	1.078730E-16	1.022230E-17
5.119623E+03	1.082643E-16	1.024527E-17
5.129525E+03	1.086405E-16	1.026675E-17
5.139428E+03	1.089988E-16	1.028647E-17
5.149331E+03	1.093370E-16	1.030424E-17
5.159233E+03	1.096530E-16	1.031987E-17
5.169136E+03	1.099446E-16	1.033316E-17
5.179038E+03	1.102074E-16	1.034369E-17
5.188941E+03	1.104411E-16	1.035147E-17
5.198843E+03	1.106400E-16	1.035598E-17
5.208746E+03	1.108040E-16	1.035719E-17
5.218648E+03	1.109283E-16	1.035470E-17
5.228551E+03	1.110116E-16	1.034839E-17
5.238454E+03	1.110505E-16	1.033797E-17
5.248356E+03	1.110416E-16	1.032313E-17
5.258259E+03	1.109839E-16	1.030379E-17
5.268161E+03	1.108731E-16	1.027959E-17
5.278064E+03	1.107086E-16	1.025049E-17
5.287966E+03	1.104878E-16	1.021626E-17
5.297869E+03	1.102083E-16	1.017672E-17
5.307772E+03	1.098693E-16	1.013178E-17
5.317674E+03	1.094701E-16	1.008144E-17
5.327577E+03	1.090106E-16	1.002570E-17
5.337479E+03	1.084889E-16	9.964393E-18
5.347382E+03	1.079067E-16	9.897717E-18
5.357284E+03	1.072641E-16	9.825693E-18
5.367187E+03	1.065637E-16	9.748590E-18
5.377089E+03	1.058055E-16	9.666421E-18
5.386992E+03	1.049951E-16	9.579722E-18
5.396895E+03	1.041364E-16	9.488871E-18
5.406797E+03	1.032390E-16	9.394747E-18
5.416700E+03	1.023042E-16	9.297501E-18
5.426602E+03	1.013291E-16	9.196858E-18
5.436505E+03	1.003130E-16	9.092787E-18
5.446407E+03	9.925961E-17	8.985627E-18
5.456310E+03	9.817851E-17	8.876255E-18
5.466212E+03	9.707472E-17	8.765134E-18
5.476115E+03	9.595913E-17	8.653250E-18
5.486018E+03	9.483755E-17	8.541129E-18
5.495920E+03	9.371849E-17	8.429537E-18
5.505823E+03	9.261004E-17	8.319195E-18
5.515725E+03	9.151983E-17	8.210785E-18
5.525628E+03	9.045316E-17	8.104773E-18
5.535530E+03	8.941667E-17	8.001742E-18
5.545433E+03	8.841636E-17	7.902218E-18
5.555335E+03	8.745676E-17	7.806590E-18
5.565238E+03	8.654180E-17	7.715194E-18
5.575141E+03	8.567653E-17	7.628463E-18
5.585043E+03	8.486281E-17	7.546544E-18
5.594946E+03	8.410360E-17	7.469681E-18
5.604848E+03	8.340043E-17	7.397992E-18
5.614751E+03	8.275517E-17	7.331621E-18
5.624653E+03	8.216828E-17	7.270591E-18
5.634556E+03	8.163978E-17	7.214882E-18
5.644459E+03	8.117011E-17	7.164513E-18
5.654361E+03	8.075928E-17	7.119467E-18
5.664264E+03	8.040532E-17	7.079548E-18
5.674166E+03	8.010767E-17	7.044690E-18
5.684069E+03	7.986469E-17	7.014729E-18
5.693971E+03	7.967453E-17	6.989487E-18
5.703874E+03	7.953694E-17	6.968923E-18
5.713776E+03	7.944819E-17	6.952695E-18
5.723679E+03	7.940789E-17	6.940753E-18
5.733582E+03	7.941308E-17	6.932823E-18
5.743484E+03	7.946255E-17	6.928786E-18
5.753387E+03	7.955427E-17	6.928451E-18
5.763289E+03	7.968628E-17	6.931636E-18
5.773192E+03	7.985758E-17	6.938241E-18
5.783094E+03	8.006552E-17	6.948026E-18
5.792997E+03	8.030933E-17	6.960911E-18
5.802899E+03	8.058747E-17	6.976754E-18
5.812802E+03	8.089758E-17	6.995343E-18
5.822705E+03	8.124013E-17	7.016707E-18
5.832607E+03	8.161214E-17	7.040581E-18
5.842510E+03	8.201427E-17	7.067014E-18
5.852412E+03	8.244461E-17	7.095836E-18
5.862315E+03	8.290225E-17	7.126959E-18
5.872217E+03	8.338727E-17	7.160385E-18
5.882120E+03	8.389705E-17	7.195881E-18
5.892022E+03	8.443181E-17	7.233462E-18
5.901925E+03	8.499187E-17	7.273148E-18
5.911828E+03	8.557473E-17	7.314722E-18
5.921730E+03	8.618076E-17	7.358210E-18
5.931633E+03	8.680947E-17	7.403566E-18
5.941535E+03	8.745936E-17	7.450657E-18
5.951438E+03	8.812993E-17	7.499436E-18
5.961340E+03	8.882066E-17	7.549858E-18
5.971243E+03	8.953000E-17	7.601786E-18
5.981146E+03	9.025740E-17	7.655172E-18
5.991048E+03	9.100328E-17	7.710049E-18
6.000951E+03	9.176378E-17	7.766088E-18
6.010853E+03	9.254026E-17	7.823403E-18
6.020756E+03	9.332853E-17	7.881640E-18
6.030658E+03	9.412969E-17	7.940891E-18
6.040561E+03	9.493916E-17	8.000768E-18
6.050463E+03	9.575651E-17	8.061239E-18
6.060366E+03	9.657770E-17	8.121965E-18
6.070269E+03	9.740180E-17	8.182870E-18
6.080171E+03	9.822415E-17	8.243566E-18
6.090074E+03	9.904078E-17	8.303725E-18
6.099976E+03	9.984989E-17	8.363200E-18
6.109879E+03	1.006457E-16	8.421519E-18
6.119781E+03	1.014260E-16	8.478496E-18
6.129684E+03	1.021872E-16	8.533838E-18
6.139586E+03	1.029272E-16	8.587390E-18
6.149489E+03	1.036468E-16	8.639224E-18
6.159392E+03	1.043497E-16	8.689655E-18
6.169294E+03	1.050370E-16	8.738781E-18
6.179197E+03	1.057111E-16	8.786807E-18
6.189099E+03	1.063741E-16	8.833922E-18
6.199002E+03	1.070310E-16	8.880534E-18
6.208904E+03	1.076809E-16	8.926575E-18
6.218807E+03	1.083256E-16	8.972190E-18
6.228709E+03	1.089681E-16	9.017631E-18
6.238612E+03	1.096099E-16	9.063021E-18
6.248515E+03	1.102509E-16	9.108350E-18
6.258417E+03	1.108907E-16	9.153592E-18
6.268320E+03	1.115321E-16	9.198957E-18
6.278222E+03	1.121728E-16	9.244274E-18
6.288125E+03	1.128137E-16	9.289610E-18
6.298027E+03	1.134541E-16	9.334900E-18
6.307930E+03	1.140929E-16	9.380062E-18
6.317833E+03	1.147294E-16	9.425027E-18
6.327735E+03	1.153622E-16	9.469688E-18
6.337638E+03	1.159902E-16	9.513945E-18
6.347540E+03	1.166105E-16	9.557576E-18
6.357443E+03	1.172233E-16	9.600584E-18
6.367345E+03	1.178275E-16	9.642878E-18
6.377248E+03	1.184232E-16	9.684470E-18
6.387150E+03	1.190109E-16	9.725409E-18
6.397053E+03	1.195877E-16	9.765447E-18
6.406956E+03	1.201557E-16	9.804763E-18
6.416858E+03	1.207138E-16	9.843257E-18
6.426761E+03	1.212626E-16	9.880997E-18
6.436663E+03	1.217996E-16	9.917756E-18
6.446566E+03	1.223270E-16	9.953737E-18
6.456468E+03	1.228425E-16	9.988741E-18
6.466371E+03	1.233470E-16	1.002284E-17
6.476273E+03	1.238379E-16	1.005582E-17
6.486176E+03	1.243165E-16	1.008781E-17
6.496079E+03	1.247843E-16	1.011890E-17
6.505981E+03	1.252367E-16	1.014875E-17
6.515884E+03	1.256755E-16	1.017748E-17
6.525786E+03	1.261022E-16	1.020523E-17
6.535689E+03	1.265125E-16	1.023164E-17
6.545591E+03	1.269103E-16	1.025704E-17
6.555494E+03	1.272912E-16	1.028107E-17
6.565396E+03	1.276592E-16	1.030405E-17
6.575299E+03	1.280101E-16	1.032565E-17
6.585202E+03	1.283456E-16	1.034601E-17
6.595104E+03	1.286659E-16	1.036514E-17
6.605007E+03	1.289686E-16	1.038285E-17
6.614909E+03	1.292556E-16	1.039930E-17
6.624812E+03	1.295249E-16	1.041433E-17
6.634714E+03	1.297763E-16	1.042791E-17
6.644617E+03	1.300118E-16	1.044023E-17
6.654520E+03	1.302292E-16	1.045110E-17
6.664422E+03	1.304261E-16	1.046033E-17
6.674325E+03	1.306070E-16	1.046828E-17
6.684227E+03	1.307672E-16	1.047459E-17
6.694130E+03	1.309092E-16	1.047945E-17
6.704032E+03	1.310326E-16	1.048284E-17
6.713935E+03	1.311352E-16	1.048458E-17
6.723837E+03	1.312171E-16	1.048468E-17
6.733740E+03	1.312781E-16	1.048314E-17
6.743643E+03	1.313207E-16	1.048015E-17
6.753545E+03	1.313426E-16	1.047553E-17
6.763448E+03	1.313415E-16	1.046911E-17
6.773350E+03	1.313197E-16	1.046107E-17
6.783253E+03	1.312775E-16	1.045143E-17
6.793155E+03	1.312151E-16	1.044023E-17
6.803058E+03	1.311300E-16	1.042726E-17
6.812960E+03	1.310225E-16	1.041255E-17
6.822863E+03	1.308955E-16	1.039634E-17
6.832766E+03	1.307466E-16	1.037843E-17
6.842668E+03	1.305762E-16	1.035887E-17
6.852571E+03	1.303847E-16	1.033769E-17
6.862473E+03	1.301724E-16	1.031492E-17
6.872376E+03	1.299397E-16	1.029060E-17
6.882278E+03	1.296872E-16	1.026477E-17
6.892181E+03	1.294130E-16	1.023729E-17
6.902083E+03	1.291175E-16	1.020819E-17
6.911986E+03	1.288039E-16	1.017775E-17
6.921889E+03	1.284729E-16	1.014600E-17
6.931791E+03	1.281202E-16	1.011262E-17
6.941694E+03	1.277515E-16	1.007806E-17
6.951596E+03	1.273653E-16	1.004221E-17
6.961499E+03	1.269624E-16	1.000514E-17
6.971401E+03	1.265412E-16	9.966712E-18
6.981304E+03	1.261052E-16	9.927219E-18
6.991207E+03	1.256555E-16	9.886749E-18
7.001109E+03	1.251931E-16	9.845384E-18
7.011012E+03	1.247168E-16	9.803029E-18
7.020914E+03	1.242276E-16	9.759774E-18
7.030817E+03	1.237294E-16	9.715920E-18
7.040719E+03	1.232210E-16	9.671381E-18
7.050622E+03	1.227010E-16	9.626054E-18
7.060524E+03	1.221759E-16	9.580450E-18
7.070427E+03	1.216447E-16	9.534481E-18
7.080330E+03	1.211088E-16	9.488273E-18
7.090232E+03	1.205672E-16	9.441747E-18
7.100135E+03	1.200238E-16	9.395213E-18
7.110037E+03	1.194802E-16	9.348794E-18
7.119940E+03	1.189353E-16	9.302411E-18
7.129842E+03	1.183910E-16	9.256207E-18
7.139745E+03	1.178509E-16	9.210471E-18
7.149647E+03	1.173142E-16	9.165143E-18
7.159550E+03	1.167822E-16	9.120330E-18
7.169453E+03	1.162565E-16	9.076145E-18
7.179355E+03	1.157383E-16	9.032696E-18
7.189258E+03	1.152264E-16	8.989886E-18
7.199160E+03	1.147270E-16	8.948199E-18
7.209063E+03	1.142385E-16	8.907513E-18
7.218965E+03	1.137571E-16	8.867531E-18
7.228868E+03	1.132907E-16	8.828877E-18
7.238770E+03	1.128330E-16	8.791052E-18
7.248673E+03	1.123891E-16	8.754469E-18
7.258576E+03	1.119571E-16	8.718967E-18
7.268478E+03	1.115372E-16	8.684568E-18
7.278381E+03	1.111270E-16	8.651091E-18
7.288283E+03	1.107265E-16	8.618531E-18
7.298186E+03	1.103352E-16	8.586864E-18
7.308088E+03	1.099528E-16	8.556053E-18
7.317991E+03	1.095738E-16	8.525679E-18
7.327894E+03	1.091996E-16	8.495853E-18
7.337796E+03	1.088243E-16	8.466120E-18
7.347699E+03	1.084442E-16	8.436188E-18
7.357601E+03	1.080551E-16	8.405741E-18
7.367504E+03	1.076574E-16	8.374809E-18
7.377406E+03	1.072487E-16	8.343213E-18
7.387309E+03	1.068313E-16	8.311116E-18
7.397211E+03	1.064068E-16	8.278657E-18
7.407114E+03	1.059697E-16	8.245404E-18
7.417017E+03	1.055191E-16	8.211277E-18
7.426919E+03	1.050564E-16	8.176379E-18
7.436822E+03	1.045738E-16	8.140098E-18
7.446724E+03	1.040762E-16	8.102809E-18
7.456627E+03	1.035683E-16	8.064868E-18
7.466529E+03	1.030550E-16	8.026653E-18
7.476432E+03	1.025411E-16	7.988530E-18
7.486334E+03	1.020311E-16	7.950840E-18
7.496237E+03	1.015313E-16	7.914077E-18
7.506140E+03	1.010430E-16	7.878335E-18
7.516042E+03	1.005717E-16	7.844032E-18
7.525945E+03	1.001177E-16	7.811191E-18
7.535847E+03	9.968537E-17	7.780157E-18
7.545750E+03	9.927660E-17	7.751064E-18
7.555652E+03	9.889039E-17	7.723835E-18
7.565555E+03	9.853008E-17	7.698727E-18
7.575457E+03	9.819636E-17	7.675794E-18
7.585360E+03	9.788736E-17	7.654887E-18
7.595263E+03	9.760554E-17	7.636197E-18
7.605165E+03	9.734860E-17	7.619542E-18
7.615068E+03	9.712092E-17	7.605265E-18
7.624970E+03	9.691752E-17	7.592975E-18
7.634873E+03	9.674019E-17	7.582812E-18
7.644775E+03	9.658602E-17	7.574548E-18
7.654678E+03	9.645660E-17	7.568305E-18
7.664581E+03	9.635117E-17	7.564026E-18
7.674483E+03	9.626887E-17	7.561644E-18
7.684386E+03	9.620651E-17	7.560905E-18
