#wls	flux	fluxerr
1.584409E+03	1.382749E-16	3.813657E-17
1.624020E+03	1.435525E-16	3.959165E-17
1.663630E+03	1.482782E-16	4.089445E-17
1.703240E+03	1.523764E-16	4.202413E-17
1.742850E+03	1.557094E-16	4.294269E-17
1.782461E+03	1.581752E-16	4.362198E-17
1.822071E+03	1.595466E-16	4.399944E-17
1.861681E+03	1.596542E-16	4.402828E-17
1.901291E+03	1.583034E-16	4.365489E-17
1.940902E+03	1.553274E-16	4.283331E-17
1.980512E+03	1.507531E-16	4.157098E-17
2.020122E+03	1.448428E-16	3.994024E-17
2.059732E+03	1.382510E-16	3.812160E-17
2.099342E+03	1.319810E-16	3.639173E-17
2.138953E+03	1.270342E-16	3.502674E-17
2.178563E+03	1.238995E-16	3.416142E-17
2.218173E+03	1.222954E-16	3.371810E-17
2.257783E+03	1.214052E-16	3.347158E-17
2.297394E+03	1.203503E-16	3.317959E-17
2.337004E+03	1.185413E-16	3.267969E-17
2.376614E+03	1.156838E-16	3.189071E-17
2.416224E+03	1.117408E-16	3.080251E-17
2.455835E+03	1.068069E-16	2.944121E-17
2.495445E+03	1.010661E-16	2.785755E-17
2.535055E+03	9.471483E-17	2.610570E-17
2.574665E+03	8.795720E-17	2.424197E-17
2.614276E+03	8.097168E-17	2.231556E-17
2.653886E+03	7.391911E-17	2.037082E-17
2.693496E+03	6.693988E-17	1.844645E-17
2.733106E+03	6.014727E-17	1.657368E-17
2.772716E+03	5.363654E-17	1.477875E-17
2.812327E+03	4.748294E-17	1.308240E-17
2.851937E+03	4.174619E-17	1.150107E-17
2.891547E+03	3.647055E-17	1.004695E-17
2.931157E+03	3.168298E-17	8.727443E-18
2.970768E+03	2.739457E-17	7.545590E-18
2.980670E+03	2.640014E-17	7.271546E-18
2.990573E+03	2.543590E-17	7.005827E-18
3.000475E+03	2.450257E-17	6.748626E-18
3.010378E+03	2.359851E-17	6.499498E-18
3.020280E+03	2.272428E-17	6.258594E-18
3.030183E+03	2.187929E-17	6.025752E-18
3.040086E+03	2.106363E-17	5.800994E-18
3.049988E+03	2.027658E-17	5.584125E-18
3.059891E+03	1.951945E-17	5.375503E-18
3.069793E+03	1.879031E-17	5.174595E-18
3.079696E+03	1.808888E-17	4.981325E-18
3.089598E+03	1.741413E-17	4.795411E-18
3.099501E+03	1.676477E-17	4.616494E-18
3.109403E+03	1.614058E-17	4.444517E-18
3.119306E+03	1.554037E-17	4.279148E-18
3.129209E+03	1.496363E-17	4.120248E-18
3.139111E+03	1.440954E-17	3.967590E-18
3.149014E+03	1.387734E-17	3.820966E-18
3.158916E+03	1.336657E-17	3.680246E-18
3.168819E+03	1.287647E-17	3.545224E-18
3.178721E+03	1.240613E-17	3.415650E-18
3.188624E+03	1.195534E-17	3.291461E-18
3.198526E+03	1.152321E-17	3.172415E-18
3.208429E+03	1.110930E-17	3.058389E-18
3.218332E+03	1.071298E-17	2.949212E-18
3.228234E+03	1.033347E-17	2.844665E-18
3.238137E+03	9.970511E-18	2.744680E-18
3.248039E+03	9.623205E-18	2.649009E-18
3.257942E+03	9.291299E-18	2.557580E-18
3.267844E+03	8.974224E-18	2.470237E-18
3.277747E+03	8.671168E-18	2.386757E-18
3.287650E+03	8.381879E-18	2.307070E-18
3.297552E+03	8.105833E-18	2.231032E-18
3.307455E+03	7.842410E-18	2.158471E-18
3.317357E+03	7.591133E-18	2.089257E-18
3.327260E+03	7.351536E-18	2.023260E-18
3.337162E+03	7.123167E-18	1.960356E-18
3.347065E+03	6.905587E-18	1.900424E-18
3.356967E+03	6.698368E-18	1.843347E-18
3.366870E+03	6.501015E-18	1.788987E-18
3.376773E+03	6.313055E-18	1.737214E-18
3.386675E+03	6.134278E-18	1.687971E-18
3.396578E+03	5.964085E-18	1.641092E-18
3.406480E+03	5.802214E-18	1.596505E-18
3.416383E+03	5.648264E-18	1.554099E-18
3.426285E+03	5.501921E-18	1.513789E-18
3.436188E+03	5.362757E-18	1.475456E-18
3.446090E+03	5.230436E-18	1.439007E-18
3.455993E+03	5.104697E-18	1.404371E-18
3.465896E+03	4.985176E-18	1.371447E-18
3.475798E+03	4.871641E-18	1.340172E-18
3.485701E+03	4.763663E-18	1.310427E-18
3.495603E+03	4.661048E-18	1.282159E-18
3.505506E+03	4.563461E-18	1.255275E-18
3.515408E+03	4.470642E-18	1.229704E-18
3.525311E+03	4.382345E-18	1.205378E-18
3.535213E+03	4.298255E-18	1.182210E-18
3.545116E+03	4.218250E-18	1.160167E-18
3.555019E+03	4.142084E-18	1.139181E-18
3.564921E+03	4.069533E-18	1.119190E-18
3.574824E+03	4.000499E-18	1.100167E-18
3.584726E+03	3.934737E-18	1.082045E-18
3.594629E+03	3.872094E-18	1.064782E-18
3.604531E+03	3.812423E-18	1.048337E-18
3.614434E+03	3.755581E-18	1.032670E-18
3.624337E+03	3.701438E-18	1.017747E-18
3.634239E+03	3.649867E-18	1.003531E-18
3.644142E+03	3.600779E-18	9.899985E-19
3.654044E+03	3.554086E-18	9.771253E-19
3.663947E+03	3.509673E-18	9.648797E-19
3.673849E+03	3.467552E-18	9.532644E-19
3.683752E+03	3.427576E-18	9.422397E-19
3.693654E+03	3.389728E-18	9.318001E-19
3.703557E+03	3.353926E-18	9.219237E-19
3.713460E+03	3.320121E-18	9.125964E-19
3.723362E+03	3.288317E-18	9.038196E-19
3.733265E+03	3.258381E-18	8.955567E-19
3.743167E+03	3.230319E-18	8.878089E-19
3.753070E+03	3.204104E-18	8.805694E-19
3.762972E+03	3.179638E-18	8.738104E-19
3.772875E+03	3.156920E-18	8.675322E-19
3.782777E+03	3.135928E-18	8.617285E-19
3.792680E+03	3.116587E-18	8.563785E-19
3.802583E+03	3.098849E-18	8.514694E-19
3.812485E+03	3.082742E-18	8.470084E-19
3.822388E+03	3.068170E-18	8.429690E-19
3.832290E+03	3.055134E-18	8.393516E-19
3.842193E+03	3.043588E-18	8.361438E-19
3.852095E+03	3.033512E-18	8.333397E-19
3.861998E+03	3.024885E-18	8.309336E-19
3.871900E+03	3.017640E-18	8.289070E-19
3.881803E+03	3.011758E-18	8.272544E-19
3.891706E+03	3.007244E-18	8.259775E-19
3.901608E+03	3.004056E-18	8.250649E-19
3.911511E+03	3.002154E-18	8.245050E-19
3.921413E+03	3.001523E-18	8.242937E-19
3.931316E+03	3.002122E-18	8.244201E-19
3.941218E+03	3.003938E-18	8.248803E-19
3.951121E+03	3.006956E-18	8.256703E-19
3.961024E+03	3.011163E-18	8.267861E-19
3.970926E+03	3.016501E-18	8.282121E-19
3.980829E+03	3.022956E-18	8.299445E-19
3.990731E+03	3.030520E-18	8.319805E-19
4.000634E+03	3.039181E-18	8.343173E-19
4.010536E+03	3.048908E-18	8.369460E-19
4.020439E+03	3.059666E-18	8.398573E-19
4.030341E+03	3.071449E-18	8.430493E-19
4.040244E+03	3.084227E-18	8.465136E-19
4.050147E+03	3.097991E-18	8.502478E-19
4.060049E+03	3.112713E-18	8.542442E-19
4.069952E+03	3.128388E-18	8.585012E-19
4.079854E+03	3.144985E-18	8.630107E-19
4.089757E+03	3.162478E-18	8.677649E-19
4.099659E+03	3.180862E-18	8.727627E-19
4.109562E+03	3.200110E-18	8.779968E-19
4.119464E+03	3.220220E-18	8.834662E-19
4.129367E+03	3.241138E-18	8.891566E-19
4.139270E+03	3.262865E-18	8.950677E-19
4.149172E+03	3.285347E-18	9.011848E-19
4.159075E+03	3.308609E-18	9.075148E-19
4.168977E+03	3.332599E-18	9.140432E-19
4.178880E+03	3.357317E-18	9.207704E-19
4.188782E+03	3.382684E-18	9.276741E-19
4.198685E+03	3.408726E-18	9.347618E-19
4.208587E+03	3.435363E-18	9.420114E-19
4.218490E+03	3.462621E-18	9.494299E-19
4.228393E+03	3.490420E-18	9.569954E-19
4.238295E+03	3.518704E-18	9.646925E-19
4.248198E+03	3.547499E-18	9.725282E-19
4.258100E+03	3.576692E-18	9.804718E-19
4.268003E+03	3.606310E-18	9.885303E-19
4.277905E+03	3.636237E-18	9.966721E-19
4.287808E+03	3.666500E-18	1.004904E-18
4.297711E+03	3.697035E-18	1.013210E-18
4.307613E+03	3.727783E-18	1.021572E-18
4.317516E+03	3.758738E-18	1.029989E-18
4.327418E+03	3.789866E-18	1.038452E-18
4.337321E+03	3.821193E-18	1.046968E-18
4.347223E+03	3.852657E-18	1.055520E-18
4.357126E+03	3.884316E-18	1.064124E-18
4.367028E+03	3.916170E-18	1.072779E-18
4.376931E+03	3.948221E-18	1.081486E-18
4.386834E+03	3.980467E-18	1.090246E-18
4.396736E+03	4.012947E-18	1.099067E-18
4.406639E+03	4.045630E-18	1.107942E-18
4.416541E+03	4.078555E-18	1.116882E-18
4.426444E+03	4.111730E-18	1.125888E-18
4.436346E+03	4.145159E-18	1.134962E-18
4.446249E+03	4.178820E-18	1.144098E-18
4.456151E+03	4.212719E-18	1.153297E-18
4.466054E+03	4.246832E-18	1.162552E-18
4.475957E+03	4.281206E-18	1.171877E-18
4.485859E+03	4.315779E-18	1.181255E-18
4.495762E+03	4.350565E-18	1.190688E-18
4.505664E+03	4.385575E-18	1.200181E-18
4.515567E+03	4.420749E-18	1.209717E-18
4.525469E+03	4.456140E-18	1.219309E-18
4.535372E+03	4.491688E-18	1.228943E-18
4.545274E+03	4.527408E-18	1.238621E-18
4.555177E+03	4.563243E-18	1.248329E-18
4.565080E+03	4.599248E-18	1.258081E-18
4.574982E+03	4.635405E-18	1.267872E-18
4.584885E+03	4.671655E-18	1.277686E-18
4.594787E+03	4.708023E-18	1.287530E-18
4.604690E+03	4.744531E-18	1.297411E-18
4.614592E+03	4.781168E-18	1.307324E-18
4.624495E+03	4.817875E-18	1.317253E-18
4.634398E+03	4.854769E-18	1.327232E-18
4.644300E+03	4.891884E-18	1.337268E-18
4.654203E+03	4.929170E-18	1.347349E-18
4.664105E+03	4.966666E-18	1.357484E-18
4.674008E+03	5.004411E-18	1.367685E-18
4.683910E+03	5.042313E-18	1.377926E-18
4.693813E+03	5.080415E-18	1.388219E-18
4.703715E+03	5.118671E-18	1.398551E-18
4.713618E+03	5.157124E-18	1.408935E-18
4.723521E+03	5.195776E-18	1.419370E-18
4.733423E+03	5.234582E-18	1.429844E-18
4.743326E+03	5.273590E-18	1.440371E-18
4.753228E+03	5.312756E-18	1.450938E-18
4.763131E+03	5.352132E-18	1.461560E-18
4.773033E+03	5.391673E-18	1.472223E-18
4.782936E+03	5.431382E-18	1.482929E-18
4.792838E+03	5.471264E-18	1.493680E-18
4.802741E+03	5.511376E-18	1.504490E-18
4.812644E+03	5.551670E-18	1.515347E-18
4.822546E+03	5.592154E-18	1.526253E-18
4.832449E+03	5.632776E-18	1.537193E-18
4.842351E+03	5.673647E-18	1.548198E-18
4.852254E+03	5.714721E-18	1.559255E-18
4.862156E+03	5.756000E-18	1.570364E-18
4.872059E+03	5.797432E-18	1.581512E-18
4.881961E+03	5.839074E-18	1.592714E-18
4.891864E+03	5.880873E-18	1.603956E-18
4.901767E+03	5.922828E-18	1.615236E-18
4.911669E+03	5.964995E-18	1.626570E-18
4.921572E+03	6.007317E-18	1.637944E-18
4.931474E+03	6.049791E-18	1.649355E-18
4.941377E+03	6.092358E-18	1.660788E-18
4.951279E+03	6.135066E-18	1.672256E-18
4.961182E+03	6.177914E-18	1.683758E-18
4.971085E+03	6.220834E-18	1.695276E-18
4.980987E+03	6.263820E-18	1.706808E-18
4.990890E+03	6.306860E-18	1.718351E-18
5.000792E+03	6.349886E-18	1.729886E-18
5.010695E+03	6.392945E-18	1.741427E-18
5.020597E+03	6.436024E-18	1.752969E-18
5.030500E+03	6.478990E-18	1.764476E-18
5.040402E+03	6.521885E-18	1.775960E-18
5.050305E+03	6.564697E-18	1.787417E-18
5.060208E+03	6.607343E-18	1.798825E-18
5.070110E+03	6.649806E-18	1.810178E-18
5.080013E+03	6.692064E-18	1.821473E-18
5.089915E+03	6.734098E-18	1.832702E-18
5.099818E+03	6.775817E-18	1.843841E-18
5.109720E+03	6.817265E-18	1.854902E-18
5.119623E+03	6.858280E-18	1.865841E-18
5.129525E+03	6.898902E-18	1.876669E-18
5.139428E+03	6.939028E-18	1.887358E-18
5.149331E+03	6.978626E-18	1.897899E-18
5.159233E+03	7.017659E-18	1.908282E-18
5.169136E+03	7.056088E-18	1.918497E-18
5.179038E+03	7.093732E-18	1.928494E-18
5.188941E+03	7.130686E-18	1.938299E-18
5.198843E+03	7.166835E-18	1.947881E-18
5.208746E+03	7.202129E-18	1.957227E-18
5.218648E+03	7.236450E-18	1.966304E-18
5.228551E+03	7.269744E-18	1.975098E-18
5.238454E+03	7.301960E-18	1.983596E-18
5.248356E+03	7.333045E-18	1.991782E-18
5.258259E+03	7.362951E-18	1.999643E-18
5.268161E+03	7.391552E-18	2.007147E-18
5.278064E+03	7.418945E-18	2.014318E-18
5.287966E+03	7.444939E-18	2.021106E-18
5.297869E+03	7.469486E-18	2.027498E-18
5.307772E+03	7.492695E-18	2.033522E-18
5.317674E+03	7.514379E-18	2.039130E-18
5.327577E+03	7.534652E-18	2.044351E-18
5.337479E+03	7.553412E-18	2.049158E-18
5.347382E+03	7.570708E-18	2.053564E-18
5.357284E+03	7.586443E-18	2.057544E-18
5.367187E+03	7.600752E-18	2.061134E-18
5.377089E+03	7.613549E-18	2.064311E-18
5.386992E+03	7.624903E-18	2.067094E-18
5.396895E+03	7.634659E-18	2.069441E-18
5.406797E+03	7.642899E-18	2.071374E-18
5.416700E+03	7.649550E-18	2.072874E-18
5.426602E+03	7.654548E-18	2.073923E-18
5.436505E+03	7.657987E-18	2.074548E-18
5.446407E+03	7.659733E-18	2.074712E-18
5.456310E+03	7.659731E-18	2.074400E-18
5.466212E+03	7.658009E-18	2.073621E-18
5.476115E+03	7.654442E-18	2.072340E-18
5.486018E+03	7.649144E-18	2.070588E-18
5.495920E+03	7.641916E-18	2.068313E-18
5.505823E+03	7.632955E-18	2.065567E-18
5.515725E+03	7.622225E-18	2.062341E-18
5.525628E+03	7.609691E-18	2.058626E-18
5.535530E+03	7.595400E-18	2.054435E-18
5.545433E+03	7.579397E-18	2.049779E-18
5.555335E+03	7.561654E-18	2.044653E-18
5.565238E+03	7.542373E-18	2.039110E-18
5.575141E+03	7.521451E-18	2.033123E-18
5.585043E+03	7.499089E-18	2.026747E-18
5.594946E+03	7.475186E-18	2.019954E-18
5.604848E+03	7.449946E-18	2.012800E-18
5.614751E+03	7.423420E-18	2.005298E-18
5.624653E+03	7.395580E-18	1.997442E-18
5.634556E+03	7.366555E-18	1.989267E-18
5.644459E+03	7.336396E-18	1.980785E-18
5.654361E+03	7.305234E-18	1.972034E-18
5.664264E+03	7.273118E-18	1.963025E-18
5.674166E+03	7.240025E-18	1.953754E-18
5.684069E+03	7.206160E-18	1.944276E-18
5.693971E+03	7.171577E-18	1.934605E-18
5.703874E+03	7.136256E-18	1.924736E-18
5.713776E+03	7.100325E-18	1.914704E-18
5.723679E+03	7.063919E-18	1.904546E-18
5.733582E+03	7.027093E-18	1.894275E-18
5.743484E+03	6.989831E-18	1.883888E-18
5.753387E+03	6.952265E-18	1.873421E-18
5.763289E+03	6.914533E-18	1.862911E-18
5.773192E+03	6.876691E-18	1.852373E-18
5.783094E+03	6.838730E-18	1.841805E-18
5.792997E+03	6.800782E-18	1.831241E-18
5.802899E+03	6.762911E-18	1.820700E-18
5.812802E+03	6.725252E-18	1.810218E-18
5.822705E+03	6.687865E-18	1.799812E-18
5.832607E+03	6.650739E-18	1.789476E-18
5.842510E+03	6.614007E-18	1.779249E-18
5.852412E+03	6.577653E-18	1.769125E-18
5.862315E+03	6.541957E-18	1.759180E-18
5.872217E+03	6.506752E-18	1.749369E-18
5.882120E+03	6.472167E-18	1.739726E-18
5.892022E+03	6.438326E-18	1.730284E-18
5.901925E+03	6.405207E-18	1.721038E-18
5.911828E+03	6.372855E-18	1.712000E-18
5.921730E+03	6.341389E-18	1.703201E-18
5.931633E+03	6.310778E-18	1.694633E-18
5.941535E+03	6.281133E-18	1.686326E-18
5.951438E+03	6.252347E-18	1.678251E-18
5.961340E+03	6.224598E-18	1.670455E-18
5.971243E+03	6.197773E-18	1.662908E-18
5.981146E+03	6.172045E-18	1.655656E-18
5.991048E+03	6.147224E-18	1.648649E-18
6.000951E+03	6.123478E-18	1.641930E-18
6.010853E+03	6.100756E-18	1.635487E-18
6.020756E+03	6.079075E-18	1.629324E-18
6.030658E+03	6.058308E-18	1.623406E-18
6.040561E+03	6.038615E-18	1.617776E-18
6.050463E+03	6.019786E-18	1.612378E-18
6.060366E+03	6.001979E-18	1.607253E-18
6.070269E+03	5.984981E-18	1.602345E-18
6.080171E+03	5.968796E-18	1.597656E-18
6.090074E+03	5.953355E-18	1.593165E-18
6.099976E+03	5.938653E-18	1.588871E-18
6.109879E+03	5.924469E-18	1.584716E-18
6.119781E+03	5.910794E-18	1.580697E-18
6.129684E+03	5.897545E-18	1.576792E-18
6.139586E+03	5.884713E-18	1.572997E-18
6.149489E+03	5.872278E-18	1.569309E-18
6.159392E+03	5.860379E-18	1.565763E-18
6.169294E+03	5.849222E-18	1.562415E-18
6.179197E+03	5.838868E-18	1.559280E-18
6.189099E+03	5.829455E-18	1.556396E-18
6.199002E+03	5.821119E-18	1.553799E-18
6.208904E+03	5.813926E-18	1.551506E-18
6.218807E+03	5.808016E-18	1.549555E-18
6.228709E+03	5.803457E-18	1.547962E-18
6.238612E+03	5.800316E-18	1.546746E-18
6.248515E+03	5.798746E-18	1.545948E-18
6.258417E+03	5.798740E-18	1.545564E-18
6.268320E+03	5.800453E-18	1.545637E-18
6.278222E+03	5.803805E-18	1.546144E-18
6.288125E+03	5.808874E-18	1.547106E-18
6.298027E+03	5.815663E-18	1.548523E-18
6.307930E+03	5.824254E-18	1.550417E-18
6.317833E+03	5.834570E-18	1.552766E-18
6.327735E+03	5.846612E-18	1.555572E-18
6.337638E+03	5.860302E-18	1.558812E-18
6.347540E+03	5.875472E-18	1.562442E-18
6.357443E+03	5.892034E-18	1.566438E-18
6.367345E+03	5.909986E-18	1.570799E-18
6.377248E+03	5.929328E-18	1.575525E-18
6.387150E+03	5.950054E-18	1.580614E-18
6.397053E+03	5.972256E-18	1.586090E-18
6.406956E+03	5.996022E-18	1.591976E-18
6.416858E+03	6.021359E-18	1.598273E-18
6.426761E+03	6.048180E-18	1.604958E-18
6.436663E+03	6.076674E-18	1.612082E-18
6.446566E+03	6.106852E-18	1.619646E-18
6.456468E+03	6.138629E-18	1.627627E-18
6.466371E+03	6.172109E-18	1.636053E-18
6.476273E+03	6.207304E-18	1.644926E-18
6.486176E+03	6.244131E-18	1.654224E-18
6.496079E+03	6.282599E-18	1.663950E-18
6.505981E+03	6.322922E-18	1.674159E-18
6.515884E+03	6.364813E-18	1.684774E-18
6.525786E+03	6.408487E-18	1.695853E-18
6.535689E+03	6.453962E-18	1.707400E-18
6.545591E+03	6.501045E-18	1.719362E-18
6.555494E+03	6.549962E-18	1.731800E-18
6.565396E+03	6.600514E-18	1.744661E-18
6.575299E+03	6.652935E-18	1.758006E-18
6.585202E+03	6.707022E-18	1.771780E-18
6.595104E+03	6.762904E-18	1.786018E-18
6.605007E+03	6.820599E-18	1.800724E-18
6.614909E+03	6.880010E-18	1.815871E-18
6.624812E+03	6.941152E-18	1.831463E-18
6.634714E+03	7.004162E-18	1.847536E-18
6.644617E+03	7.068940E-18	1.864063E-18
6.654520E+03	7.135503E-18	1.881047E-18
6.664422E+03	7.203871E-18	1.898495E-18
6.674325E+03	7.274060E-18	1.916409E-18
6.684227E+03	7.346091E-18	1.934794E-18
6.694130E+03	7.419986E-18	1.953656E-18
6.704032E+03	7.495630E-18	1.972964E-18
6.713935E+03	7.573175E-18	1.992757E-18
6.723837E+03	7.652641E-18	2.013040E-18
6.733740E+03	7.733913E-18	2.033784E-18
6.743643E+03	7.817150E-18	2.055027E-18
6.753545E+03	7.902230E-18	2.076739E-18
6.763448E+03	7.989174E-18	2.098923E-18
6.773350E+03	8.077999E-18	2.121585E-18
6.783253E+03	8.168722E-18	2.144727E-18
6.793155E+03	8.261514E-18	2.168395E-18
6.803058E+03	8.356092E-18	2.192513E-18
6.812960E+03	8.452627E-18	2.217126E-18
6.822863E+03	8.551138E-18	2.242237E-18
6.832766E+03	8.651482E-18	2.267810E-18
6.842668E+03	8.753836E-18	2.293889E-18
6.852571E+03	8.858219E-18	2.320480E-18
6.862473E+03	8.964484E-18	2.347543E-18
6.872376E+03	9.072641E-18	2.375080E-18
6.882278E+03	9.182877E-18	2.403140E-18
6.892181E+03	9.295035E-18	2.431681E-18
6.902083E+03	9.409127E-18	2.460704E-18
6.911986E+03	9.525162E-18	2.490213E-18
6.921889E+03	9.643152E-18	2.520210E-18
6.931791E+03	9.762918E-18	2.550647E-18
6.941694E+03	9.884846E-18	2.581625E-18
6.951596E+03	1.000856E-17	2.613045E-18
6.961499E+03	1.013427E-17	2.644959E-18
6.971401E+03	1.026177E-17	2.677316E-18
6.981304E+03	1.039106E-17	2.710115E-18
6.991207E+03	1.052235E-17	2.743408E-18
7.001109E+03	1.065544E-17	2.777143E-18
7.011012E+03	1.079009E-17	2.811260E-18
7.020914E+03	1.092675E-17	2.845870E-18
7.030817E+03	1.106518E-17	2.880915E-18
7.040719E+03	1.120516E-17	2.916333E-18
7.050622E+03	1.134689E-17	2.952180E-18
7.060524E+03	1.149013E-17	2.988391E-18
7.070427E+03	1.163511E-17	3.025022E-18
7.080330E+03	1.178156E-17	3.062008E-18
7.090232E+03	1.192970E-17	3.099404E-18
7.100135E+03	1.207903E-17	3.137076E-18
7.110037E+03	1.222976E-17	3.175082E-18
7.119940E+03	1.238212E-17	3.213478E-18
7.129842E+03	1.253556E-17	3.252125E-18
7.139745E+03	1.269004E-17	3.291009E-18
7.149647E+03	1.284579E-17	3.330190E-18
7.159550E+03	1.300276E-17	3.369655E-18
7.169453E+03	1.316063E-17	3.409323E-18
7.179355E+03	1.331966E-17	3.449254E-18
7.189258E+03	1.347950E-17	3.489365E-18
7.199160E+03	1.364008E-17	3.529633E-18
7.209063E+03	1.380167E-17	3.570129E-18
7.218965E+03	1.396389E-17	3.610754E-18
7.228868E+03	1.412699E-17	3.651573E-18
7.238770E+03	1.429062E-17	3.692494E-18
7.248673E+03	1.445471E-17	3.733500E-18
7.258576E+03	1.461982E-17	3.774737E-18
7.268478E+03	1.478528E-17	3.816026E-18
7.278381E+03	1.495167E-17	3.857523E-18
7.288283E+03	1.511860E-17	3.899125E-18
7.298186E+03	1.528639E-17	3.940911E-18
7.308088E+03	1.545533E-17	3.982960E-18
7.317991E+03	1.562505E-17	4.025174E-18
7.327894E+03	1.579622E-17	4.067727E-18
7.337796E+03	1.596883E-17	4.110616E-18
7.347699E+03	1.614328E-17	4.153939E-18
7.357601E+03	1.631957E-17	4.197700E-18
7.367504E+03	1.649770E-17	4.241899E-18
7.377406E+03	1.667812E-17	4.286647E-18
7.387309E+03	1.686005E-17	4.331747E-18
7.397211E+03	1.704350E-17	4.377201E-18
7.407114E+03	1.722812E-17	4.422915E-18
7.417017E+03	1.741428E-17	4.468987E-18
7.426919E+03	1.760159E-17	4.515314E-18
7.436822E+03	1.778963E-17	4.561792E-18
7.446724E+03	1.797839E-17	4.608414E-18
7.456627E+03	1.816786E-17	4.655180E-18
7.466529E+03	1.835757E-17	4.701968E-18
7.476432E+03	1.854793E-17	4.748884E-18
7.486334E+03	1.873804E-17	4.795698E-18
7.496237E+03	1.892874E-17	4.842623E-18
7.506140E+03	1.911954E-17	4.889535E-18
7.516042E+03	1.931041E-17	4.936427E-18
7.525945E+03	1.950081E-17	4.983159E-18
7.535847E+03	1.969114E-17	5.029835E-18
7.545750E+03	1.988135E-17	5.076444E-18
7.555652E+03	2.007136E-17	5.122962E-18
7.565555E+03	2.026058E-17	5.169241E-18
7.575457E+03	2.044941E-17	5.215382E-18
7.585360E+03	2.063723E-17	5.261229E-18
7.595263E+03	2.082495E-17	5.307015E-18
7.605165E+03	2.101091E-17	5.352313E-18
7.615068E+03	2.119651E-17	5.397485E-18
7.624970E+03	2.138109E-17	5.442362E-18
7.634873E+03	2.156398E-17	5.486770E-18
7.644775E+03	2.174552E-17	5.530802E-18
7.654678E+03	2.192558E-17	5.574422E-18
7.664581E+03	2.210395E-17	5.617578E-18
7.674483E+03	2.228048E-17	5.660235E-18
7.684386E+03	2.245554E-17	5.702484E-18
