#wls	flux	fluxerr
1.584409E+03	7.575780E-17	3.526809E-17
1.624020E+03	7.894348E-17	3.674470E-17
1.663630E+03	8.192807E-17	3.812677E-17
1.703240E+03	8.467622E-17	3.939784E-17
1.742850E+03	8.712437E-17	4.052836E-17
1.782461E+03	8.919976E-17	4.148451E-17
1.822071E+03	9.078778E-17	4.221309E-17
1.861681E+03	9.177352E-17	4.266078E-17
1.901291E+03	9.202798E-17	4.276781E-17
1.940902E+03	9.144213E-17	4.248379E-17
1.980512E+03	8.996738E-17	4.178646E-17
2.020122E+03	8.772819E-17	4.073399E-17
2.059732E+03	8.508510E-17	3.949408E-17
2.099342E+03	8.262118E-17	3.833752E-17
2.138953E+03	8.097432E-17	3.756014E-17
2.178563E+03	8.050567E-17	3.732903E-17
2.218173E+03	8.110723E-17	3.759352E-17
2.257783E+03	8.230465E-17	3.813325E-17
2.297394E+03	8.351048E-17	3.867576E-17
2.337004E+03	8.428272E-17	3.901642E-17
2.376614E+03	8.436032E-17	3.903464E-17
2.416224E+03	8.364368E-17	3.868480E-17
2.455835E+03	8.215097E-17	3.797582E-17
2.495445E+03	7.994910E-17	3.693916E-17
2.535055E+03	7.712671E-17	3.561631E-17
2.574665E+03	7.379218E-17	3.405779E-17
2.614276E+03	7.003991E-17	3.230763E-17
2.653886E+03	6.596830E-17	3.041161E-17
2.693496E+03	6.166301E-17	2.840956E-17
2.733106E+03	5.721321E-17	2.634284E-17
2.772716E+03	5.269584E-17	2.424710E-17
2.812327E+03	4.818714E-17	2.215759E-17
2.851937E+03	4.375801E-17	2.010700E-17
2.891547E+03	3.947299E-17	1.812502E-17
2.931157E+03	3.538878E-17	1.623765E-17
2.970768E+03	3.155212E-17	1.446622E-17
2.980670E+03	3.063572E-17	1.404334E-17
2.990573E+03	2.973777E-17	1.362906E-17
3.000475E+03	2.885783E-17	1.322317E-17
3.010378E+03	2.799739E-17	1.282636E-17
3.020280E+03	2.715595E-17	1.243838E-17
3.030183E+03	2.633364E-17	1.205931E-17
3.040086E+03	2.553087E-17	1.168932E-17
3.049988E+03	2.474975E-17	1.132937E-17
3.059891E+03	2.399005E-17	1.097935E-17
3.069793E+03	2.325224E-17	1.063948E-17
3.079696E+03	2.253531E-17	1.030928E-17
3.089598E+03	2.183927E-17	9.988763E-18
3.099501E+03	2.116367E-17	9.677714E-18
3.109403E+03	2.050812E-17	9.375944E-18
3.119306E+03	1.987224E-17	9.083284E-18
3.129209E+03	1.925605E-17	8.799732E-18
3.139111E+03	1.865883E-17	8.524958E-18
3.149014E+03	1.808061E-17	8.258968E-18
3.158916E+03	1.752104E-17	8.001600E-18
3.168819E+03	1.697978E-17	7.752695E-18
3.178721E+03	1.645680E-17	7.512231E-18
3.188624E+03	1.595119E-17	7.279791E-18
3.198526E+03	1.546344E-17	7.055595E-18
3.208429E+03	1.499241E-17	6.839115E-18
3.218332E+03	1.453853E-17	6.630544E-18
3.228234E+03	1.410094E-17	6.429488E-18
3.238137E+03	1.367953E-17	6.235892E-18
3.248039E+03	1.327394E-17	6.049587E-18
3.257942E+03	1.288360E-17	5.870307E-18
3.267844E+03	1.250856E-17	5.698071E-18
3.277747E+03	1.214805E-17	5.532525E-18
3.287650E+03	1.180171E-17	5.373507E-18
3.297552E+03	1.146956E-17	5.221008E-18
3.307455E+03	1.115085E-17	5.074695E-18
3.317357E+03	1.084524E-17	4.934407E-18
3.327260E+03	1.055238E-17	4.799981E-18
3.337162E+03	1.027206E-17	4.671313E-18
3.347065E+03	1.000364E-17	4.548111E-18
3.356967E+03	9.746782E-18	4.430223E-18
3.366870E+03	9.501288E-18	4.317549E-18
3.376773E+03	9.266693E-18	4.209876E-18
3.386675E+03	9.042672E-18	4.107054E-18
3.396578E+03	8.828682E-18	4.008833E-18
3.406480E+03	8.624543E-18	3.915128E-18
3.416383E+03	8.429957E-18	3.825801E-18
3.426285E+03	8.244426E-18	3.740623E-18
3.436188E+03	8.067684E-18	3.659470E-18
3.446090E+03	7.899384E-18	3.582182E-18
3.455993E+03	7.739365E-18	3.508684E-18
3.465896E+03	7.587111E-18	3.438738E-18
3.475798E+03	7.442497E-18	3.372287E-18
3.485701E+03	7.305130E-18	3.309149E-18
3.495603E+03	7.174731E-18	3.249195E-18
3.505506E+03	7.051037E-18	3.192305E-18
3.515408E+03	6.933712E-18	3.138323E-18
3.525311E+03	6.822598E-18	3.087177E-18
3.535213E+03	6.717326E-18	3.038696E-18
3.545116E+03	6.617683E-18	2.992784E-18
3.555019E+03	6.523552E-18	2.949385E-18
3.564921E+03	6.434661E-18	2.908374E-18
3.574824E+03	6.350842E-18	2.869673E-18
3.584726E+03	6.271854E-18	2.833172E-18
3.594629E+03	6.197481E-18	2.798772E-18
3.604531E+03	6.127577E-18	2.766404E-18
3.614434E+03	6.061874E-18	2.735947E-18
3.624337E+03	6.000312E-18	2.707372E-18
3.634239E+03	5.942645E-18	2.680566E-18
3.644142E+03	5.888759E-18	2.655477E-18
3.654044E+03	5.838595E-18	2.632076E-18
3.663947E+03	5.791936E-18	2.610265E-18
3.673849E+03	5.748677E-18	2.589994E-18
3.683752E+03	5.708827E-18	2.571267E-18
3.693654E+03	5.672228E-18	2.554011E-18
3.703557E+03	5.638785E-18	2.538182E-18
3.713460E+03	5.608508E-18	2.523783E-18
3.723362E+03	5.581243E-18	2.510745E-18
3.733265E+03	5.556955E-18	2.499049E-18
3.743167E+03	5.535641E-18	2.488694E-18
3.753070E+03	5.517209E-18	2.479636E-18
3.762972E+03	5.501622E-18	2.471858E-18
3.772875E+03	5.488830E-18	2.465337E-18
3.782777E+03	5.478791E-18	2.460053E-18
3.792680E+03	5.471505E-18	2.456004E-18
3.802583E+03	5.466887E-18	2.453150E-18
3.812485E+03	5.464935E-18	2.451491E-18
3.822388E+03	5.465653E-18	2.451027E-18
3.832290E+03	5.468954E-18	2.451717E-18
3.842193E+03	5.474786E-18	2.453537E-18
3.852095E+03	5.483205E-18	2.456511E-18
3.861998E+03	5.494160E-18	2.460616E-18
3.871900E+03	5.507564E-18	2.465810E-18
3.881803E+03	5.523463E-18	2.472114E-18
3.891706E+03	5.541853E-18	2.479525E-18
3.901608E+03	5.562600E-18	2.487982E-18
3.911511E+03	5.585753E-18	2.497505E-18
3.921413E+03	5.611300E-18	2.508088E-18
3.931316E+03	5.639203E-18	2.519713E-18
3.941218E+03	5.669357E-18	2.532333E-18
3.951121E+03	5.701859E-18	2.545988E-18
3.961024E+03	5.736609E-18	2.560634E-18
3.970926E+03	5.773558E-18	2.576248E-18
3.980829E+03	5.812746E-18	2.592846E-18
3.990731E+03	5.854072E-18	2.610382E-18
4.000634E+03	5.897582E-18	2.628876E-18
4.010536E+03	5.943129E-18	2.648262E-18
4.020439E+03	5.990800E-18	2.668576E-18
4.030341E+03	6.040492E-18	2.689773E-18
4.040244E+03	6.092159E-18	2.711830E-18
4.050147E+03	6.145841E-18	2.734765E-18
4.060049E+03	6.201388E-18	2.758509E-18
4.069952E+03	6.258894E-18	2.783104E-18
4.079854E+03	6.318209E-18	2.808483E-18
4.089757E+03	6.379331E-18	2.834641E-18
4.099659E+03	6.442258E-18	2.861580E-18
4.109562E+03	6.506895E-18	2.889255E-18
4.119464E+03	6.573233E-18	2.917662E-18
4.129367E+03	6.641228E-18	2.946779E-18
4.139270E+03	6.710779E-18	2.976562E-18
4.149172E+03	6.781938E-18	3.007032E-18
4.159075E+03	6.854556E-18	3.038123E-18
4.168977E+03	6.928685E-18	3.069858E-18
4.178880E+03	7.004171E-18	3.102166E-18
4.188782E+03	7.081021E-18	3.135051E-18
4.198685E+03	7.159183E-18	3.168488E-18
4.208587E+03	7.238501E-18	3.202408E-18
4.218490E+03	7.319035E-18	3.236837E-18
4.228393E+03	7.400680E-18	3.271728E-18
4.238295E+03	7.483327E-18	3.307032E-18
4.248198E+03	7.566866E-18	3.342700E-18
4.258100E+03	7.651302E-18	3.378734E-18
4.268003E+03	7.736591E-18	3.415113E-18
4.277905E+03	7.822484E-18	3.451727E-18
4.287808E+03	7.909061E-18	3.488612E-18
4.297711E+03	7.996069E-18	3.525655E-18
4.307613E+03	8.083582E-18	3.562888E-18
4.317516E+03	8.171409E-18	3.600229E-18
4.327418E+03	8.259555E-18	3.637677E-18
4.337321E+03	8.348023E-18	3.675235E-18
4.347223E+03	8.436830E-18	3.712909E-18
4.357126E+03	8.525977E-18	3.750700E-18
4.367028E+03	8.615537E-18	3.788640E-18
4.376931E+03	8.705596E-18	3.826766E-18
4.386834E+03	8.796160E-18	3.865081E-18
4.396736E+03	8.887320E-18	3.903624E-18
4.406639E+03	8.979019E-18	3.942370E-18
4.416541E+03	9.071424E-18	3.981392E-18
4.426444E+03	9.164492E-18	4.020671E-18
4.436346E+03	9.258238E-18	4.060214E-18
4.446249E+03	9.352700E-18	4.100035E-18
4.456151E+03	9.447909E-18	4.140149E-18
4.466054E+03	9.543895E-18	4.180567E-18
4.475957E+03	9.640696E-18	4.221308E-18
4.485859E+03	9.738180E-18	4.262311E-18
4.495762E+03	9.836559E-18	4.303669E-18
4.505664E+03	9.935699E-18	4.345323E-18
4.515567E+03	1.003564E-17	4.387290E-18
4.525469E+03	1.013635E-17	4.429553E-18
4.535372E+03	1.023794E-17	4.472168E-18
4.545274E+03	1.034040E-17	4.515118E-18
4.555177E+03	1.044357E-17	4.558342E-18
4.565080E+03	1.054770E-17	4.601946E-18
4.574982E+03	1.065267E-17	4.645870E-18
4.584885E+03	1.075842E-17	4.690098E-18
4.594787E+03	1.086512E-17	4.734699E-18
4.604690E+03	1.097283E-17	4.779698E-18
4.614592E+03	1.108133E-17	4.824996E-18
4.624495E+03	1.119088E-17	4.870714E-18
4.634398E+03	1.130148E-17	4.916840E-18
4.644300E+03	1.141310E-17	4.963365E-18
4.654203E+03	1.152582E-17	5.010330E-18
4.664105E+03	1.163965E-17	5.057727E-18
4.674008E+03	1.175469E-17	5.105602E-18
4.683910E+03	1.187071E-17	5.153859E-18
4.693813E+03	1.198782E-17	5.202541E-18
4.703715E+03	1.210615E-17	5.251702E-18
4.713618E+03	1.222535E-17	5.301192E-18
4.723521E+03	1.234566E-17	5.351116E-18
4.733423E+03	1.246696E-17	5.401422E-18
4.743326E+03	1.258916E-17	5.452063E-18
4.753228E+03	1.271250E-17	5.503145E-18
4.763131E+03	1.283661E-17	5.554511E-18
4.773033E+03	1.296187E-17	5.606323E-18
4.782936E+03	1.308793E-17	5.658423E-18
4.792838E+03	1.321502E-17	5.710917E-18
4.802741E+03	1.334290E-17	5.763697E-18
4.812644E+03	1.347181E-17	5.816870E-18
4.822546E+03	1.360151E-17	5.870325E-18
4.832449E+03	1.373211E-17	5.924113E-18
4.842351E+03	1.386361E-17	5.978230E-18
4.852254E+03	1.399586E-17	6.032612E-18
4.862156E+03	1.412883E-17	6.087248E-18
4.872059E+03	1.426251E-17	6.142131E-18
4.881961E+03	1.439701E-17	6.197306E-18
4.891864E+03	1.453202E-17	6.252638E-18
4.901767E+03	1.466778E-17	6.308233E-18
4.911669E+03	1.480396E-17	6.363948E-18
4.921572E+03	1.494066E-17	6.419823E-18
4.931474E+03	1.507766E-17	6.475762E-18
4.941377E+03	1.521489E-17	6.531740E-18
4.951279E+03	1.535227E-17	6.587715E-18
4.961182E+03	1.548985E-17	6.643714E-18
4.971085E+03	1.562722E-17	6.699560E-18
4.980987E+03	1.576443E-17	6.755269E-18
4.990890E+03	1.590118E-17	6.810715E-18
5.000792E+03	1.603749E-17	6.865906E-18
5.010695E+03	1.617302E-17	6.920701E-18
5.020597E+03	1.630745E-17	6.974959E-18
5.030500E+03	1.644075E-17	7.028665E-18
5.040402E+03	1.657271E-17	7.081733E-18
5.050305E+03	1.670294E-17	7.133998E-18
5.060208E+03	1.683105E-17	7.185293E-18
5.070110E+03	1.695712E-17	7.235650E-18
5.080013E+03	1.708056E-17	7.284820E-18
5.089915E+03	1.720108E-17	7.332684E-18
5.099818E+03	1.731840E-17	7.379120E-18
5.109720E+03	1.743223E-17	7.424009E-18
5.119623E+03	1.754208E-17	7.467142E-18
5.129525E+03	1.764783E-17	7.508467E-18
5.139428E+03	1.774879E-17	7.547700E-18
5.149331E+03	1.784481E-17	7.584777E-18
5.159233E+03	1.793520E-17	7.619408E-18
5.169136E+03	1.802000E-17	7.651610E-18
5.179038E+03	1.809850E-17	7.681088E-18
5.188941E+03	1.817056E-17	7.707785E-18
5.198843E+03	1.823548E-17	7.731410E-18
5.208746E+03	1.829313E-17	7.751909E-18
5.218648E+03	1.834319E-17	7.769157E-18
5.228551E+03	1.838502E-17	7.782880E-18
5.238454E+03	1.841833E-17	7.792965E-18
5.248356E+03	1.844305E-17	7.799389E-18
5.258259E+03	1.845879E-17	7.801990E-18
5.268161E+03	1.846518E-17	7.800616E-18
5.278064E+03	1.846206E-17	7.795211E-18
5.287966E+03	1.844935E-17	7.785742E-18
5.297869E+03	1.842700E-17	7.772195E-18
5.307772E+03	1.839483E-17	7.754505E-18
5.317674E+03	1.835310E-17	7.732785E-18
5.327577E+03	1.830177E-17	7.707027E-18
5.337479E+03	1.824124E-17	7.677401E-18
5.347382E+03	1.817160E-17	7.643955E-18
5.357284E+03	1.809358E-17	7.607001E-18
5.367187E+03	1.800778E-17	7.566800E-18
5.377089E+03	1.791452E-17	7.523489E-18
5.386992E+03	1.781492E-17	7.477541E-18
5.396895E+03	1.770959E-17	7.429223E-18
5.406797E+03	1.759853E-17	7.378533E-18
5.416700E+03	1.748301E-17	7.326013E-18
5.426602E+03	1.736350E-17	7.271858E-18
5.436505E+03	1.724047E-17	7.216272E-18
5.446407E+03	1.711465E-17	7.159560E-18
5.456310E+03	1.698659E-17	7.101959E-18
5.466212E+03	1.685689E-17	7.043717E-18
5.476115E+03	1.672648E-17	6.985224E-18
5.486018E+03	1.659597E-17	6.926737E-18
5.495920E+03	1.646645E-17	6.868710E-18
5.505823E+03	1.633882E-17	6.811521E-18
5.515725E+03	1.621379E-17	6.755462E-18
5.525628E+03	1.609237E-17	6.700953E-18
5.535530E+03	1.597535E-17	6.648319E-18
5.545433E+03	1.586347E-17	6.597865E-18
5.555335E+03	1.575758E-17	6.549941E-18
5.565238E+03	1.565830E-17	6.504800E-18
5.575141E+03	1.556618E-17	6.462671E-18
5.585043E+03	1.548190E-17	6.423822E-18
5.594946E+03	1.540586E-17	6.388422E-18
5.604848E+03	1.533860E-17	6.356681E-18
5.614751E+03	1.528042E-17	6.328722E-18
5.624653E+03	1.523155E-17	6.304631E-18
5.634556E+03	1.519234E-17	6.284547E-18
5.644459E+03	1.516292E-17	6.268518E-18
5.654361E+03	1.514338E-17	6.256570E-18
5.664264E+03	1.513392E-17	6.248783E-18
5.674166E+03	1.513457E-17	6.245157E-18
5.684069E+03	1.514547E-17	6.245743E-18
5.693971E+03	1.516642E-17	6.250453E-18
5.703874E+03	1.519770E-17	6.259394E-18
5.713776E+03	1.523911E-17	6.272471E-18
5.723679E+03	1.529057E-17	6.289649E-18
5.733582E+03	1.535235E-17	6.311030E-18
5.743484E+03	1.542408E-17	6.336449E-18
5.753387E+03	1.550602E-17	6.366011E-18
5.763289E+03	1.559814E-17	6.399691E-18
5.773192E+03	1.570040E-17	6.437467E-18
5.783094E+03	1.581261E-17	6.479247E-18
5.792997E+03	1.593506E-17	6.525151E-18
5.802899E+03	1.606758E-17	6.575094E-18
5.812802E+03	1.621032E-17	6.629132E-18
5.822705E+03	1.636327E-17	6.687250E-18
5.832607E+03	1.652623E-17	6.749358E-18
5.842510E+03	1.669935E-17	6.815514E-18
5.852412E+03	1.688280E-17	6.885772E-18
5.862315E+03	1.707617E-17	6.959957E-18
5.872217E+03	1.727958E-17	7.038113E-18
5.882120E+03	1.749298E-17	7.120208E-18
5.892022E+03	1.771648E-17	7.206278E-18
5.901925E+03	1.794958E-17	7.296113E-18
5.911828E+03	1.819256E-17	7.389816E-18
5.921730E+03	1.844487E-17	7.487156E-18
5.931633E+03	1.870653E-17	7.588132E-18
5.941535E+03	1.897734E-17	7.692660E-18
5.951438E+03	1.925686E-17	7.800545E-18
5.961340E+03	1.954505E-17	7.911768E-18
5.971243E+03	1.984115E-17	8.026015E-18
5.981146E+03	2.014531E-17	8.143331E-18
5.991048E+03	2.045644E-17	8.263281E-18
6.000951E+03	2.077463E-17	8.385886E-18
6.010853E+03	2.109897E-17	8.510773E-18
6.020756E+03	2.142922E-17	8.637844E-18
6.030658E+03	2.176439E-17	8.766689E-18
6.040561E+03	2.210393E-17	8.897088E-18
6.050463E+03	2.244701E-17	9.028698E-18
6.060366E+03	2.279304E-17	9.161277E-18
6.070269E+03	2.314083E-17	9.294349E-18
6.080171E+03	2.348945E-17	9.427537E-18
6.090074E+03	2.383821E-17	9.560564E-18
6.099976E+03	2.418614E-17	9.693038E-18
6.109879E+03	2.453164E-17	9.824322E-18
6.119781E+03	2.487398E-17	9.954123E-18
6.129684E+03	2.521213E-17	1.008203E-17
6.139586E+03	2.554535E-17	1.020776E-17
6.149489E+03	2.587329E-17	1.033116E-17
6.159392E+03	2.619559E-17	1.045211E-17
6.169294E+03	2.651232E-17	1.057063E-17
6.179197E+03	2.682432E-17	1.068707E-17
6.189099E+03	2.713152E-17	1.080139E-17
6.199002E+03	2.743351E-17	1.091344E-17
6.208904E+03	2.773142E-17	1.102368E-17
6.218807E+03	2.802537E-17	1.113216E-17
6.228709E+03	2.831481E-17	1.123866E-17
6.238612E+03	2.860110E-17	1.134372E-17
6.248515E+03	2.888339E-17	1.144701E-17
6.258417E+03	2.916280E-17	1.154898E-17
6.268320E+03	2.943894E-17	1.164948E-17
6.278222E+03	2.971221E-17	1.174866E-17
6.288125E+03	2.998269E-17	1.184656E-17
6.298027E+03	3.025043E-17	1.194320E-17
6.307930E+03	3.051553E-17	1.203863E-17
6.317833E+03	3.077766E-17	1.213270E-17
6.327735E+03	3.103646E-17	1.222530E-17
6.337638E+03	3.129247E-17	1.231663E-17
6.347540E+03	3.154489E-17	1.240638E-17
6.357443E+03	3.179428E-17	1.249477E-17
6.367345E+03	3.204027E-17	1.258166E-17
6.377248E+03	3.228296E-17	1.266709E-17
6.387150E+03	3.252292E-17	1.275129E-17
6.397053E+03	3.276126E-17	1.283469E-17
6.406956E+03	3.299812E-17	1.291735E-17
6.416858E+03	3.323417E-17	1.299954E-17
6.426761E+03	3.347012E-17	1.308154E-17
6.436663E+03	3.370566E-17	1.316321E-17
6.446566E+03	3.394201E-17	1.324504E-17
6.456468E+03	3.417941E-17	1.332713E-17
6.466371E+03	3.441754E-17	1.340934E-17
6.476273E+03	3.465769E-17	1.349217E-17
6.486176E+03	3.489953E-17	1.357550E-17
6.496079E+03	3.514273E-17	1.365920E-17
6.505981E+03	3.538860E-17	1.374378E-17
6.515884E+03	3.563678E-17	1.382908E-17
6.525786E+03	3.588745E-17	1.391519E-17
6.535689E+03	3.614138E-17	1.400240E-17
6.545591E+03	3.639757E-17	1.409030E-17
6.555494E+03	3.665614E-17	1.417897E-17
6.565396E+03	3.691844E-17	1.426890E-17
6.575299E+03	3.718337E-17	1.435967E-17
6.585202E+03	3.745102E-17	1.445132E-17
6.595104E+03	3.772211E-17	1.454412E-17
6.605007E+03	3.799606E-17	1.463785E-17
6.614909E+03	3.827294E-17	1.473252E-17
6.624812E+03	3.855341E-17	1.482839E-17
6.634714E+03	3.883619E-17	1.492497E-17
6.644617E+03	3.912124E-17	1.502224E-17
6.654520E+03	3.940989E-17	1.512070E-17
6.664422E+03	3.970074E-17	1.521982E-17
6.674325E+03	3.999373E-17	1.531958E-17
6.684227E+03	4.028948E-17	1.542019E-17
6.694130E+03	4.058718E-17	1.552138E-17
6.704032E+03	4.088673E-17	1.562307E-17
6.713935E+03	4.118802E-17	1.572525E-17
6.723837E+03	4.149089E-17	1.582783E-17
6.733740E+03	4.179445E-17	1.593049E-17
6.743643E+03	4.209929E-17	1.603344E-17
6.753545E+03	4.240525E-17	1.613664E-17
6.763448E+03	4.271137E-17	1.623970E-17
6.773350E+03	4.301826E-17	1.634287E-17
6.783253E+03	4.332493E-17	1.644577E-17
6.793155E+03	4.363119E-17	1.654832E-17
6.803058E+03	4.393683E-17	1.665045E-17
6.812960E+03	4.424081E-17	1.675177E-17
6.822863E+03	4.454458E-17	1.685283E-17
6.832766E+03	4.484710E-17	1.695324E-17
6.842668E+03	4.514735E-17	1.705262E-17
6.852571E+03	4.544594E-17	1.715119E-17
6.862473E+03	4.574183E-17	1.724857E-17
6.872376E+03	4.603481E-17	1.734468E-17
6.882278E+03	4.632556E-17	1.743979E-17
6.892181E+03	4.661302E-17	1.753350E-17
6.902083E+03	4.689702E-17	1.762575E-17
6.911986E+03	4.717738E-17	1.771648E-17
6.921889E+03	4.745397E-17	1.780564E-17
6.931791E+03	4.772571E-17	1.789283E-17
6.941694E+03	4.799433E-17	1.797872E-17
6.951596E+03	4.825788E-17	1.806257E-17
6.961499E+03	4.851626E-17	1.814434E-17
6.971401E+03	4.877034E-17	1.822439E-17
6.981304E+03	4.901913E-17	1.830234E-17
6.991207E+03	4.926261E-17	1.837818E-17
7.001109E+03	4.950076E-17	1.845194E-17
7.011012E+03	4.973363E-17	1.852361E-17
7.020914E+03	4.996227E-17	1.859361E-17
7.030817E+03	5.018476E-17	1.866122E-17
7.040719E+03	5.040120E-17	1.872650E-17
7.050622E+03	5.061273E-17	1.878986E-17
7.060524E+03	5.081951E-17	1.885139E-17
7.070427E+03	5.102068E-17	1.891077E-17
7.080330E+03	5.121750E-17	1.896846E-17
7.090232E+03	5.140807E-17	1.902377E-17
7.100135E+03	5.159471E-17	1.907759E-17
7.110037E+03	5.177663E-17	1.912960E-17
7.119940E+03	5.195405E-17	1.917990E-17
7.129842E+03	5.212615E-17	1.922820E-17
7.139745E+03	5.229532E-17	1.927539E-17
7.149647E+03	5.245963E-17	1.932075E-17
7.159550E+03	5.262038E-17	1.936478E-17
7.169453E+03	5.277669E-17	1.940716E-17
7.179355E+03	5.292982E-17	1.944835E-17
7.189258E+03	5.307884E-17	1.948803E-17
7.199160E+03	5.322388E-17	1.952624E-17
7.209063E+03	5.336615E-17	1.956343E-17
7.218965E+03	5.350460E-17	1.959923E-17
7.228868E+03	5.364043E-17	1.963409E-17
7.238770E+03	5.377139E-17	1.966717E-17
7.248673E+03	5.389860E-17	1.969891E-17
7.258576E+03	5.402322E-17	1.972972E-17
7.268478E+03	5.414291E-17	1.975877E-17
7.278381E+03	5.425879E-17	1.978647E-17
7.288283E+03	5.436966E-17	1.981238E-17
7.298186E+03	5.447667E-17	1.983693E-17
7.308088E+03	5.457863E-17	1.985970E-17
7.317991E+03	5.467555E-17	1.988069E-17
7.327894E+03	5.476744E-17	1.989992E-17
7.337796E+03	5.485318E-17	1.991699E-17
7.347699E+03	5.493283E-17	1.993193E-17
7.357601E+03	5.500651E-17	1.994479E-17
7.367504E+03	5.507438E-17	1.995563E-17
7.377406E+03	5.513786E-17	1.996497E-17
7.387309E+03	5.519592E-17	1.997246E-17
7.397211E+03	5.525131E-17	1.997908E-17
7.407114E+03	5.530429E-17	1.998496E-17
7.417017E+03	5.535516E-17	1.999018E-17
7.426919E+03	5.540420E-17	1.999486E-17
7.436822E+03	5.545166E-17	1.999910E-17
7.446724E+03	5.550021E-17	2.000386E-17
7.456627E+03	5.554732E-17	2.000823E-17
7.466529E+03	5.559423E-17	2.001266E-17
7.476432E+03	5.564086E-17	2.001712E-17
7.486334E+03	5.568842E-17	2.002205E-17
7.496237E+03	5.573426E-17	2.002648E-17
7.506140E+03	5.577956E-17	2.003085E-17
7.516042E+03	5.582425E-17	2.003513E-17
7.525945E+03	5.586955E-17	2.003975E-17
7.535847E+03	5.591278E-17	2.004376E-17
7.545750E+03	5.595651E-17	2.004807E-17
7.555652E+03	5.599939E-17	2.005219E-17
7.565555E+03	5.604002E-17	2.005565E-17
7.575457E+03	5.608107E-17	2.005937E-17
7.585360E+03	5.612117E-17	2.006288E-17
7.595263E+03	5.616030E-17	2.006616E-17
7.605165E+03	5.619844E-17	2.006921E-17
7.615068E+03	5.623557E-17	2.007203E-17
7.624970E+03	5.627168E-17	2.007460E-17
7.634873E+03	5.630809E-17	2.007740E-17
7.644775E+03	5.634201E-17	2.007944E-17
7.654678E+03	5.637615E-17	2.008167E-17
7.664581E+03	5.640903E-17	2.008358E-17
7.674483E+03	5.644058E-17	2.008513E-17
7.684386E+03	5.647069E-17	2.008629E-17
