#wls	flux	fluxerr
1.584409E+03	5.619188E-17	2.054287E-18
1.624020E+03	5.858034E-17	2.141553E-18
1.663630E+03	6.080075E-17	2.222671E-18
1.703240E+03	6.280588E-17	2.295915E-18
1.742850E+03	6.457003E-17	2.360344E-18
1.782461E+03	6.601987E-17	2.413279E-18
1.822071E+03	6.707606E-17	2.451821E-18
1.861681E+03	6.766046E-17	2.473115E-18
1.901291E+03	6.766963E-17	2.473381E-18
1.940902E+03	6.703436E-17	2.450092E-18
1.980512E+03	6.573108E-17	2.402387E-18
2.020122E+03	6.386332E-17	2.334054E-18
2.059732E+03	6.169165E-17	2.254616E-18
2.099342E+03	5.965200E-17	2.180007E-18
2.138953E+03	5.820665E-17	2.127119E-18
2.178563E+03	5.760386E-17	2.105023E-18
2.218173E+03	5.775343E-17	2.110420E-18
2.257783E+03	5.830751E-17	2.130597E-18
2.297394E+03	5.885194E-17	2.150418E-18
2.337004E+03	5.908697E-17	2.158932E-18
2.376614E+03	5.884201E-17	2.149906E-18
2.416224E+03	5.806168E-17	2.121319E-18
2.455835E+03	5.677220E-17	2.074133E-18
2.495445E+03	5.502429E-17	2.010200E-18
2.535055E+03	5.289140E-17	1.932207E-18
2.574665E+03	5.044688E-17	1.842835E-18
2.614276E+03	4.776453E-17	1.744781E-18
2.653886E+03	4.490830E-17	1.640382E-18
2.693496E+03	4.193798E-17	1.531823E-18
2.733106E+03	3.890732E-17	1.421069E-18
2.772716E+03	3.586440E-17	1.309874E-18
2.812327E+03	3.285281E-17	1.199832E-18
2.851937E+03	2.991274E-17	1.092411E-18
2.891547E+03	2.707941E-17	9.888961E-19
2.931157E+03	2.438323E-17	8.903980E-19
2.970768E+03	2.184792E-17	7.977819E-19
2.980670E+03	2.124190E-17	7.756444E-19
2.990573E+03	2.064669E-17	7.539024E-19
3.000475E+03	2.006330E-17	7.325921E-19
3.010378E+03	1.949131E-17	7.116986E-19
3.020280E+03	1.893117E-17	6.912383E-19
3.030183E+03	1.838326E-17	6.712248E-19
3.040086E+03	1.784698E-17	6.516366E-19
3.049988E+03	1.732412E-17	6.325385E-19
3.059891E+03	1.681448E-17	6.139236E-19
3.069793E+03	1.631832E-17	5.958016E-19
3.079696E+03	1.583494E-17	5.781462E-19
3.089598E+03	1.536403E-17	5.609467E-19
3.099501E+03	1.490594E-17	5.442155E-19
3.109403E+03	1.445983E-17	5.279220E-19
3.119306E+03	1.402636E-17	5.120904E-19
3.129209E+03	1.360453E-17	4.966843E-19
3.139111E+03	1.319498E-17	4.817265E-19
3.149014E+03	1.279706E-17	4.671938E-19
3.158916E+03	1.241110E-17	4.530982E-19
3.168819E+03	1.203674E-17	4.394262E-19
3.178721E+03	1.167406E-17	4.261810E-19
3.188624E+03	1.132292E-17	4.133573E-19
3.198526E+03	1.098317E-17	4.009499E-19
3.208429E+03	1.065453E-17	3.889480E-19
3.218332E+03	1.033720E-17	3.773595E-19
3.228234E+03	1.003086E-17	3.661724E-19
3.238137E+03	9.735516E-18	3.553867E-19
3.248039E+03	9.450824E-18	3.449903E-19
3.257942E+03	9.176614E-18	3.349767E-19
3.267844E+03	8.912826E-18	3.253438E-19
3.277747E+03	8.659113E-18	3.160789E-19
3.287650E+03	8.415383E-18	3.071786E-19
3.297552E+03	8.181400E-18	2.986342E-19
3.307455E+03	7.956696E-18	2.904288E-19
3.317357E+03	7.741267E-18	2.825621E-19
3.327260E+03	7.534770E-18	2.750216E-19
3.337162E+03	7.336950E-18	2.677979E-19
3.347065E+03	7.147583E-18	2.608830E-19
3.356967E+03	6.966230E-18	2.542607E-19
3.366870E+03	6.792848E-18	2.479295E-19
3.376773E+03	6.627123E-18	2.418779E-19
3.386675E+03	6.468727E-18	2.360940E-19
3.396578E+03	6.317452E-18	2.305701E-19
3.406480E+03	6.173074E-18	2.252980E-19
3.416383E+03	6.035236E-18	2.202647E-19
3.426285E+03	5.903810E-18	2.154656E-19
3.436188E+03	5.778471E-18	2.108887E-19
3.446090E+03	5.659025E-18	2.065270E-19
3.455993E+03	5.545245E-18	2.023722E-19
3.465896E+03	5.436902E-18	1.984159E-19
3.475798E+03	5.333784E-18	1.946504E-19
3.485701E+03	5.235689E-18	1.910683E-19
3.495603E+03	5.142371E-18	1.876605E-19
3.505506E+03	5.053601E-18	1.844188E-19
3.515408E+03	4.969216E-18	1.813373E-19
3.525311E+03	4.889010E-18	1.784082E-19
3.535213E+03	4.812841E-18	1.756266E-19
3.545116E+03	4.740474E-18	1.729838E-19
3.555019E+03	4.671786E-18	1.704753E-19
3.564921E+03	4.606614E-18	1.680951E-19
3.574824E+03	4.544891E-18	1.658409E-19
3.584726E+03	4.486421E-18	1.637054E-19
3.594629E+03	4.431105E-18	1.616850E-19
3.604531E+03	4.378723E-18	1.597718E-19
3.614434E+03	4.329192E-18	1.579626E-19
3.624337E+03	4.282391E-18	1.562531E-19
3.634239E+03	4.238207E-18	1.546391E-19
3.644142E+03	4.196568E-18	1.531180E-19
3.654044E+03	4.157407E-18	1.516874E-19
3.663947E+03	4.120618E-18	1.503433E-19
3.673849E+03	4.086173E-18	1.490848E-19
3.683752E+03	4.053970E-18	1.479081E-19
3.693654E+03	4.024018E-18	1.468136E-19
3.703557E+03	3.996251E-18	1.457988E-19
3.713460E+03	3.970604E-18	1.448614E-19
3.723362E+03	3.947048E-18	1.440002E-19
3.733265E+03	3.925585E-18	1.432155E-19
3.743167E+03	3.906152E-18	1.425049E-19
3.753070E+03	3.888750E-18	1.418684E-19
3.762972E+03	3.873316E-18	1.413036E-19
3.772875E+03	3.859822E-18	1.408097E-19
3.782777E+03	3.848269E-18	1.403866E-19
3.792680E+03	3.838664E-18	1.400345E-19
3.802583E+03	3.830943E-18	1.397513E-19
3.812485E+03	3.825145E-18	1.395381E-19
3.822388E+03	3.821178E-18	1.393918E-19
3.832290E+03	3.819110E-18	1.393147E-19
3.842193E+03	3.818849E-18	1.393036E-19
3.852095E+03	3.820463E-18	1.393608E-19
3.861998E+03	3.823891E-18	1.394843E-19
3.871900E+03	3.829136E-18	1.396740E-19
3.881803E+03	3.836170E-18	1.399290E-19
3.891706E+03	3.844994E-18	1.402492E-19
3.901608E+03	3.855579E-18	1.406337E-19
3.911511E+03	3.867956E-18	1.410835E-19
3.921413E+03	3.882065E-18	1.415966E-19
3.931316E+03	3.897908E-18	1.421728E-19
3.941218E+03	3.915453E-18	1.428111E-19
3.951121E+03	3.934734E-18	1.435127E-19
3.961024E+03	3.955719E-18	1.442765E-19
3.970926E+03	3.978379E-18	1.451014E-19
3.980829E+03	4.002683E-18	1.459861E-19
3.990731E+03	4.028663E-18	1.469321E-19
4.000634E+03	4.056260E-18	1.479369E-19
4.010536E+03	4.085507E-18	1.490019E-19
4.020439E+03	4.116344E-18	1.501250E-19
4.030341E+03	4.148776E-18	1.513061E-19
4.040244E+03	4.182809E-18	1.525456E-19
4.050147E+03	4.218415E-18	1.538425E-19
4.060049E+03	4.255570E-18	1.551958E-19
4.069952E+03	4.294249E-18	1.566047E-19
4.079854E+03	4.334492E-18	1.580706E-19
4.089757E+03	4.376244E-18	1.595915E-19
4.099659E+03	4.419511E-18	1.611677E-19
4.109562E+03	4.464237E-18	1.627969E-19
4.119464E+03	4.510429E-18	1.644797E-19
4.129367E+03	4.558099E-18	1.662163E-19
4.139270E+03	4.607188E-18	1.680046E-19
4.149172E+03	4.657706E-18	1.698450E-19
4.159075E+03	4.709592E-18	1.717353E-19
4.168977E+03	4.762859E-18	1.736759E-19
4.178880E+03	4.817443E-18	1.756645E-19
4.188782E+03	4.873358E-18	1.777016E-19
4.198685E+03	4.930537E-18	1.797848E-19
4.208587E+03	4.988954E-18	1.819130E-19
4.218490E+03	5.048542E-18	1.840840E-19
4.228393E+03	5.109309E-18	1.862978E-19
4.238295E+03	5.171183E-18	1.885521E-19
4.248198E+03	5.234130E-18	1.908454E-19
4.258100E+03	5.298074E-18	1.931750E-19
4.268003E+03	5.362928E-18	1.955378E-19
4.277905E+03	5.428651E-18	1.979323E-19
4.287808E+03	5.495191E-18	2.003565E-19
4.297711E+03	5.562454E-18	2.028070E-19
4.307613E+03	5.630382E-18	2.052817E-19
4.317516E+03	5.698869E-18	2.077768E-19
4.327418E+03	5.767893E-18	2.102915E-19
4.337321E+03	5.837388E-18	2.128233E-19
4.347223E+03	5.907426E-18	2.153748E-19
4.357126E+03	5.977936E-18	2.179436E-19
4.367028E+03	6.048948E-18	2.205306E-19
4.376931E+03	6.120440E-18	2.231351E-19
4.386834E+03	6.192497E-18	2.257601E-19
4.396736E+03	6.265053E-18	2.284033E-19
4.406639E+03	6.338094E-18	2.310642E-19
4.416541E+03	6.411659E-18	2.337442E-19
4.426444E+03	6.485743E-18	2.364430E-19
4.436346E+03	6.560341E-18	2.391606E-19
4.446249E+03	6.635388E-18	2.418945E-19
4.456151E+03	6.710936E-18	2.446467E-19
4.466054E+03	6.786928E-18	2.474150E-19
4.475957E+03	6.863357E-18	2.501993E-19
4.485859E+03	6.940216E-18	2.529992E-19
4.495762E+03	7.017393E-18	2.558107E-19
4.505664E+03	7.094937E-18	2.586355E-19
4.515567E+03	7.172802E-18	2.614720E-19
4.525469E+03	7.250982E-18	2.643200E-19
4.535372E+03	7.329356E-18	2.671751E-19
4.545274E+03	7.408006E-18	2.700401E-19
4.555177E+03	7.486808E-18	2.729107E-19
4.565080E+03	7.565846E-18	2.757899E-19
4.574982E+03	7.645009E-18	2.786736E-19
4.584885E+03	7.724322E-18	2.815628E-19
4.594787E+03	7.803745E-18	2.844560E-19
4.604690E+03	7.883384E-18	2.873570E-19
4.614592E+03	7.963137E-18	2.902622E-19
4.624495E+03	8.043130E-18	2.931761E-19
4.634398E+03	8.123336E-18	2.960978E-19
4.644300E+03	8.203741E-18	2.990267E-19
4.654203E+03	8.284478E-18	3.019677E-19
4.664105E+03	8.365476E-18	3.049181E-19
4.674008E+03	8.446799E-18	3.078804E-19
4.683910E+03	8.528380E-18	3.108521E-19
4.693813E+03	8.610290E-18	3.138358E-19
4.703715E+03	8.692385E-18	3.168262E-19
4.713618E+03	8.774749E-18	3.198264E-19
4.723521E+03	8.857310E-18	3.228338E-19
4.733423E+03	8.940169E-18	3.258520E-19
4.743326E+03	9.023234E-18	3.288777E-19
4.753228E+03	9.106532E-18	3.319118E-19
4.763131E+03	9.190053E-18	3.349541E-19
4.773033E+03	9.273816E-18	3.380053E-19
4.782936E+03	9.357821E-18	3.410652E-19
4.792838E+03	9.441981E-18	3.441307E-19
4.802741E+03	9.526393E-18	3.472054E-19
4.812644E+03	9.611061E-18	3.502894E-19
4.822546E+03	9.695908E-18	3.533800E-19
4.832449E+03	9.780931E-18	3.564769E-19
4.842351E+03	9.866227E-18	3.595838E-19
4.852254E+03	9.951620E-18	3.626942E-19
4.862156E+03	1.003730E-17	3.658151E-19
4.872059E+03	1.012318E-17	3.689432E-19
4.881961E+03	1.020915E-17	3.720745E-19
4.891864E+03	1.029530E-17	3.752124E-19
4.901767E+03	1.038161E-17	3.783563E-19
4.911669E+03	1.046797E-17	3.815018E-19
4.921572E+03	1.055444E-17	3.846514E-19
4.931474E+03	1.064078E-17	3.877962E-19
4.941377E+03	1.072716E-17	3.909423E-19
4.951279E+03	1.081341E-17	3.940840E-19
4.961182E+03	1.089937E-17	3.972148E-19
4.971085E+03	1.098508E-17	4.003364E-19
4.980987E+03	1.107034E-17	4.034418E-19
4.990890E+03	1.115507E-17	4.065278E-19
5.000792E+03	1.123917E-17	4.095909E-19
5.010695E+03	1.132255E-17	4.126276E-19
5.020597E+03	1.140495E-17	4.156289E-19
5.030500E+03	1.148638E-17	4.185945E-19
5.040402E+03	1.156659E-17	4.215158E-19
5.050305E+03	1.164544E-17	4.243875E-19
5.060208E+03	1.172268E-17	4.272003E-19
5.070110E+03	1.179826E-17	4.299530E-19
5.080013E+03	1.187182E-17	4.326317E-19
5.089915E+03	1.194344E-17	4.352400E-19
5.099818E+03	1.201276E-17	4.377642E-19
5.109720E+03	1.207974E-17	4.402031E-19
5.119623E+03	1.214413E-17	4.425480E-19
5.129525E+03	1.220567E-17	4.447885E-19
5.139428E+03	1.226434E-17	4.469246E-19
5.149331E+03	1.231986E-17	4.489462E-19
5.159233E+03	1.237210E-17	4.508481E-19
5.169136E+03	1.242091E-17	4.526247E-19
5.179038E+03	1.246601E-17	4.542663E-19
5.188941E+03	1.250722E-17	4.557665E-19
5.198843E+03	1.254429E-17	4.571154E-19
5.208746E+03	1.257716E-17	4.583113E-19
5.218648E+03	1.260553E-17	4.593432E-19
5.228551E+03	1.262922E-17	4.602049E-19
5.238454E+03	1.264808E-17	4.608902E-19
5.248356E+03	1.266180E-17	4.613881E-19
5.258259E+03	1.267019E-17	4.616922E-19
5.268161E+03	1.267310E-17	4.617966E-19
5.278064E+03	1.267038E-17	4.616955E-19
5.287966E+03	1.266175E-17	4.613793E-19
5.297869E+03	1.264721E-17	4.608477E-19
5.307772E+03	1.262666E-17	4.600969E-19
5.317674E+03	1.260001E-17	4.591243E-19
5.327577E+03	1.256710E-17	4.579233E-19
5.337479E+03	1.252817E-17	4.565031E-19
5.347382E+03	1.248313E-17	4.548601E-19
5.357284E+03	1.243231E-17	4.530066E-19
5.367187E+03	1.237572E-17	4.509428E-19
5.377089E+03	1.231366E-17	4.486797E-19
5.386992E+03	1.224636E-17	4.462258E-19
5.396895E+03	1.217436E-17	4.436007E-19
5.406797E+03	1.209786E-17	4.408116E-19
5.416700E+03	1.201714E-17	4.378685E-19
5.426602E+03	1.193238E-17	4.347784E-19
5.436505E+03	1.184406E-17	4.315588E-19
5.446407E+03	1.175246E-17	4.282196E-19
5.456310E+03	1.165803E-17	4.247771E-19
5.466212E+03	1.156123E-17	4.212486E-19
5.476115E+03	1.146255E-17	4.176514E-19
5.486018E+03	1.136250E-17	4.140044E-19
5.495920E+03	1.126170E-17	4.103301E-19
5.505823E+03	1.116067E-17	4.066477E-19
5.515725E+03	1.106015E-17	4.029835E-19
5.525628E+03	1.096052E-17	3.993517E-19
5.535530E+03	1.086258E-17	3.957820E-19
5.545433E+03	1.076668E-17	3.922864E-19
5.555335E+03	1.067345E-17	3.888881E-19
5.565238E+03	1.058348E-17	3.856086E-19
5.575141E+03	1.049697E-17	3.824551E-19
5.585043E+03	1.041462E-17	3.794532E-19
5.594946E+03	1.033665E-17	3.766109E-19
5.604848E+03	1.026322E-17	3.739342E-19
5.614751E+03	1.019487E-17	3.714424E-19
5.624653E+03	1.013154E-17	3.691335E-19
5.634556E+03	1.007346E-17	3.670162E-19
5.644459E+03	1.002082E-17	3.650969E-19
5.654361E+03	9.973656E-18	3.633771E-19
5.664264E+03	9.931976E-18	3.618572E-19
5.674166E+03	9.895770E-18	3.605367E-19
5.684069E+03	9.865111E-18	3.594184E-19
5.693971E+03	9.840058E-18	3.585042E-19
5.703874E+03	9.820378E-18	3.577859E-19
5.713776E+03	9.806345E-18	3.572732E-19
5.723679E+03	9.797731E-18	3.569581E-19
5.733582E+03	9.794749E-18	3.568481E-19
5.743484E+03	9.797312E-18	3.569401E-19
5.753387E+03	9.805540E-18	3.572385E-19
5.763289E+03	9.819485E-18	3.577452E-19
5.773192E+03	9.839303E-18	3.584658E-19
5.783094E+03	9.864935E-18	3.593983E-19
5.792997E+03	9.896439E-18	3.605447E-19
5.802899E+03	9.933994E-18	3.619115E-19
5.812802E+03	9.977748E-18	3.635041E-19
5.822705E+03	1.002755E-17	3.653171E-19
5.832607E+03	1.008367E-17	3.673603E-19
5.842510E+03	1.014606E-17	3.696319E-19
5.852412E+03	1.021486E-17	3.721370E-19
5.862315E+03	1.029013E-17	3.748777E-19
5.872217E+03	1.037178E-17	3.778507E-19
5.882120E+03	1.045993E-17	3.810606E-19
5.892022E+03	1.055459E-17	3.845077E-19
5.901925E+03	1.065563E-17	3.881870E-19
5.911828E+03	1.076324E-17	3.921059E-19
5.921730E+03	1.087714E-17	3.962539E-19
5.931633E+03	1.099737E-17	4.006323E-19
5.941535E+03	1.112385E-17	4.052384E-19
5.951438E+03	1.125631E-17	4.100624E-19
5.961340E+03	1.139475E-17	4.151042E-19
5.971243E+03	1.153873E-17	4.203476E-19
5.981146E+03	1.168831E-17	4.257949E-19
5.991048E+03	1.184298E-17	4.314278E-19
6.000951E+03	1.200262E-17	4.372417E-19
6.010853E+03	1.216678E-17	4.432203E-19
6.020756E+03	1.233513E-17	4.493515E-19
6.030658E+03	1.250715E-17	4.556163E-19
6.040561E+03	1.268227E-17	4.619939E-19
6.050463E+03	1.286020E-17	4.684737E-19
6.060366E+03	1.303998E-17	4.750211E-19
6.070269E+03	1.322124E-17	4.816223E-19
6.080171E+03	1.340311E-17	4.882455E-19
6.090074E+03	1.358500E-17	4.948695E-19
6.099976E+03	1.376565E-17	5.014486E-19
6.109879E+03	1.394463E-17	5.079665E-19
6.119781E+03	1.412082E-17	5.143827E-19
6.129684E+03	1.429351E-17	5.206714E-19
6.139586E+03	1.446184E-17	5.268013E-19
6.149489E+03	1.462575E-17	5.327704E-19
6.159392E+03	1.478550E-17	5.385874E-19
6.169294E+03	1.494139E-17	5.442642E-19
6.179197E+03	1.509388E-17	5.498168E-19
6.189099E+03	1.524286E-17	5.552418E-19
6.199002E+03	1.538929E-17	5.605739E-19
6.208904E+03	1.553296E-17	5.658052E-19
6.218807E+03	1.567450E-17	5.709590E-19
6.228709E+03	1.581437E-17	5.760519E-19
6.238612E+03	1.595243E-17	5.810788E-19
6.248515E+03	1.608917E-17	5.860577E-19
6.258417E+03	1.622488E-17	5.909990E-19
6.268320E+03	1.635988E-17	5.959148E-19
6.278222E+03	1.649405E-17	6.008000E-19
6.288125E+03	1.662770E-17	6.056662E-19
6.298027E+03	1.676095E-17	6.105178E-19
6.307930E+03	1.689390E-17	6.153585E-19
6.317833E+03	1.702642E-17	6.201835E-19
6.327735E+03	1.715837E-17	6.249879E-19
6.337638E+03	1.728961E-17	6.297663E-19
6.347540E+03	1.742022E-17	6.345217E-19
6.357443E+03	1.755005E-17	6.392487E-19
6.367345E+03	1.767841E-17	6.439220E-19
6.377248E+03	1.780612E-17	6.485717E-19
6.387150E+03	1.793326E-17	6.532007E-19
6.397053E+03	1.806019E-17	6.578221E-19
6.406956E+03	1.818753E-17	6.624582E-19
6.416858E+03	1.831511E-17	6.671033E-19
6.426761E+03	1.844359E-17	6.717810E-19
6.436663E+03	1.857308E-17	6.764954E-19
6.446566E+03	1.870396E-17	6.812604E-19
6.456468E+03	1.883577E-17	6.860595E-19
6.466371E+03	1.896949E-17	6.909279E-19
6.476273E+03	1.910461E-17	6.958477E-19
6.486176E+03	1.924156E-17	7.008337E-19
6.496079E+03	1.938042E-17	7.058896E-19
6.505981E+03	1.952098E-17	7.110071E-19
6.515884E+03	1.966363E-17	7.162009E-19
6.525786E+03	1.980847E-17	7.214743E-19
6.535689E+03	1.995528E-17	7.268197E-19
6.545591E+03	2.010414E-17	7.322394E-19
6.555494E+03	2.025512E-17	7.377367E-19
6.565396E+03	2.040864E-17	7.433264E-19
6.575299E+03	2.056411E-17	7.489867E-19
6.585202E+03	2.072192E-17	7.547327E-19
6.595104E+03	2.088213E-17	7.605661E-19
6.605007E+03	2.104446E-17	7.664764E-19
6.614909E+03	2.120927E-17	7.724774E-19
6.624812E+03	2.137628E-17	7.785580E-19
6.634714E+03	2.154585E-17	7.847323E-19
6.644617E+03	2.171729E-17	7.909745E-19
6.654520E+03	2.189098E-17	7.972989E-19
6.664422E+03	2.206735E-17	8.037204E-19
6.674325E+03	2.224564E-17	8.102124E-19
6.684227E+03	2.242628E-17	8.167896E-19
6.694130E+03	2.260890E-17	8.234390E-19
6.704032E+03	2.279393E-17	8.301761E-19
6.713935E+03	2.298100E-17	8.369877E-19
6.723837E+03	2.317015E-17	8.438750E-19
6.733740E+03	2.336184E-17	8.508547E-19
6.743643E+03	2.355526E-17	8.578976E-19
6.753545E+03	2.375130E-17	8.650358E-19
6.763448E+03	2.394915E-17	8.722399E-19
6.773350E+03	2.414968E-17	8.795419E-19
6.783253E+03	2.435205E-17	8.869107E-19
6.793155E+03	2.455625E-17	8.943461E-19
6.803058E+03	2.476273E-17	9.018644E-19
6.812960E+03	2.497145E-17	9.094648E-19
6.822863E+03	2.518146E-17	9.171118E-19
6.832766E+03	2.539363E-17	9.248376E-19
6.842668E+03	2.560742E-17	9.326225E-19
6.852571E+03	2.582324E-17	9.404811E-19
6.862473E+03	2.604000E-17	9.483742E-19
6.872376E+03	2.625810E-17	9.563160E-19
6.882278E+03	2.647741E-17	9.643021E-19
6.892181E+03	2.669730E-17	9.723093E-19
6.902083E+03	2.691815E-17	9.803512E-19
6.911986E+03	2.713983E-17	9.884234E-19
6.921889E+03	2.736166E-17	9.965014E-19
6.931791E+03	2.758353E-17	1.004581E-18
6.941694E+03	2.780529E-17	1.012656E-18
6.951596E+03	2.802735E-17	1.020742E-18
6.961499E+03	2.824851E-17	1.028796E-18
6.971401E+03	2.846977E-17	1.036853E-18
6.981304E+03	2.868989E-17	1.044869E-18
6.991207E+03	2.890935E-17	1.052861E-18
7.001109E+03	2.912749E-17	1.060805E-18
7.011012E+03	2.934482E-17	1.068719E-18
7.020914E+03	2.956128E-17	1.076602E-18
7.030817E+03	2.977624E-17	1.084430E-18
7.040719E+03	2.998905E-17	1.092181E-18
7.050622E+03	3.020090E-17	1.099896E-18
7.060524E+03	3.041115E-17	1.107553E-18
7.070427E+03	3.061982E-17	1.115152E-18
7.080330E+03	3.082691E-17	1.122694E-18
7.090232E+03	3.103179E-17	1.130156E-18
7.100135E+03	3.123513E-17	1.137561E-18
7.110037E+03	3.143630E-17	1.144888E-18
7.119940E+03	3.163535E-17	1.152137E-18
7.129842E+03	3.183297E-17	1.159335E-18
7.139745E+03	3.202855E-17	1.166458E-18
7.149647E+03	3.222281E-17	1.173534E-18
7.159550E+03	3.241445E-17	1.180514E-18
7.169453E+03	3.260416E-17	1.187424E-18
7.179355E+03	3.279196E-17	1.194264E-18
7.189258E+03	3.297783E-17	1.201034E-18
7.199160E+03	3.316176E-17	1.207734E-18
7.209063E+03	3.334369E-17	1.214361E-18
7.218965E+03	3.352283E-17	1.220887E-18
7.228868E+03	3.369977E-17	1.227332E-18
7.238770E+03	3.387441E-17	1.233694E-18
7.248673E+03	3.404662E-17	1.239968E-18
7.258576E+03	3.421550E-17	1.246120E-18
7.268478E+03	3.438166E-17	1.252174E-18
7.278381E+03	3.454571E-17	1.258151E-18
7.288283E+03	3.470602E-17	1.263991E-18
7.298186E+03	3.486321E-17	1.269718E-18
7.308088E+03	3.501717E-17	1.275329E-18
7.317991E+03	3.516859E-17	1.280846E-18
7.327894E+03	3.531663E-17	1.286240E-18
7.337796E+03	3.546203E-17	1.291539E-18
7.347699E+03	3.560559E-17	1.296771E-18
7.357601E+03	3.574655E-17	1.301908E-18
7.367504E+03	3.588660E-17	1.307012E-18
7.377406E+03	3.602424E-17	1.312029E-18
7.387309E+03	3.616042E-17	1.316992E-18
7.397211E+03	3.629447E-17	1.321879E-18
7.407114E+03	3.642744E-17	1.326726E-18
7.417017E+03	3.655784E-17	1.331479E-18
7.426919E+03	3.668670E-17	1.336177E-18
7.436822E+03	3.681419E-17	1.340825E-18
7.446724E+03	3.693959E-17	1.345398E-18
7.456627E+03	3.706473E-17	1.349960E-18
7.466529E+03	3.718795E-17	1.354454E-18
7.476432E+03	3.731016E-17	1.358910E-18
7.486334E+03	3.743056E-17	1.363301E-18
7.496237E+03	3.755008E-17	1.367661E-18
7.506140E+03	3.766791E-17	1.371958E-18
7.516042E+03	3.778500E-17	1.376229E-18
7.525945E+03	3.790052E-17	1.380444E-18
7.535847E+03	3.801450E-17	1.384602E-18
7.545750E+03	3.812792E-17	1.388740E-18
7.555652E+03	3.823985E-17	1.392824E-18
7.565555E+03	3.835029E-17	1.396854E-18
7.575457E+03	3.846014E-17	1.400863E-18
7.585360E+03	3.856841E-17	1.404814E-18
7.595263E+03	3.867596E-17	1.408739E-18
7.605165E+03	3.878080E-17	1.412566E-18
7.615068E+03	3.888470E-17	1.416359E-18
7.624970E+03	3.898754E-17	1.420113E-18
7.634873E+03	3.908823E-17	1.423790E-18
7.644775E+03	3.918757E-17	1.427417E-18
7.654678E+03	3.928445E-17	1.430955E-18
7.664581E+03	3.937869E-17	1.434397E-18
7.674483E+03	3.947110E-17	1.437772E-18
7.684386E+03	3.956151E-17	1.441075E-18
