#wls	flux	fluxerr
1.584409E+03	1.581697E-16	5.046918E-17
1.624020E+03	1.641553E-16	5.237829E-17
1.663630E+03	1.695016E-16	5.408335E-17
1.703240E+03	1.741066E-16	5.555178E-17
1.742850E+03	1.778479E-16	5.674454E-17
1.782461E+03	1.805601E-16	5.760889E-17
1.822071E+03	1.820197E-16	5.807356E-17
1.861681E+03	1.820201E-16	5.807261E-17
1.901291E+03	1.803437E-16	5.753666E-17
1.940902E+03	1.768190E-16	5.641101E-17
1.980512E+03	1.714668E-16	5.470236E-17
2.020122E+03	1.645903E-16	5.250746E-17
2.059732E+03	1.569376E-16	5.006498E-17
2.099342E+03	1.496697E-16	4.774534E-17
2.138953E+03	1.439048E-16	4.590524E-17
2.178563E+03	1.402139E-16	4.472673E-17
2.218173E+03	1.382872E-16	4.411103E-17
2.257783E+03	1.371296E-16	4.374063E-17
2.297394E+03	1.358065E-16	4.331741E-17
2.337004E+03	1.336389E-16	4.262483E-17
2.376614E+03	1.302832E-16	4.155332E-17
2.416224E+03	1.256774E-16	4.008311E-17
2.455835E+03	1.199421E-16	3.825274E-17
2.495445E+03	1.132813E-16	3.612728E-17
2.535055E+03	1.059206E-16	3.377870E-17
2.574665E+03	9.809199E-17	3.128104E-17
2.614276E+03	9.000790E-17	2.870205E-17
2.653886E+03	8.185660E-17	2.610178E-17
2.693496E+03	7.380092E-17	2.353216E-17
2.733106E+03	6.598292E-17	2.103850E-17
2.772716E+03	5.851011E-17	1.865506E-17
2.812327E+03	5.147072E-17	1.640997E-17
2.851937E+03	4.493593E-17	1.432593E-17
2.891547E+03	3.895630E-17	1.241903E-17
2.931157E+03	3.356468E-17	1.069972E-17
2.970768E+03	2.877118E-17	9.171223E-18
2.980670E+03	2.766504E-17	8.818521E-18
2.990573E+03	2.659519E-17	8.477390E-18
3.000475E+03	2.556158E-17	8.147821E-18
3.010378E+03	2.456350E-17	7.829585E-18
3.020280E+03	2.360024E-17	7.522456E-18
3.030183E+03	2.267156E-17	7.226352E-18
3.040086E+03	2.177643E-17	6.940952E-18
3.049988E+03	2.091582E-17	6.666556E-18
3.059891E+03	2.008908E-17	6.402967E-18
3.069793E+03	1.929531E-17	6.149891E-18
3.079696E+03	1.853324E-17	5.906921E-18
3.089598E+03	1.780203E-17	5.673798E-18
3.099501E+03	1.710050E-17	5.450137E-18
3.109403E+03	1.642755E-17	5.235588E-18
3.119306E+03	1.578242E-17	5.029914E-18
3.129209E+03	1.516380E-17	4.832693E-18
3.139111E+03	1.457127E-17	4.643792E-18
3.149014E+03	1.400360E-17	4.462815E-18
3.158916E+03	1.346011E-17	4.289552E-18
3.168819E+03	1.293991E-17	4.123712E-18
3.178721E+03	1.244213E-17	3.965023E-18
3.188624E+03	1.196612E-17	3.813277E-18
3.198526E+03	1.151107E-17	3.668212E-18
3.208429E+03	1.107598E-17	3.529513E-18
3.218332E+03	1.066063E-17	3.397106E-18
3.228234E+03	1.026371E-17	3.270577E-18
3.238137E+03	9.885000E-18	3.149853E-18
3.248039E+03	9.523457E-18	3.034602E-18
3.257942E+03	9.178544E-18	2.924654E-18
3.267844E+03	8.849724E-18	2.819836E-18
3.277747E+03	8.536070E-18	2.719854E-18
3.287650E+03	8.237219E-18	2.624591E-18
3.297552E+03	7.952545E-18	2.533847E-18
3.307455E+03	7.681340E-18	2.447398E-18
3.317357E+03	7.423040E-18	2.365063E-18
3.327260E+03	7.177105E-18	2.286669E-18
3.337162E+03	6.943103E-18	2.212079E-18
3.347065E+03	6.720342E-18	2.141073E-18
3.356967E+03	6.508520E-18	2.073554E-18
3.366870E+03	6.306996E-18	2.009318E-18
3.376773E+03	6.115333E-18	1.948225E-18
3.386675E+03	5.933188E-18	1.890166E-18
3.396578E+03	5.759933E-18	1.834941E-18
3.406480E+03	5.595335E-18	1.782475E-18
3.416383E+03	5.438956E-18	1.732630E-18
3.426285E+03	5.290263E-18	1.685233E-18
3.436188E+03	5.149060E-18	1.640225E-18
3.446090E+03	5.014865E-18	1.597450E-18
3.455993E+03	4.887396E-18	1.556818E-18
3.465896E+03	4.766328E-18	1.518227E-18
3.475798E+03	4.651204E-18	1.481530E-18
3.485701E+03	4.541804E-18	1.446658E-18
3.495603E+03	4.437772E-18	1.413496E-18
3.505506E+03	4.338781E-18	1.381941E-18
3.515408E+03	4.244569E-18	1.351910E-18
3.525311E+03	4.154813E-18	1.323298E-18
3.535213E+03	4.069250E-18	1.296022E-18
3.545116E+03	3.987599E-18	1.269993E-18
3.555019E+03	3.909677E-18	1.245153E-18
3.564921E+03	3.835273E-18	1.221434E-18
3.574824E+03	3.764154E-18	1.198762E-18
3.584726E+03	3.696172E-18	1.177089E-18
3.594629E+03	3.631184E-18	1.156371E-18
3.604531E+03	3.568992E-18	1.136543E-18
3.614434E+03	3.509564E-18	1.117597E-18
3.624337E+03	3.452712E-18	1.099471E-18
3.634239E+03	3.398377E-18	1.082147E-18
3.644142E+03	3.346470E-18	1.065597E-18
3.654044E+03	3.296906E-18	1.049794E-18
3.663947E+03	3.249626E-18	1.034718E-18
3.673849E+03	3.204596E-18	1.020359E-18
3.683752E+03	3.161678E-18	1.006673E-18
3.693654E+03	3.120893E-18	9.936668E-19
3.703557E+03	3.082126E-18	9.813033E-19
3.713460E+03	3.045347E-18	9.695733E-19
3.723362E+03	3.010522E-18	9.584654E-19
3.733265E+03	2.977541E-18	9.479449E-19
3.743167E+03	2.946420E-18	9.380171E-19
3.753070E+03	2.917077E-18	9.286551E-19
3.762972E+03	2.889478E-18	9.198490E-19
3.772875E+03	2.863565E-18	9.115798E-19
3.782777E+03	2.839309E-18	9.038381E-19
3.792680E+03	2.816650E-18	8.966053E-19
3.802583E+03	2.795562E-18	8.898724E-19
3.812485E+03	2.775988E-18	8.836218E-19
3.822388E+03	2.757923E-18	8.778517E-19
3.832290E+03	2.741314E-18	8.725449E-19
3.842193E+03	2.726110E-18	8.676857E-19
3.852095E+03	2.712287E-18	8.632658E-19
3.861998E+03	2.699795E-18	8.592698E-19
3.871900E+03	2.688630E-18	8.556962E-19
3.881803E+03	2.678748E-18	8.525309E-19
3.891706E+03	2.670123E-18	8.497657E-19
3.901608E+03	2.662714E-18	8.473872E-19
3.911511E+03	2.656476E-18	8.453816E-19
3.921413E+03	2.651432E-18	8.437559E-19
3.931316E+03	2.647500E-18	8.424838E-19
3.941218E+03	2.644680E-18	8.415657E-19
3.951121E+03	2.642935E-18	8.409894E-19
3.961024E+03	2.642248E-18	8.407498E-19
3.970926E+03	2.642602E-18	8.408411E-19
3.980829E+03	2.643941E-18	8.412456E-19
3.990731E+03	2.646272E-18	8.419656E-19
4.000634E+03	2.649558E-18	8.429896E-19
4.010536E+03	2.653790E-18	8.443140E-19
4.020439E+03	2.658932E-18	8.459276E-19
4.030341E+03	2.664954E-18	8.478212E-19
4.040244E+03	2.671866E-18	8.499975E-19
4.050147E+03	2.679616E-18	8.524402E-19
4.060049E+03	2.688194E-18	8.551461E-19
4.069952E+03	2.697594E-18	8.581130E-19
4.079854E+03	2.707764E-18	8.613245E-19
4.089757E+03	2.718720E-18	8.647858E-19
4.099659E+03	2.730411E-18	8.684807E-19
4.109562E+03	2.742833E-18	8.724073E-19
4.119464E+03	2.755979E-18	8.765641E-19
4.129367E+03	2.769804E-18	8.809361E-19
4.139270E+03	2.784321E-18	8.855281E-19
4.149172E+03	2.799466E-18	8.903193E-19
4.159075E+03	2.815275E-18	8.953213E-19
4.168977E+03	2.831682E-18	9.005129E-19
4.178880E+03	2.848684E-18	9.058932E-19
4.188782E+03	2.866255E-18	9.114539E-19
4.198685E+03	2.884394E-18	9.171949E-19
4.208587E+03	2.903034E-18	9.230943E-19
4.218490E+03	2.922191E-18	9.291580E-19
4.228393E+03	2.941823E-18	9.353718E-19
4.238295E+03	2.961878E-18	9.417198E-19
4.248198E+03	2.982358E-18	9.482020E-19
4.258100E+03	3.003233E-18	9.548095E-19
4.268003E+03	3.024435E-18	9.615201E-19
4.277905E+03	3.045935E-18	9.683249E-19
4.287808E+03	3.067705E-18	9.752149E-19
4.297711E+03	3.089718E-18	9.821815E-19
4.307613E+03	3.111945E-18	9.892156E-19
4.317516E+03	3.134383E-18	9.963161E-19
4.327418E+03	3.157004E-18	1.003474E-18
4.337321E+03	3.179777E-18	1.010679E-18
4.347223E+03	3.202751E-18	1.017948E-18
4.357126E+03	3.225898E-18	1.025271E-18
4.367028E+03	3.249215E-18	1.032647E-18
4.376931E+03	3.272729E-18	1.040086E-18
4.386834E+03	3.296441E-18	1.047586E-18
4.396736E+03	3.320325E-18	1.055140E-18
4.406639E+03	3.344410E-18	1.062757E-18
4.416541E+03	3.368672E-18	1.070430E-18
4.426444E+03	3.393117E-18	1.078160E-18
4.436346E+03	3.417747E-18	1.085949E-18
4.446249E+03	3.442516E-18	1.093780E-18
4.456151E+03	3.467455E-18	1.101665E-18
4.466054E+03	3.492546E-18	1.109597E-18
4.475957E+03	3.517768E-18	1.117570E-18
4.485859E+03	3.543131E-18	1.125587E-18
4.495762E+03	3.568586E-18	1.133632E-18
4.505664E+03	3.594144E-18	1.141709E-18
4.515567E+03	3.619819E-18	1.149823E-18
4.525469E+03	3.645596E-18	1.157968E-18
4.535372E+03	3.671424E-18	1.166128E-18
4.545274E+03	3.697323E-18	1.174310E-18
4.555177E+03	3.723277E-18	1.182508E-18
4.565080E+03	3.749273E-18	1.190719E-18
4.574982E+03	3.775330E-18	1.198948E-18
4.584885E+03	3.801406E-18	1.207183E-18
4.594787E+03	3.827520E-18	1.215428E-18
4.604690E+03	3.853665E-18	1.223683E-18
4.614592E+03	3.879832E-18	1.231943E-18
4.624495E+03	3.906012E-18	1.240206E-18
4.634398E+03	3.932197E-18	1.248470E-18
4.644300E+03	3.958385E-18	1.256734E-18
4.654203E+03	3.984635E-18	1.265017E-18
4.664105E+03	4.010949E-18	1.273319E-18
4.674008E+03	4.037323E-18	1.281639E-18
4.683910E+03	4.063829E-18	1.290000E-18
4.693813E+03	4.090431E-18	1.298390E-18
4.703715E+03	4.117133E-18	1.306811E-18
4.713618E+03	4.143973E-18	1.315275E-18
4.723521E+03	4.170956E-18	1.323783E-18
4.733423E+03	4.198048E-18	1.332324E-18
4.743326E+03	4.225293E-18	1.340913E-18
4.753228E+03	4.252697E-18	1.349551E-18
4.763131E+03	4.280227E-18	1.358228E-18
4.773033E+03	4.307929E-18	1.366958E-18
4.782936E+03	4.335813E-18	1.375745E-18
4.792838E+03	4.363886E-18	1.384591E-18
4.802741E+03	4.392156E-18	1.393498E-18
4.812644E+03	4.420595E-18	1.402457E-18
4.822546E+03	4.449291E-18	1.411497E-18
4.832449E+03	4.478174E-18	1.420595E-18
4.842351E+03	4.507251E-18	1.429753E-18
4.852254E+03	4.536577E-18	1.438989E-18
4.862156E+03	4.566161E-18	1.448305E-18
4.872059E+03	4.596013E-18	1.457705E-18
4.881961E+03	4.626059E-18	1.467165E-18
4.891864E+03	4.656392E-18	1.476715E-18
4.901767E+03	4.686980E-18	1.486344E-18
4.911669E+03	4.717831E-18	1.496055E-18
4.921572E+03	4.748952E-18	1.505851E-18
4.931474E+03	4.780356E-18	1.515734E-18
4.941377E+03	4.811999E-18	1.525693E-18
4.951279E+03	4.843892E-18	1.535728E-18
4.961182E+03	4.876082E-18	1.545857E-18
4.971085E+03	4.908531E-18	1.556066E-18
4.980987E+03	4.941195E-18	1.566341E-18
4.990890E+03	4.974169E-18	1.576714E-18
5.000792E+03	5.007315E-18	1.587139E-18
5.010695E+03	5.040726E-18	1.597646E-18
5.020597E+03	5.074405E-18	1.608237E-18
5.030500E+03	5.108201E-18	1.618864E-18
5.040402E+03	5.142259E-18	1.629571E-18
5.050305E+03	5.176476E-18	1.640328E-18
5.060208E+03	5.210847E-18	1.651131E-18
5.070110E+03	5.245413E-18	1.661994E-18
5.080013E+03	5.280068E-18	1.672884E-18
5.089915E+03	5.314798E-18	1.683796E-18
5.099818E+03	5.349647E-18	1.694744E-18
5.109720E+03	5.384549E-18	1.705707E-18
5.119623E+03	5.419490E-18	1.716680E-18
5.129525E+03	5.454402E-18	1.727642E-18
5.139428E+03	5.489320E-18	1.738605E-18
5.149331E+03	5.524120E-18	1.749528E-18
5.159233E+03	5.558891E-18	1.760439E-18
5.169136E+03	5.593556E-18	1.771316E-18
5.179038E+03	5.628038E-18	1.782132E-18
5.188941E+03	5.662313E-18	1.792882E-18
5.198843E+03	5.696412E-18	1.803573E-18
5.208746E+03	5.730197E-18	1.814163E-18
5.218648E+03	5.763695E-18	1.824661E-18
5.228551E+03	5.796936E-18	1.835075E-18
5.238454E+03	5.829720E-18	1.845342E-18
5.248356E+03	5.862187E-18	1.855507E-18
5.258259E+03	5.894134E-18	1.865506E-18
5.268161E+03	5.925704E-18	1.875383E-18
5.278064E+03	5.956692E-18	1.885074E-18
5.287966E+03	5.987183E-18	1.894606E-18
5.297869E+03	6.017143E-18	1.903968E-18
5.307772E+03	6.046486E-18	1.913133E-18
5.317674E+03	6.075298E-18	1.922128E-18
5.327577E+03	6.103370E-18	1.930887E-18
5.337479E+03	6.130853E-18	1.939458E-18
5.347382E+03	6.157659E-18	1.947813E-18
5.357284E+03	6.183760E-18	1.955942E-18
5.367187E+03	6.209130E-18	1.963839E-18
5.377089E+03	6.233742E-18	1.971494E-18
5.386992E+03	6.257511E-18	1.978881E-18
5.396895E+03	6.280411E-18	1.985991E-18
5.406797E+03	6.302418E-18	1.992817E-18
5.416700E+03	6.323512E-18	1.999353E-18
5.426602E+03	6.343608E-18	2.005571E-18
5.436505E+03	6.362622E-18	2.011446E-18
5.446407E+03	6.380598E-18	2.016990E-18
5.456310E+03	6.397454E-18	2.022180E-18
5.466212E+03	6.413108E-18	2.026987E-18
5.476115E+03	6.427478E-18	2.031387E-18
5.486018E+03	6.440614E-18	2.035396E-18
5.495920E+03	6.452375E-18	2.038969E-18
5.505823E+03	6.462808E-18	2.042121E-18
5.515725E+03	6.471774E-18	2.044808E-18
5.525628E+03	6.479263E-18	2.047027E-18
5.535530E+03	6.485329E-18	2.048795E-18
5.545433E+03	6.489837E-18	2.050071E-18
5.555335E+03	6.492847E-18	2.050871E-18
5.565238E+03	6.494355E-18	2.051197E-18
5.575141E+03	6.494295E-18	2.051026E-18
5.585043E+03	6.492667E-18	2.050359E-18
5.594946E+03	6.489544E-18	2.049219E-18
5.604848E+03	6.484928E-18	2.047607E-18
5.614751E+03	6.478763E-18	2.045505E-18
5.624653E+03	6.471124E-18	2.042937E-18
5.634556E+03	6.462095E-18	2.039930E-18
5.644459E+03	6.451555E-18	2.036446E-18
5.654361E+03	6.439592E-18	2.032512E-18
5.664264E+03	6.426291E-18	2.028155E-18
5.674166E+03	6.411680E-18	2.023385E-18
5.684069E+03	6.395783E-18	2.018208E-18
5.693971E+03	6.378628E-18	2.012635E-18
5.703874E+03	6.360250E-18	2.006676E-18
5.713776E+03	6.340748E-18	2.000362E-18
5.723679E+03	6.320093E-18	1.993684E-18
5.733582E+03	6.298458E-18	1.986697E-18
5.743484E+03	6.275817E-18	1.979394E-18
5.753387E+03	6.252215E-18	1.971787E-18
5.763289E+03	6.227831E-18	1.963935E-18
5.773192E+03	6.202578E-18	1.955808E-18
5.783094E+03	6.176574E-18	1.947446E-18
5.792997E+03	6.149940E-18	1.938884E-18
5.802899E+03	6.122659E-18	1.930120E-18
5.812802E+03	6.094852E-18	1.921190E-18
5.822705E+03	6.066509E-18	1.912092E-18
5.832607E+03	6.037820E-18	1.902886E-18
5.842510E+03	6.008775E-18	1.893568E-18
5.852412E+03	5.979432E-18	1.884157E-18
5.862315E+03	5.949916E-18	1.874692E-18
5.872217E+03	5.920217E-18	1.865169E-18
5.882120E+03	5.890459E-18	1.855630E-18
5.892022E+03	5.860631E-18	1.846069E-18
5.901925E+03	5.830858E-18	1.836526E-18
5.911828E+03	5.801194E-18	1.827018E-18
5.921730E+03	5.771694E-18	1.817562E-18
5.931633E+03	5.742342E-18	1.808154E-18
5.941535E+03	5.713257E-18	1.798831E-18
5.951438E+03	5.684486E-18	1.789608E-18
5.961340E+03	5.656012E-18	1.780478E-18
5.971243E+03	5.627946E-18	1.771478E-18
5.981146E+03	5.600266E-18	1.762600E-18
5.991048E+03	5.572946E-18	1.753837E-18
6.000951E+03	5.546157E-18	1.745241E-18
6.010853E+03	5.519805E-18	1.736784E-18
6.020756E+03	5.493991E-18	1.728496E-18
6.030658E+03	5.468613E-18	1.720346E-18
6.040561E+03	5.443770E-18	1.712365E-18
6.050463E+03	5.419422E-18	1.704541E-18
6.060366E+03	5.395594E-18	1.696880E-18
6.070269E+03	5.372311E-18	1.689392E-18
6.080171E+03	5.349526E-18	1.682061E-18
6.090074E+03	5.327257E-18	1.674892E-18
6.099976E+03	5.305522E-18	1.667892E-18
6.109879E+03	5.284335E-18	1.661065E-18
6.119781E+03	5.263709E-18	1.654415E-18
6.129684E+03	5.243583E-18	1.647922E-18
6.139586E+03	5.224038E-18	1.641612E-18
6.149489E+03	5.205075E-18	1.635486E-18
6.159392E+03	5.186700E-18	1.629545E-18
6.169294E+03	5.168983E-18	1.623810E-18
6.179197E+03	5.151994E-18	1.618305E-18
6.189099E+03	5.135800E-18	1.613050E-18
6.199002E+03	5.120469E-18	1.608066E-18
6.208904E+03	5.106069E-18	1.603374E-18
6.218807E+03	5.092736E-18	1.599018E-18
6.228709E+03	5.080402E-18	1.594975E-18
6.238612E+03	5.069339E-18	1.591332E-18
6.248515E+03	5.059479E-18	1.588065E-18
6.258417E+03	5.050963E-18	1.585221E-18
6.268320E+03	5.043862E-18	1.582820E-18
6.278222E+03	5.038247E-18	1.580886E-18
6.288125E+03	5.034124E-18	1.579418E-18
6.298027E+03	5.031569E-18	1.578443E-18
6.307930E+03	5.030656E-18	1.577981E-18
6.317833E+03	5.031394E-18	1.578037E-18
6.327735E+03	5.033792E-18	1.578613E-18
6.337638E+03	5.037930E-18	1.579733E-18
6.347540E+03	5.043671E-18	1.581354E-18
6.357443E+03	5.051024E-18	1.583480E-18
6.367345E+03	5.059925E-18	1.586090E-18
6.377248E+03	5.070227E-18	1.589137E-18
6.387150E+03	5.082015E-18	1.592648E-18
6.397053E+03	5.095140E-18	1.596577E-18
6.406956E+03	5.109686E-18	1.600949E-18
6.416858E+03	5.125658E-18	1.605766E-18
6.426761E+03	5.142986E-18	1.611006E-18
6.436663E+03	5.161675E-18	1.616670E-18
6.446566E+03	5.181731E-18	1.622760E-18
6.456468E+03	5.203159E-18	1.629277E-18
6.466371E+03	5.225968E-18	1.636224E-18
6.476273E+03	5.250245E-18	1.643628E-18
6.486176E+03	5.275919E-18	1.651466E-18
6.496079E+03	5.302914E-18	1.659716E-18
6.505981E+03	5.331403E-18	1.668430E-18
6.515884E+03	5.361230E-18	1.677559E-18
6.525786E+03	5.392485E-18	1.687133E-18
6.535689E+03	5.425179E-18	1.697153E-18
6.545591E+03	5.459324E-18	1.707624E-18
6.555494E+03	5.494928E-18	1.718547E-18
6.565396E+03	5.531913E-18	1.729899E-18
6.575299E+03	5.570379E-18	1.741710E-18
6.585202E+03	5.610244E-18	1.753954E-18
6.595104E+03	5.651614E-18	1.766665E-18
6.605007E+03	5.694406E-18	1.779816E-18
6.614909E+03	5.738628E-18	1.793410E-18
6.624812E+03	5.784390E-18	1.807481E-18
6.634714E+03	5.831707E-18	1.822033E-18
6.644617E+03	5.880392E-18	1.837007E-18
6.654520E+03	5.930658E-18	1.852471E-18
6.664422E+03	5.982311E-18	1.868362E-18
6.674325E+03	6.035571E-18	1.884751E-18
6.684227E+03	6.090348E-18	1.901608E-18
6.694130E+03	6.146548E-18	1.918904E-18
6.704032E+03	6.204399E-18	1.936709E-18
6.713935E+03	6.263696E-18	1.954960E-18
6.723837E+03	6.324560E-18	1.973695E-18
6.733740E+03	6.387008E-18	1.992918E-18
6.743643E+03	6.451051E-18	2.012632E-18
6.753545E+03	6.516591E-18	2.032806E-18
6.763448E+03	6.583752E-18	2.053480E-18
6.773350E+03	6.652432E-18	2.074621E-18
6.783253E+03	6.722763E-18	2.096270E-18
6.793155E+03	6.794635E-18	2.118393E-18
6.803058E+03	6.868057E-18	2.140992E-18
6.812960E+03	6.943171E-18	2.164110E-18
6.822863E+03	7.019730E-18	2.187672E-18
6.832766E+03	7.098002E-18	2.211760E-18
6.842668E+03	7.177870E-18	2.236337E-18
6.852571E+03	7.259344E-18	2.261407E-18
6.862473E+03	7.342433E-18	2.286972E-18
6.872376E+03	7.427146E-18	2.313034E-18
6.882278E+03	7.513350E-18	2.339553E-18
6.892181E+03	7.601193E-18	2.366573E-18
6.902083E+03	7.690684E-18	2.394097E-18
6.911986E+03	7.781830E-18	2.422127E-18
6.921889E+03	7.874336E-18	2.450572E-18
6.931791E+03	7.968660E-18	2.479573E-18
6.941694E+03	8.064345E-18	2.508988E-18
6.951596E+03	8.161700E-18	2.538913E-18
6.961499E+03	8.260574E-18	2.569301E-18
6.971401E+03	8.360962E-18	2.600149E-18
6.981304E+03	8.462864E-18	2.631459E-18
6.991207E+03	8.566274E-18	2.663227E-18
7.001109E+03	8.671019E-18	2.695399E-18
7.011012E+03	8.777261E-18	2.728027E-18
7.020914E+03	8.884995E-18	2.761107E-18
7.030817E+03	8.994033E-18	2.794582E-18
7.040719E+03	9.104543E-18	2.828503E-18
7.050622E+03	9.216332E-18	2.862810E-18
7.060524E+03	9.329383E-18	2.897497E-18
7.070427E+03	9.443674E-18	2.932559E-18
7.080330E+03	9.559383E-18	2.968049E-18
7.090232E+03	9.676101E-18	3.003840E-18
7.100135E+03	9.793795E-18	3.039923E-18
7.110037E+03	9.912842E-18	3.076414E-18
7.119940E+03	1.003281E-17	3.113178E-18
7.129842E+03	1.015366E-17	3.150204E-18
7.139745E+03	1.027558E-17	3.187549E-18
7.149647E+03	1.039831E-17	3.225133E-18
7.159550E+03	1.052182E-17	3.262945E-18
7.169453E+03	1.064605E-17	3.300971E-18
7.179355E+03	1.077097E-17	3.339197E-18
7.189258E+03	1.089677E-17	3.377682E-18
7.199160E+03	1.102294E-17	3.416268E-18
7.209063E+03	1.114989E-17	3.455085E-18
7.218965E+03	1.127735E-17	3.494045E-18
7.228868E+03	1.140526E-17	3.533132E-18
7.238770E+03	1.153382E-17	3.572409E-18
7.248673E+03	1.166274E-17	3.611782E-18
7.258576E+03	1.179222E-17	3.651316E-18
7.268478E+03	1.192222E-17	3.690996E-18
7.278381E+03	1.205295E-17	3.730892E-18
7.288283E+03	1.218439E-17	3.770993E-18
7.298186E+03	1.231678E-17	3.811375E-18
7.308088E+03	1.244982E-17	3.851944E-18
7.317991E+03	1.258433E-17	3.892955E-18
7.327894E+03	1.272032E-17	3.934408E-18
7.337796E+03	1.285749E-17	3.976213E-18
7.347699E+03	1.299674E-17	4.018645E-18
7.357601E+03	1.313778E-17	4.061621E-18
7.367504E+03	1.328096E-17	4.105240E-18
7.377406E+03	1.342598E-17	4.149415E-18
7.387309E+03	1.357318E-17	4.194249E-18
7.397211E+03	1.372162E-17	4.239453E-18
7.407114E+03	1.387196E-17	4.285226E-18
7.417017E+03	1.402320E-17	4.331263E-18
7.426919E+03	1.417566E-17	4.377662E-18
7.436822E+03	1.432899E-17	4.424313E-18
7.446724E+03	1.448280E-17	4.471099E-18
7.456627E+03	1.463742E-17	4.518116E-18
7.466529E+03	1.479172E-17	4.565024E-18
7.476432E+03	1.494638E-17	4.612023E-18
7.486334E+03	1.510096E-17	4.658984E-18
7.496237E+03	1.525540E-17	4.705887E-18
7.506140E+03	1.540926E-17	4.752596E-18
7.516042E+03	1.556284E-17	4.799202E-18
7.525945E+03	1.571567E-17	4.845563E-18
7.535847E+03	1.586767E-17	4.891652E-18
7.545750E+03	1.601913E-17	4.937562E-18
7.555652E+03	1.616959E-17	4.983146E-18
7.565555E+03	1.631935E-17	5.028502E-18
7.575457E+03	1.646747E-17	5.073338E-18
7.585360E+03	1.661470E-17	5.117887E-18
7.595263E+03	1.676053E-17	5.161988E-18
7.605165E+03	1.690527E-17	5.205741E-18
7.615068E+03	1.704838E-17	5.248980E-18
7.624970E+03	1.718974E-17	5.291665E-18
7.634873E+03	1.732927E-17	5.333775E-18
7.644775E+03	1.746773E-17	5.375540E-18
7.654678E+03	1.760365E-17	5.416514E-18
7.664581E+03	1.773831E-17	5.457086E-18
7.674483E+03	1.787068E-17	5.496941E-18
7.684386E+03	1.800109E-17	5.536184E-18
