#wls	flux	fluxerr
1.584409E+03	4.368230E-17	8.561465E-17
1.624020E+03	4.341400E-17	8.531420E-17
1.663630E+03	4.298960E-17	8.470523E-17
1.703240E+03	4.239036E-17	8.374951E-17
1.742850E+03	4.163755E-17	8.248510E-17
1.782461E+03	4.069998E-17	8.084828E-17
1.822071E+03	3.957820E-17	7.883630E-17
1.861681E+03	3.823698E-17	7.637586E-17
1.901291E+03	3.668027E-17	7.347089E-17
1.940902E+03	3.488233E-17	7.006556E-17
1.980512E+03	3.288956E-17	6.624939E-17
2.020122E+03	3.075970E-17	6.213465E-17
2.059732E+03	2.865362E-17	5.804541E-17
2.099342E+03	2.675982E-17	5.436361E-17
2.138953E+03	2.527060E-17	5.148571E-17
2.178563E+03	2.424760E-17	4.954297E-17
2.218173E+03	2.362698E-17	4.841427E-17
2.257783E+03	2.321530E-17	4.770717E-17
2.297394E+03	2.286133E-17	4.711563E-17
2.337004E+03	2.244064E-17	4.638105E-17
2.376614E+03	2.190441E-17	4.540350E-17
2.416224E+03	2.122885E-17	4.412846E-17
2.455835E+03	2.043458E-17	4.259941E-17
2.495445E+03	1.953636E-17	4.084167E-17
2.535055E+03	1.856549E-17	3.892241E-17
2.574665E+03	1.753946E-17	3.687337E-17
2.614276E+03	1.648465E-17	3.475294E-17
2.653886E+03	1.541318E-17	3.258228E-17
2.693496E+03	1.434350E-17	3.040423E-17
2.733106E+03	1.328464E-17	2.823399E-17
2.772716E+03	1.224821E-17	2.610064E-17
2.812327E+03	1.123992E-17	2.401281E-17
2.851937E+03	1.026941E-17	2.199575E-17
2.891547E+03	9.342878E-18	2.005959E-17
2.931157E+03	8.468130E-18	1.822593E-17
2.964700E+03	4.730267E-17	1.020087E-16
2.977178E+03	4.695067E-17	1.013238E-16
2.994409E+03	4.641335E-17	1.002621E-16
2.997776E+03	4.635045E-17	1.001454E-16
2.998766E+03	4.636593E-17	1.001843E-16
3.003718E+03	4.623999E-17	9.993992E-17
3.006094E+03	4.618542E-17	9.983515E-17
3.010650E+03	4.606203E-17	9.959368E-17
3.013423E+03	4.599076E-17	9.945483E-17
3.013819E+03	4.600489E-17	9.948757E-17
3.015403E+03	4.598306E-17	9.944905E-17
3.018176E+03	4.591838E-17	9.932433E-17
3.018374E+03	4.594236E-17	9.937728E-17
3.018572E+03	4.594596E-17	9.938614E-17
3.018770E+03	4.594958E-17	9.939506E-17
3.021543E+03	4.586441E-17	9.922593E-17
3.021741E+03	4.586462E-17	9.922746E-17
3.022335E+03	4.584493E-17	9.918807E-17
3.023326E+03	4.583573E-17	9.917356E-17
3.024119E+03	4.580946E-17	9.912101E-17
3.026099E+03	4.573704E-17	9.897501E-17
3.026891E+03	4.570741E-17	9.891516E-17
3.027089E+03	4.569750E-17	9.889478E-17
3.027684E+03	4.567444E-17	9.884807E-17
3.027882E+03	4.565776E-17	9.881303E-17
3.028476E+03	4.564145E-17	9.878094E-17
3.029466E+03	4.561540E-17	9.872985E-17
3.030257E+03	4.556901E-17	9.863370E-17
3.031447E+03	4.550473E-17	9.850092E-17
3.032635E+03	4.545493E-17	9.839946E-17
3.032833E+03	4.542482E-17	9.833532E-17
3.033229E+03	4.538811E-17	9.825797E-17
3.034813E+03	4.532199E-17	9.812321E-17
3.035606E+03	4.527559E-17	9.802695E-17
3.036200E+03	4.522240E-17	9.791492E-17
3.036992E+03	4.517276E-17	9.781163E-17
3.037586E+03	4.511303E-17	9.768542E-17
3.038181E+03	4.505661E-17	9.756638E-17
3.039172E+03	4.498064E-17	9.740705E-17
3.039766E+03	4.491772E-17	9.727391E-17
3.040360E+03	4.485152E-17	9.713365E-17
3.040558E+03	4.479831E-17	9.701944E-17
3.043924E+03	4.464212E-17	9.669861E-17
3.044122E+03	4.458575E-17	9.657752E-17
3.044320E+03	4.452942E-17	9.645653E-17
3.044518E+03	4.447308E-17	9.633551E-17
3.045112E+03	4.440068E-17	9.618173E-17
3.045905E+03	4.431862E-17	9.600802E-17
3.046103E+03	4.425574E-17	9.587283E-17
3.046301E+03	4.419286E-17	9.573762E-17
3.047292E+03	4.410137E-17	9.554444E-17
3.048282E+03	4.400671E-17	9.534439E-17
3.049074E+03	4.391513E-17	9.514999E-17
3.049470E+03	4.383621E-17	9.498100E-17
3.050460E+03	4.373194E-17	9.476005E-17
3.050659E+03	4.364948E-17	9.458237E-17
3.050857E+03	4.356704E-17	9.440473E-17
3.051055E+03	4.348131E-17	9.421995E-17
3.051253E+03	4.339561E-17	9.403522E-17
3.051847E+03	4.329422E-17	9.381848E-17
3.052045E+03	4.320528E-17	9.362671E-17
3.052441E+03	4.310688E-17	9.341544E-17
3.052639E+03	4.301471E-17	9.321669E-17
3.053035E+03	4.291310E-17	9.299843E-17
3.054620E+03	4.277160E-17	9.269954E-17
3.054818E+03	4.267301E-17	9.248683E-17
3.055412E+03	4.256227E-17	9.224972E-17
3.055808E+03	4.246102E-17	9.203218E-17
3.056006E+03	4.235925E-17	9.181256E-17
3.056600E+03	4.224546E-17	9.156880E-17
3.056798E+03	4.213057E-17	9.132072E-17
3.056996E+03	4.202562E-17	9.109418E-17
3.058184E+03	4.189745E-17	9.082203E-17
3.058383E+03	4.178604E-17	9.058146E-17
3.058581E+03	4.168455E-17	9.036241E-17
3.060166E+03	4.153178E-17	9.003872E-17
3.060364E+03	4.142389E-17	8.980577E-17
3.060760E+03	4.130026E-17	8.953959E-17
3.060958E+03	4.117599E-17	8.927110E-17
3.061552E+03	4.103679E-17	8.897208E-17
3.062741E+03	4.087702E-17	8.863118E-17
3.062939E+03	4.075956E-17	8.837742E-17
3.063137E+03	4.062898E-17	8.809520E-17
3.063731E+03	4.051320E-17	8.784689E-17
3.063929E+03	4.037945E-17	8.755777E-17
3.064325E+03	4.025316E-17	8.728573E-17
3.064918E+03	4.011145E-17	8.698113E-17
3.065314E+03	3.996890E-17	8.667382E-17
3.065512E+03	3.982230E-17	8.635679E-17
3.066503E+03	3.967939E-17	8.605132E-17
3.066701E+03	3.954276E-17	8.575590E-17
3.066899E+03	3.939961E-17	8.544633E-17
3.067097E+03	3.924994E-17	8.512262E-17
3.067295E+03	3.911343E-17	8.482744E-17
3.067493E+03	3.896059E-17	8.449684E-17
3.067890E+03	3.879897E-17	8.414805E-17
3.068484E+03	3.863857E-17	8.380275E-17
3.068682E+03	3.847610E-17	8.345124E-17
3.069276E+03	3.831262E-17	8.309923E-17
3.069474E+03	3.816338E-17	8.277639E-17
3.069870E+03	3.800551E-17	8.243564E-17
3.070069E+03	3.785638E-17	8.211302E-17
3.071257E+03	3.766426E-17	8.170133E-17
3.071455E+03	3.749571E-17	8.133655E-17
3.071653E+03	3.732070E-17	8.095774E-17
3.072049E+03	3.714048E-17	8.056845E-17
3.072247E+03	3.696884E-17	8.019692E-17
3.073237E+03	3.676992E-17	7.976948E-17
3.073435E+03	3.659197E-17	7.938424E-17
3.073633E+03	3.641406E-17	7.899909E-17
3.073831E+03	3.623621E-17	7.861405E-17
3.075219E+03	3.602778E-17	7.816745E-17
3.075813E+03	3.584005E-17	7.776252E-17
3.076604E+03	3.564420E-17	7.734073E-17
3.076803E+03	3.546032E-17	7.694253E-17
3.078189E+03	3.524988E-17	7.649135E-17
3.078585E+03	3.506130E-17	7.608368E-17
3.078981E+03	3.486958E-17	7.566917E-17
3.079179E+03	3.468285E-17	7.526473E-17
3.079971E+03	3.448160E-17	7.483104E-17
3.080169E+03	3.429507E-17	7.442697E-17
3.080367E+03	3.411183E-17	7.403006E-17
3.080565E+03	3.392867E-17	7.363331E-17
3.080763E+03	3.373257E-17	7.320847E-17
3.080961E+03	3.353328E-17	7.277670E-17
3.081952E+03	3.332819E-17	7.233525E-17
3.082745E+03	3.311184E-17	7.186859E-17
3.083933E+03	3.289943E-17	7.141189E-17
3.084131E+03	3.271687E-17	7.101634E-17
3.084329E+03	3.252789E-17	7.060683E-17
3.085121E+03	3.231947E-17	7.015725E-17
3.085319E+03	3.211002E-17	6.970329E-17
3.086706E+03	3.187911E-17	6.920690E-17
3.087300E+03	3.166650E-17	6.874742E-17
3.087498E+03	3.146614E-17	6.831313E-17
3.088883E+03	3.124557E-17	6.783902E-17
3.090667E+03	3.099538E-17	6.730188E-17
3.090865E+03	3.079013E-17	6.685687E-17
3.091063E+03	3.057334E-17	6.638681E-17
3.093242E+03	3.032223E-17	6.584876E-17
3.094430E+03	3.008725E-17	6.534237E-17
3.094628E+03	2.987944E-17	6.489171E-17
3.095024E+03	2.966592E-17	6.442927E-17
3.095222E+03	2.945441E-17	6.397054E-17
3.096410E+03	2.922014E-17	6.346552E-17
3.096608E+03	2.900505E-17	6.299897E-17
3.097004E+03	2.878406E-17	6.252021E-17
3.098986E+03	2.852938E-17	6.197317E-17
3.099184E+03	2.830934E-17	6.149580E-17
3.099976E+03	2.807557E-17	6.099038E-17
3.100174E+03	2.785127E-17	6.050373E-17
3.100569E+03	2.762092E-17	6.000450E-17
3.101165E+03	2.738487E-17	5.949345E-17
3.101363E+03	2.716022E-17	5.900599E-17
3.101560E+03	2.692575E-17	5.849716E-17
3.102748E+03	2.667315E-17	5.795181E-17
3.103144E+03	2.645659E-17	5.748243E-17
3.103936E+03	2.621555E-17	5.696095E-17
3.104729E+03	2.596774E-17	5.642472E-17
3.104928E+03	2.573810E-17	5.592629E-17
3.105126E+03	2.552765E-17	5.546954E-17
3.105324E+03	2.529750E-17	5.496998E-17
3.105522E+03	2.506869E-17	5.447332E-17
3.106710E+03	2.481067E-17	5.391581E-17
3.106908E+03	2.457164E-17	5.339692E-17
3.109087E+03	2.429460E-17	5.280054E-17
3.109483E+03	2.406886E-17	5.231094E-17
3.110869E+03	2.380771E-17	5.174689E-17
3.111265E+03	2.356874E-17	5.122847E-17
3.112454E+03	2.332370E-17	5.069881E-17
3.113048E+03	2.307238E-17	5.015397E-17
3.113445E+03	2.283237E-17	4.963321E-17
3.113840E+03	2.259696E-17	4.912242E-17
3.114434E+03	2.236137E-17	4.861168E-17
3.115424E+03	2.211466E-17	4.807767E-17
3.115622E+03	2.188664E-17	4.758241E-17
3.116414E+03	2.164319E-17	4.705497E-17
3.116613E+03	2.142046E-17	4.657116E-17
3.117009E+03	2.119353E-17	4.607867E-17
3.117603E+03	2.095050E-17	4.555159E-17
3.118989E+03	2.069535E-17	4.499986E-17
3.119386E+03	2.044942E-17	4.446597E-17
3.120376E+03	2.021085E-17	4.394932E-17
3.120575E+03	1.996183E-17	4.340822E-17
3.121367E+03	1.971807E-17	4.287979E-17
3.121763E+03	1.948889E-17	4.238223E-17
3.121961E+03	1.925124E-17	4.186580E-17
3.122951E+03	1.899063E-17	4.130102E-17
3.123149E+03	1.877337E-17	4.082892E-17
3.123347E+03	1.853479E-17	4.031042E-17
3.123743E+03	1.827922E-17	3.975536E-17
3.125723E+03	1.803452E-17	3.922689E-17
3.126317E+03	1.778672E-17	3.868902E-17
3.128100E+03	1.752393E-17	3.812065E-17
3.130675E+03	1.724762E-17	3.752419E-17
3.130873E+03	1.700644E-17	3.699983E-17
3.131071E+03	1.678410E-17	3.651644E-17
3.131269E+03	1.653618E-17	3.597738E-17
3.132062E+03	1.628734E-17	3.543733E-17
3.132656E+03	1.605261E-17	3.492760E-17
3.133250E+03	1.580371E-17	3.438700E-17
3.133448E+03	1.555974E-17	3.385647E-17
3.133646E+03	1.531397E-17	3.332200E-17
3.134043E+03	1.508266E-17	3.281931E-17
3.134637E+03	1.483379E-17	3.227868E-17
3.135033E+03	1.459155E-17	3.175217E-17
3.135231E+03	1.434276E-17	3.121107E-17
3.135429E+03	1.411368E-17	3.071287E-17
3.135627E+03	1.387002E-17	3.018290E-17
3.136222E+03	1.362099E-17	2.964183E-17
3.136816E+03	1.338620E-17	2.913169E-17
3.137211E+03	1.315348E-17	2.862577E-17
3.137410E+03	1.291492E-17	2.810685E-17
3.138003E+03	1.266537E-17	2.756453E-17
3.138597E+03	1.242194E-17	2.703548E-17
3.138795E+03	1.217781E-17	2.650441E-17
3.140380E+03	1.194334E-17	2.599601E-17
3.141371E+03	1.171902E-17	2.550894E-17
3.141569E+03	1.148665E-17	2.500337E-17
3.141965E+03	1.126019E-17	2.451090E-17
3.142559E+03	1.103137E-17	2.401347E-17
3.142757E+03	1.079216E-17	2.349297E-17
3.143351E+03	1.055715E-17	2.298202E-17
3.143549E+03	1.031907E-17	2.246395E-17
3.143946E+03	1.009420E-17	2.197482E-17
3.144144E+03	9.869302E-18	2.148543E-17
3.144738E+03	9.634914E-18	2.097574E-17
3.145530E+03	9.410838E-18	2.048867E-17
3.146124E+03	9.175942E-18	1.997782E-17
3.146322E+03	8.946886E-18	1.947930E-17
3.146520E+03	8.718821E-18	1.898293E-17
3.147114E+03	8.497064E-18	1.850062E-17
3.147312E+03	8.269505E-18	1.800532E-17
3.147907E+03	8.048988E-18	1.752567E-17
3.148500E+03	7.840098E-18	1.707131E-17
3.148699E+03	7.627677E-18	1.660893E-17
3.149293E+03	7.422471E-18	1.616255E-17
3.149491E+03	7.201594E-18	1.568173E-17
3.149887E+03	6.978545E-18	1.519631E-17
3.152264E+03	6.758621E-18	1.471902E-17
3.152462E+03	6.560487E-18	1.428765E-17
3.153452E+03	6.358161E-18	1.384764E-17
3.154244E+03	6.150535E-18	1.339594E-17
3.154640E+03	5.942998E-18	1.294415E-17
3.155433E+03	5.733630E-18	1.248859E-17
3.155631E+03	5.525947E-18	1.203634E-17
3.155829E+03	5.319554E-18	1.158689E-17
3.156424E+03	5.113288E-18	1.113791E-17
3.157018E+03	4.908740E-18	1.069265E-17
3.157612E+03	4.705283E-18	1.024974E-17
3.158008E+03	4.504487E-18	9.812510E-18
3.158206E+03	4.305955E-18	9.380116E-18
3.158404E+03	4.109014E-18	8.951178E-18
3.158998E+03	3.912541E-18	8.523407E-18
3.159197E+03	3.719140E-18	8.102159E-18
3.159593E+03	3.527131E-18	7.684004E-18
3.159989E+03	3.336760E-18	7.269404E-18
3.160187E+03	3.149401E-18	6.861289E-18
3.160978E+03	2.962722E-18	6.454821E-18
3.161176E+03	2.779684E-18	6.056096E-18
3.161375E+03	2.598899E-18	5.662270E-18
3.161968E+03	2.419679E-18	5.271942E-18
3.162562E+03	2.242966E-18	4.887054E-18
3.162760E+03	2.069536E-18	4.509218E-18
3.163554E+03	1.897782E-18	4.135140E-18
3.163752E+03	1.729231E-18	3.767912E-18
3.164940E+03	1.561929E-18	3.403550E-18
3.165138E+03	1.411422E-18	3.075614E-18
3.166326E+03	1.247182E-18	2.717865E-18
3.166524E+03	1.093487E-18	2.382953E-18
3.166722E+03	9.360248E-19	2.039826E-18
3.166921E+03	7.783334E-19	1.696193E-18
3.167317E+03	6.303815E-19	1.373791E-18
3.167911E+03	4.978910E-19	1.085083E-18
3.168109E+03	3.460640E-19	7.542045E-19
3.168703E+03	1.983628E-19	4.323191E-19
3.169099E+03	5.263475E-20	1.147161E-19
3.169297E+03	-7.968642E-20	-1.736761E-19
3.169495E+03	-2.163970E-19	-4.716403E-19
3.170287E+03	-3.515076E-19	-7.661425E-19
3.170883E+03	-4.876054E-19	-1.062808E-18
3.171675E+03	-5.970328E-19	-1.301367E-18
3.172467E+03	-7.164757E-19	-1.561775E-18
3.172664E+03	-8.435809E-19	-1.838855E-18
3.172863E+03	-9.651541E-19	-2.103881E-18
3.173061E+03	-1.082656E-18	-2.360037E-18
3.173258E+03	-1.191354E-18	-2.597007E-18
3.173852E+03	-1.309989E-18	-2.855692E-18
3.174050E+03	-1.400940E-18	-3.053985E-18
3.174843E+03	-1.509617E-18	-3.291011E-18
3.175239E+03	-1.619939E-18	-3.531578E-18
3.175635E+03	-1.717684E-18	-3.744736E-18
3.175833E+03	-1.822603E-18	-3.973503E-18
3.176031E+03	-1.924432E-18	-4.195540E-18
3.176229E+03	-2.003218E-18	-4.367343E-18
3.176625E+03	-2.088400E-18	-4.553135E-18
3.176823E+03	-2.173151E-18	-4.737951E-18
3.177021E+03	-2.260390E-18	-4.928193E-18
3.177417E+03	-2.329564E-18	-5.079098E-18
3.177615E+03	-2.401738E-18	-5.236502E-18
3.177813E+03	-2.481876E-18	-5.411273E-18
3.178012E+03	-2.558511E-18	-5.578411E-18
3.178210E+03	-2.620308E-18	-5.713199E-18
3.178408E+03	-2.684144E-18	-5.852435E-18
3.178805E+03	-2.744270E-18	-5.983635E-18
3.179003E+03	-2.801500E-18	-6.108473E-18
3.179201E+03	-2.855482E-18	-6.226233E-18
3.179993E+03	-2.904774E-18	-6.333931E-18
3.180191E+03	-2.952180E-18	-6.437357E-18
3.180389E+03	-2.996070E-18	-6.533117E-18
3.180587E+03	-3.036295E-18	-6.620886E-18
3.180785E+03	-3.073278E-18	-6.701589E-18
3.181181E+03	-3.105879E-18	-6.772797E-18
3.181973E+03	-3.134534E-18	-6.835520E-18
3.182369E+03	-3.161660E-18	-6.894791E-18
3.182964E+03	-3.183187E-18	-6.941916E-18
3.183162E+03	-3.195379E-18	-6.968564E-18
3.183360E+03	-3.208168E-18	-6.996516E-18
3.183558E+03	-3.216437E-18	-7.014609E-18
3.184547E+03	-3.212299E-18	-7.005887E-18
3.184746E+03	-3.217247E-18	-7.016739E-18
3.185736E+03	-3.211604E-18	-7.004732E-18
3.185934E+03	-3.206328E-18	-6.993283E-18
3.186529E+03	-3.199219E-18	-6.977958E-18
3.186727E+03	-3.176818E-18	-6.929156E-18
3.186925E+03	-3.143609E-18	-6.856781E-18
3.187717E+03	-3.119559E-18	-6.804557E-18
3.187915E+03	-3.087582E-18	-6.734864E-18
3.188707E+03	-3.049778E-18	-6.652631E-18
3.188905E+03	-3.013333E-18	-6.573187E-18
3.189103E+03	-2.959379E-18	-6.455547E-18
3.189301E+03	-2.912129E-18	-6.352532E-18
3.190093E+03	-2.856089E-18	-6.230497E-18
3.191084E+03	-2.806203E-18	-6.121932E-18
3.191480E+03	-2.744719E-18	-5.987902E-18
3.192669E+03	-2.678678E-18	-5.844123E-18
3.192867E+03	-2.616665E-18	-5.708878E-18
3.193461E+03	-2.547675E-18	-5.558500E-18
3.194848E+03	-2.458956E-18	-5.365250E-18
3.195046E+03	-2.377272E-18	-5.187065E-18
3.195244E+03	-2.297254E-18	-5.012513E-18
3.195442E+03	-2.213497E-18	-4.829799E-18
3.195640E+03	-2.108957E-18	-4.601734E-18
3.195838E+03	-2.006507E-18	-4.378226E-18
3.196036E+03	-1.901461E-18	-4.149049E-18
3.197619E+03	-1.787901E-18	-3.901520E-18
3.197817E+03	-1.669344E-18	-3.642837E-18
3.198016E+03	-1.547752E-18	-3.377527E-18
3.198412E+03	-1.430157E-18	-3.120963E-18
3.198610E+03	-1.291347E-18	-2.818067E-18
3.198808E+03	-1.151505E-18	-2.512915E-18
3.199006E+03	-1.018404E-18	-2.222469E-18
3.199204E+03	-8.773621E-19	-1.914689E-18
3.199402E+03	-7.329979E-19	-1.599652E-18
3.199600E+03	-5.731084E-19	-1.250729E-18
3.200195E+03	-4.118649E-19	-8.988602E-19
3.200393E+03	-2.478294E-19	-5.408711E-19
3.201581E+03	-8.222013E-20	-1.794489E-19
3.201779E+03	9.476677E-20	2.068342E-19
3.201978E+03	2.698894E-19	5.890548E-19
3.202770E+03	4.506056E-19	9.835148E-19
3.202968E+03	6.397340E-19	1.396328E-18
3.203166E+03	8.441553E-19	1.842527E-18
3.204552E+03	1.043827E-18	2.278479E-18
3.205741E+03	1.253254E-18	2.735754E-18
3.206137E+03	1.470546E-18	3.210140E-18
3.206335E+03	1.695067E-18	3.700290E-18
3.206533E+03	1.916532E-18	4.183776E-18
3.206731E+03	2.143882E-18	4.680119E-18
3.206929E+03	2.376820E-18	5.188666E-18
3.207722E+03	2.613862E-18	5.706324E-18
3.207920E+03	2.862178E-18	6.248474E-18
3.208315E+03	3.120641E-18	6.812842E-18
3.208909E+03	3.374963E-18	7.368247E-18
3.209108E+03	3.640471E-18	7.947971E-18
3.209305E+03	3.913886E-18	8.544967E-18
3.210494E+03	4.188267E-18	9.144456E-18
3.210692E+03	4.474895E-18	9.770344E-18
3.210890E+03	4.761733E-18	1.039670E-17
3.211088E+03	5.057932E-18	1.104351E-17
3.212870E+03	5.352440E-18	1.168740E-17
3.213068E+03	5.666383E-18	1.237301E-17
3.213266E+03	5.980822E-18	1.305972E-17
3.213663E+03	6.299246E-18	1.375525E-17
3.214257E+03	6.627102E-18	1.447152E-17
3.214456E+03	6.963195E-18	1.520557E-17
3.214654E+03	7.312143E-18	1.596770E-17
3.214852E+03	7.665696E-18	1.673989E-17
3.215446E+03	8.014421E-18	1.750184E-17
3.215842E+03	8.372598E-18	1.828432E-17
3.216238E+03	8.737324E-18	1.908113E-17
3.216436E+03	9.111999E-18	1.989953E-17
3.216634E+03	9.489504E-18	2.072412E-17
3.217030E+03	9.870427E-18	2.155636E-17
3.217228E+03	1.026116E-17	2.240989E-17
3.217625E+03	1.066518E-17	2.329262E-17
3.218021E+03	1.107307E-17	2.418384E-17
3.218417E+03	9.630668E-18	2.103393E-17
3.219011E+03	8.291760E-18	1.811011E-17
3.219209E+03	8.381762E-18	1.830683E-17
3.219407E+03	8.636572E-18	1.886352E-17
3.219605E+03	6.851107E-18	1.496393E-17
3.219803E+03	6.833670E-18	1.492596E-17
3.220001E+03	7.073643E-18	1.545023E-17
3.220198E+03	7.290394E-18	1.592378E-17
3.220594E+03	6.894090E-18	1.505841E-17
3.220792E+03	6.687091E-18	1.460639E-17
3.220991E+03	6.652697E-18	1.453138E-17
3.221189E+03	6.765070E-18	1.477695E-17
3.221387E+03	6.676792E-18	1.458424E-17
3.221586E+03	6.573016E-18	1.435768E-17
3.222180E+03	6.666678E-18	1.456261E-17
3.222576E+03	6.359215E-18	1.389121E-17
3.223566E+03	6.215315E-18	1.357742E-17
3.223962E+03	5.906549E-18	1.290312E-17
3.224160E+03	5.770064E-18	1.260506E-17
3.224556E+03	5.724522E-18	1.250577E-17
3.225151E+03	5.854847E-18	1.279078E-17
3.225745E+03	6.003735E-18	1.311636E-17
3.225943E+03	6.083689E-18	1.329114E-17
3.226339E+03	6.181083E-18	1.350413E-17
3.226537E+03	6.333617E-18	1.383749E-17
3.226933E+03	6.105702E-18	1.333976E-17
3.227527E+03	6.091604E-18	1.330927E-17
3.227725E+03	5.819040E-18	1.271385E-17
3.227923E+03	5.824294E-18	1.272543E-17
3.228121E+03	5.767187E-18	1.260076E-17
3.228319E+03	5.754383E-18	1.257288E-17
3.228517E+03	5.792558E-18	1.265639E-17
3.229113E+03	5.763757E-18	1.259376E-17
3.229509E+03	5.836266E-18	1.275239E-17
3.229707E+03	5.955885E-18	1.301386E-17
3.230697E+03	5.742050E-18	1.254711E-17
3.230895E+03	5.593184E-18	1.222192E-17
3.231093E+03	5.504256E-18	1.202769E-17
3.231291E+03	5.203435E-18	1.137044E-17
3.231489E+03	5.092794E-18	1.112875E-17
3.231687E+03	5.031876E-18	1.099572E-17
3.232875E+03	5.111863E-18	1.117103E-17
3.233074E+03	5.017615E-18	1.096515E-17
3.233469E+03	5.007123E-18	1.094239E-17
3.233667E+03	5.035391E-18	1.100426E-17
3.233865E+03	5.023322E-18	1.097796E-17
3.234063E+03	4.975578E-18	1.087371E-17
3.234459E+03	4.860698E-18	1.062281E-17
3.234657E+03	4.916512E-18	1.074487E-17
3.234855E+03	4.955206E-18	1.082952E-17
3.235053E+03	4.930984E-18	1.077667E-17
3.235251E+03	4.929087E-18	1.077261E-17
3.236242E+03	4.709055E-18	1.029212E-17
3.236638E+03	4.704748E-18	1.028286E-17
3.236837E+03	4.761940E-18	1.040794E-17
3.237035E+03	4.727363E-18	1.033245E-17
3.237431E+03	4.577797E-18	1.000570E-17
3.237629E+03	4.597652E-18	1.004918E-17
3.238421E+03	4.625255E-18	1.010982E-17
3.238619E+03	4.624561E-18	1.010838E-17
3.238817E+03	4.658553E-18	1.018276E-17
3.239411E+03	4.681880E-18	1.023398E-17
3.239609E+03	4.680598E-18	1.023126E-17
3.240798E+03	4.698319E-18	1.027046E-17
3.241590E+03	4.720589E-18	1.031946E-17
3.241788E+03	4.672871E-18	1.021522E-17
3.242184E+03	4.505976E-18	9.850529E-18
3.242382E+03	4.474743E-18	9.782324E-18
3.242976E+03	4.388878E-18	9.594831E-18
3.243373E+03	4.364221E-18	9.541072E-18
3.243967E+03	4.405439E-18	9.631401E-18
3.244165E+03	4.399306E-18	9.618065E-18
3.244760E+03	4.441058E-18	9.709565E-18
3.245156E+03	4.460720E-18	9.752700E-18
3.245551E+03	4.340612E-18	9.490244E-18
3.245947E+03	4.356841E-18	9.525871E-18
