#wls	flux	fluxerr
1.584409E+03	1.198985E-18	5.055186E-18
1.624020E+03	9.478426E-19	4.132094E-18
1.663630E+03	7.366750E-19	3.326054E-18
1.703240E+03	5.611615E-19	2.628635E-18
1.742850E+03	4.187621E-19	2.039193E-18
1.782461E+03	3.050007E-19	1.547192E-18
1.822071E+03	2.162975E-19	1.145788E-18
1.861681E+03	1.487258E-19	8.247651E-19
1.901291E+03	9.862907E-20	5.743317E-19
1.940902E+03	6.280448E-20	3.852022E-19
1.980512E+03	3.804596E-20	2.467385E-19
2.020122E+03	2.184778E-20	1.503975E-19
2.059732E+03	1.171893E-20	8.606872E-20
2.099342E+03	5.846048E-21	4.604039E-20
2.138953E+03	2.607773E-21	2.217612E-20
2.178563E+03	9.863966E-22	9.120719E-21
2.218173E+03	2.310076E-22	2.345752E-21
2.257783E+03	-4.693408E-23	-5.287806E-22
2.297394E+03	-1.090287E-22	-1.383840E-21
2.337004E+03	-8.287698E-23	-1.204981E-21
2.376614E+03	-4.325762E-23	-7.396023E-22
2.416224E+03	-1.563920E-23	-3.246250E-22
2.455835E+03	-3.412119E-24	-9.087520E-23
2.495445E+03	-2.694022E-25	-1.000879E-23
2.535055E+03	4.113878E-27	2.582751E-25
2.574665E+03	-2.482039E-28	-5.004022E-26
2.614276E+03	1.250533E-25	-1.950336E-23
2.653886E+03	2.612788E-24	-1.473005E-22
2.693496E+03	1.634654E-23	-5.537221E-22
2.733106E+03	5.775372E-23	-1.400851E-21
2.772716E+03	1.567957E-22	-2.933275E-21
2.812327E+03	3.359878E-22	-5.124386E-21
2.851937E+03	6.430973E-22	-8.216117E-21
2.891547E+03	1.063414E-21	-1.170909E-20
2.931157E+03	1.655374E-21	-1.590978E-20
2.967758E+03	3.902980E-20	-3.356027E-19
2.968352E+03	3.919359E-20	-3.364202E-19
2.969144E+03	3.941795E-20	-3.375710E-19
2.969343E+03	3.941316E-20	-3.373355E-19
2.969739E+03	3.948185E-20	-3.375396E-19
2.986574E+03	4.607135E-20	-3.755121E-19
2.990338E+03	4.752339E-20	-3.833316E-19
2.990536E+03	4.751656E-20	-3.830669E-19
2.990932E+03	4.758467E-20	-3.831979E-19
2.991724E+03	4.782057E-20	-3.842590E-19
2.992319E+03	4.796963E-20	-3.848285E-19
2.993308E+03	4.827568E-20	-3.862344E-19
2.993903E+03	4.842514E-20	-3.867997E-19
2.994497E+03	4.857903E-20	-3.873991E-19
2.995091E+03	4.872033E-20	-3.878962E-19
2.995289E+03	4.869415E-20	-3.874784E-19
2.995487E+03	4.866530E-20	-3.870400E-19
2.997270E+03	4.930163E-20	-3.902039E-19
2.997468E+03	4.927905E-20	-3.898157E-19
2.999052E+03	4.983192E-20	-3.925005E-19
2.999845E+03	5.004955E-20	-3.933719E-19
3.000242E+03	5.009564E-20	-3.933123E-19
3.001232E+03	5.039146E-20	-3.945817E-19
3.003212E+03	5.111427E-20	-3.981170E-19
3.003410E+03	5.108107E-20	-3.976474E-19
3.003807E+03	5.111905E-20	-3.975211E-19
3.004796E+03	5.141603E-20	-3.987746E-19
3.005390E+03	5.155010E-20	-3.991805E-19
3.005589E+03	5.150122E-20	-3.985905E-19
3.006381E+03	5.170483E-20	-3.993226E-19
3.007768E+03	5.214267E-20	-4.012235E-19
3.008560E+03	5.234433E-20	-4.019293E-19
3.009946E+03	5.279707E-20	-4.039247E-19
3.014106E+03	5.443625E-20	-4.119299E-19
3.014898E+03	5.463249E-20	-4.125616E-19
3.021038E+03	5.712985E-20	-4.245917E-19
3.037676E+03	6.414945E-20	-4.571709E-19
3.049758E+03	6.954972E-20	-4.809683E-19
3.059067E+03	7.354886E-20	-4.973258E-19
3.062039E+03	7.471069E-20	-5.015882E-19
3.065404E+03	7.600049E-20	-5.061840E-19
3.065603E+03	7.584862E-20	-5.049340E-19
3.065801E+03	7.570990E-20	-5.037755E-19
3.065999E+03	7.555941E-20	-5.025385E-19
3.067386E+03	7.595763E-20	-5.035339E-19
3.067584E+03	7.579739E-20	-5.022367E-19
3.067980E+03	7.571952E-20	-5.012523E-19
3.068178E+03	7.555884E-20	-4.999552E-19
3.070159E+03	7.618211E-20	-5.017365E-19
3.070357E+03	7.601550E-20	-5.004062E-19
3.071347E+03	7.620771E-20	-5.005081E-19
3.071743E+03	7.614697E-20	-4.996451E-19
3.072139E+03	7.606274E-20	-4.986301E-19
3.072535E+03	7.599222E-20	-4.977064E-19
3.073725E+03	7.627670E-20	-4.981845E-19
3.074517E+03	7.635278E-20	-4.977606E-19
3.075903E+03	7.668193E-20	-4.982965E-19
3.076101E+03	7.651164E-20	-4.969610E-19
3.076695E+03	7.650493E-20	-4.962324E-19
3.076892E+03	7.631733E-20	-4.947892E-19
3.077090E+03	7.613441E-20	-4.933766E-19
3.077289E+03	7.595763E-20	-4.920038E-19
3.077883E+03	7.594353E-20	-4.912372E-19
3.078477E+03	7.592354E-20	-4.904327E-19
3.078675E+03	7.573432E-20	-4.889865E-19
3.079864E+03	7.596322E-20	-4.891186E-19
3.080062E+03	7.577008E-20	-4.876521E-19
3.080260E+03	7.557895E-20	-4.861998E-19
3.080656E+03	7.547177E-20	-4.850672E-19
3.080854E+03	7.527914E-20	-4.836084E-19
3.081052E+03	7.507812E-20	-4.820970E-19
3.081250E+03	7.487528E-20	-4.805753E-19
3.082241E+03	7.499325E-20	-4.802376E-19
3.082637E+03	7.487632E-20	-4.790525E-19
3.083033E+03	7.474722E-20	-4.777920E-19
3.083627E+03	7.469692E-20	-4.768200E-19
3.083825E+03	7.448957E-20	-4.752806E-19
3.084221E+03	7.436074E-20	-4.740283E-19
3.084419E+03	7.417270E-20	-4.726152E-19
3.084617E+03	7.397760E-20	-4.711584E-19
3.084815E+03	7.376617E-20	-4.695990E-19
3.085213E+03	7.364280E-20	-4.683880E-19
3.085609E+03	7.350712E-20	-4.671021E-19
3.086005E+03	7.336519E-20	-4.657785E-19
3.086203E+03	7.317132E-20	-4.643377E-19
3.086401E+03	7.296115E-20	-4.627948E-19
3.086599E+03	7.274240E-20	-4.611989E-19
3.086797E+03	7.252311E-20	-4.596009E-19
3.086995E+03	7.230830E-20	-4.580329E-19
3.087589E+03	7.224987E-20	-4.570436E-19
3.087787E+03	7.203056E-20	-4.554510E-19
3.088381E+03	7.195691E-20	-4.543707E-19
3.088578E+03	7.173937E-20	-4.527941E-19
3.088777E+03	7.152467E-20	-4.512349E-19
3.088974E+03	7.129657E-20	-4.495945E-19
3.089173E+03	7.108828E-20	-4.480794E-19
3.089767E+03	7.101938E-20	-4.470420E-19
3.089965E+03	7.078922E-20	-4.453931E-19
3.090163E+03	7.055830E-20	-4.437409E-19
3.090361E+03	7.033892E-20	-4.421627E-19
3.090559E+03	7.010404E-20	-4.404885E-19
3.090757E+03	6.987533E-20	-4.388546E-19
3.090955E+03	6.963921E-20	-4.371756E-19
3.091153E+03	6.941190E-20	-4.355533E-19
3.091352E+03	6.917749E-20	-4.338870E-19
3.091946E+03	6.907762E-20	-4.326789E-19
3.092144E+03	6.883957E-20	-4.309950E-19
3.092540E+03	6.867273E-20	-4.295659E-19
3.092738E+03	6.843175E-20	-4.278673E-19
3.092937E+03	6.819159E-20	-4.261751E-19
3.093135E+03	6.796431E-20	-4.245650E-19
3.093333E+03	6.772288E-20	-4.228679E-19
3.093531E+03	6.748753E-20	-4.212103E-19
3.093927E+03	6.731866E-20	-4.197815E-19
3.094125E+03	6.708041E-20	-4.181094E-19
3.094323E+03	6.684978E-20	-4.164861E-19
3.094521E+03	6.660479E-20	-4.147749E-19
3.094719E+03	6.636886E-20	-4.131216E-19
3.094917E+03	6.612671E-20	-4.114310E-19
3.095115E+03	6.588128E-20	-4.097215E-19
3.095313E+03	6.563097E-20	-4.079832E-19
3.095709E+03	6.544585E-20	-4.064706E-19
3.095907E+03	6.519676E-20	-4.047436E-19
3.096105E+03	6.494569E-20	-4.030057E-19
3.096303E+03	6.469528E-20	-4.012736E-19
3.096501E+03	6.444297E-20	-3.995311E-19
3.096699E+03	6.418992E-20	-3.977856E-19
3.096898E+03	6.393629E-20	-3.960380E-19
3.097096E+03	6.368060E-20	-3.942792E-19
3.097295E+03	6.342463E-20	-3.925193E-19
3.097493E+03	6.316903E-20	-3.907642E-19
3.097691E+03	6.291152E-20	-3.889987E-19
3.097889E+03	6.265327E-20	-3.872303E-19
3.098087E+03	6.239444E-20	-3.854598E-19
3.098285E+03	6.213353E-20	-3.836780E-19
3.098483E+03	6.188182E-20	-3.819545E-19
3.098681E+03	6.162524E-20	-3.802026E-19
3.098879E+03	6.137090E-20	-3.784659E-19
3.099077E+03	6.111445E-20	-3.767178E-19
3.099275E+03	6.085886E-20	-3.749765E-19
3.099473E+03	6.060960E-20	-3.732757E-19
3.099671E+03	6.034575E-20	-3.714865E-19
3.099869E+03	6.008121E-20	-3.696947E-19
3.100067E+03	5.981891E-20	-3.679182E-19
3.100265E+03	5.956153E-20	-3.661735E-19
3.100463E+03	5.929797E-20	-3.643924E-19
3.100661E+03	5.903346E-20	-3.626078E-19
3.100860E+03	5.876609E-20	-3.608056E-19
3.101058E+03	5.850063E-20	-3.590175E-19
3.101255E+03	5.824280E-20	-3.572785E-19
3.101454E+03	5.798623E-20	-3.555472E-19
3.101651E+03	5.772010E-20	-3.537603E-19
3.101849E+03	5.744926E-20	-3.519454E-19
3.102047E+03	5.718499E-20	-3.501723E-19
3.102245E+03	5.691294E-20	-3.483532E-19
3.102443E+03	5.665027E-20	-3.465929E-19
3.102641E+03	5.637838E-20	-3.447779E-19
3.102839E+03	5.612590E-20	-3.430831E-19
3.103037E+03	5.585990E-20	-3.413071E-19
3.103235E+03	5.559192E-20	-3.395206E-19
3.103434E+03	5.532643E-20	-3.377501E-19
3.103632E+03	5.506296E-20	-3.359942E-19
3.103830E+03	5.478594E-20	-3.341571E-19
3.104028E+03	5.451554E-20	-3.323621E-19
3.104226E+03	5.424156E-20	-3.305468E-19
3.104424E+03	5.397423E-20	-3.287735E-19
3.104623E+03	5.369906E-20	-3.269541E-19
3.104821E+03	5.342332E-20	-3.251327E-19
3.105019E+03	5.316130E-20	-3.233964E-19
3.105217E+03	5.289300E-20	-3.216235E-19
3.105415E+03	5.262116E-20	-3.198306E-19
3.105613E+03	5.234588E-20	-3.180182E-19
3.105811E+03	5.207140E-20	-3.162124E-19
3.106009E+03	5.179199E-20	-3.143781E-19
3.106207E+03	5.152062E-20	-3.125943E-19
3.106405E+03	5.125013E-20	-3.108173E-19
3.106603E+03	5.098485E-20	-3.090735E-19
3.106801E+03	5.070593E-20	-3.072484E-19
3.106999E+03	5.042782E-20	-3.054299E-19
3.107197E+03	5.016082E-20	-3.036802E-19
3.107395E+03	4.988878E-20	-3.019015E-19
3.107593E+03	4.961184E-20	-3.000948E-19
3.107791E+03	4.934159E-20	-2.983300E-19
3.107989E+03	4.906197E-20	-2.965101E-19
3.108187E+03	4.879347E-20	-2.947590E-19
3.108385E+03	4.852001E-20	-2.929794E-19
3.108584E+03	4.824006E-20	-2.911622E-19
3.108782E+03	4.797129E-20	-2.894140E-19
3.108980E+03	4.769021E-20	-2.875931E-19
3.109178E+03	4.741296E-20	-2.857968E-19
3.109377E+03	4.713822E-20	-2.840166E-19
3.109575E+03	4.686419E-20	-2.822429E-19
3.109773E+03	4.658221E-20	-2.804228E-19
3.109971E+03	4.630410E-20	-2.786275E-19
3.110169E+03	4.602831E-20	-2.768478E-19
3.110367E+03	4.575051E-20	-2.750575E-19
3.110565E+03	4.547505E-20	-2.732828E-19
3.110763E+03	4.519907E-20	-2.715064E-19
3.110961E+03	4.492247E-20	-2.697280E-19
3.111159E+03	4.464682E-20	-2.679567E-19
3.111357E+03	4.437205E-20	-2.661922E-19
3.111555E+03	4.409676E-20	-2.644261E-19
3.111753E+03	4.382234E-20	-2.626668E-19
3.111951E+03	4.354889E-20	-2.609148E-19
3.112149E+03	4.327485E-20	-2.591608E-19
3.112347E+03	4.300904E-20	-2.574580E-19
3.112546E+03	4.273258E-20	-2.556920E-19
3.112743E+03	4.245525E-20	-2.539233E-19
3.112942E+03	4.218812E-20	-2.522160E-19
3.113140E+03	4.191434E-20	-2.504710E-19
3.113337E+03	4.163980E-20	-2.487235E-19
3.113536E+03	4.136660E-20	-2.469844E-19
3.113733E+03	4.108798E-20	-2.452155E-19
3.113931E+03	4.081201E-20	-2.434634E-19
3.114129E+03	4.054445E-20	-2.417630E-19
3.114327E+03	4.026890E-20	-2.400164E-19
3.114525E+03	3.999427E-20	-2.382768E-19
3.114723E+03	3.972215E-20	-2.365535E-19
3.114921E+03	3.945698E-20	-2.348732E-19
3.115119E+03	3.919131E-20	-2.331913E-19
3.115317E+03	3.892962E-20	-2.315345E-19
3.115516E+03	3.867665E-20	-2.299305E-19
3.115714E+03	3.840790E-20	-2.282345E-19
3.115912E+03	3.813414E-20	-2.265103E-19
3.116110E+03	3.787339E-20	-2.248648E-19
3.116507E+03	3.763503E-20	-2.232576E-19
3.116705E+03	3.737151E-20	-2.215991E-19
3.116903E+03	3.710146E-20	-2.199033E-19
3.117101E+03	3.683995E-20	-2.182596E-19
3.117299E+03	3.657951E-20	-2.166236E-19
3.117497E+03	3.632157E-20	-2.150038E-19
3.117695E+03	3.606165E-20	-2.133737E-19
3.117893E+03	3.580273E-20	-2.117509E-19
3.118091E+03	3.554792E-20	-2.101538E-19
3.118289E+03	3.530023E-20	-2.086000E-19
3.118487E+03	3.505056E-20	-2.070360E-19
3.118685E+03	3.478666E-20	-2.053892E-19
3.118883E+03	3.452841E-20	-2.037771E-19
3.119081E+03	3.427117E-20	-2.021725E-19
3.119279E+03	3.402114E-20	-2.006116E-19
3.119477E+03	3.377061E-20	-1.990492E-19
3.119675E+03	3.351352E-20	-1.974494E-19
3.119873E+03	3.325745E-20	-1.958570E-19
3.120071E+03	3.301477E-20	-1.943448E-19
3.120270E+03	3.276084E-20	-1.927677E-19
3.120468E+03	3.251264E-20	-1.912255E-19
3.120666E+03	3.227318E-20	-1.897361E-19
3.120864E+03	3.202869E-20	-1.882184E-19
3.121062E+03	3.177910E-20	-1.866721E-19
3.121260E+03	3.153064E-20	-1.851336E-19
3.121459E+03	3.128798E-20	-1.836301E-19
3.121657E+03	3.104480E-20	-1.821252E-19
3.121855E+03	3.079959E-20	-1.806098E-19
3.122053E+03	3.057100E-20	-1.791930E-19
3.122251E+03	3.033732E-20	-1.777475E-19
3.122449E+03	3.010170E-20	-1.762920E-19
3.122647E+03	2.987028E-20	-1.748622E-19
3.122845E+03	2.964157E-20	-1.734495E-19
3.123043E+03	2.941243E-20	-1.720355E-19
3.123241E+03	2.918912E-20	-1.706568E-19
3.123439E+03	2.896540E-20	-1.692768E-19
3.123637E+03	2.873818E-20	-1.678776E-19
3.123835E+03	2.851209E-20	-1.664861E-19
3.124034E+03	2.829498E-20	-1.651483E-19
3.124232E+03	2.808214E-20	-1.638365E-19
3.124429E+03	2.785324E-20	-1.624324E-19
3.124628E+03	2.763505E-20	-1.610913E-19
3.124825E+03	2.741630E-20	-1.597487E-19
3.125023E+03	2.719412E-20	-1.583870E-19
3.125222E+03	2.697481E-20	-1.570427E-19
3.125419E+03	2.676586E-20	-1.557606E-19
3.125617E+03	2.655667E-20	-1.544778E-19
3.125815E+03	2.634708E-20	-1.531938E-19
3.126013E+03	2.614502E-20	-1.519545E-19
3.126211E+03	2.593944E-20	-1.506959E-19
3.126409E+03	2.573038E-20	-1.494182E-19
3.126607E+03	2.553038E-20	-1.481941E-19
3.126805E+03	2.533321E-20	-1.469874E-19
3.127003E+03	2.513095E-20	-1.457522E-19
3.127201E+03	2.493625E-20	-1.445620E-19
3.127399E+03	2.474751E-20	-1.434072E-19
3.127598E+03	2.456329E-20	-1.422793E-19
3.127796E+03	2.437391E-20	-1.411228E-19
3.127995E+03	2.419529E-20	-1.400295E-19
3.128193E+03	2.402585E-20	-1.389902E-19
3.128391E+03	2.384188E-20	-1.378678E-19
3.128589E+03	2.365757E-20	-1.367443E-19
3.128787E+03	2.347297E-20	-1.356202E-19
3.128985E+03	2.329598E-20	-1.345409E-19
3.129183E+03	2.312824E-20	-1.335159E-19
3.129381E+03	2.296974E-20	-1.325451E-19
3.129579E+03	2.279666E-20	-1.314910E-19
3.129777E+03	2.263760E-20	-1.305186E-19
3.129975E+03	2.247511E-20	-1.295272E-19
3.130173E+03	2.230913E-20	-1.285166E-19
3.130371E+03	2.215087E-20	-1.275513E-19
3.130569E+03	2.199232E-20	-1.265851E-19
3.130767E+03	2.182874E-20	-1.255908E-19
3.130965E+03	2.166966E-20	-1.246231E-19
3.131163E+03	2.151353E-20	-1.236733E-19
3.131361E+03	2.136032E-20	-1.227410E-19
3.131559E+03	2.121169E-20	-1.218358E-19
3.131758E+03	2.107079E-20	-1.209758E-19
3.131956E+03	2.092969E-20	-1.201153E-19
3.132154E+03	2.079314E-20	-1.192816E-19
3.132352E+03	2.066281E-20	-1.184843E-19
3.132550E+03	2.052581E-20	-1.176494E-19
3.132748E+03	2.039021E-20	-1.168232E-19
3.132946E+03	2.025758E-20	-1.160148E-19
3.133144E+03	2.013442E-20	-1.152611E-19
3.133342E+03	2.001908E-20	-1.145530E-19
3.133541E+03	1.989880E-20	-1.138168E-19
3.133739E+03	1.977985E-20	-1.130891E-19
3.133937E+03	1.968171E-20	-1.124810E-19
3.134135E+03	1.956398E-20	-1.117615E-19
3.134333E+03	1.945093E-20	-1.110692E-19
3.134531E+03	1.933928E-20	-1.103856E-19
3.134729E+03	1.923395E-20	-1.097385E-19
3.134927E+03	1.913490E-20	-1.091278E-19
3.135125E+03	1.903894E-20	-1.085353E-19
3.135323E+03	1.895903E-20	-1.080347E-19
3.135521E+03	1.886924E-20	-1.074782E-19
3.135720E+03	1.877441E-20	-1.068935E-19
3.135918E+03	1.868594E-20	-1.063454E-19
3.136116E+03	1.859892E-20	-1.058061E-19
3.136314E+03	1.852480E-20	-1.053405E-19
3.136511E+03	1.845209E-20	-1.048836E-19
3.136710E+03	1.837449E-20	-1.043988E-19
3.136907E+03	1.830968E-20	-1.039875E-19
3.137105E+03	1.824155E-20	-1.035575E-19
3.137304E+03	1.818804E-20	-1.032106E-19
3.137501E+03	1.814250E-20	-1.029096E-19
3.137699E+03	1.808055E-20	-1.025155E-19
3.137897E+03	1.802996E-20	-1.021862E-19
3.138095E+03	1.797924E-20	-1.018565E-19
3.138293E+03	1.793337E-20	-1.015544E-19
3.138491E+03	1.789557E-20	-1.012983E-19
3.138689E+03	1.785444E-20	-1.010235E-19
3.138887E+03	1.783125E-20	-1.008505E-19
3.139085E+03	1.780309E-20	-1.006494E-19
3.139283E+03	1.777319E-20	-1.004388E-19
3.139482E+03	1.775640E-20	-1.003023E-19
3.139681E+03	1.773630E-20	-1.001470E-19
3.139879E+03	1.772269E-20	-1.000287E-19
3.140077E+03	1.771560E-20	-9.994732E-20
3.140275E+03	1.771014E-20	-9.987512E-20
3.140473E+03	1.770461E-20	-9.980264E-20
3.140671E+03	1.771887E-20	-9.984171E-20
3.140869E+03	1.772649E-20	-9.984333E-20
3.141067E+03	1.773079E-20	-9.982626E-20
3.141265E+03	1.774332E-20	-9.985551E-20
3.141463E+03	1.775418E-20	-9.987537E-20
3.141661E+03	1.777495E-20	-9.995089E-20
3.141859E+03	1.779738E-20	-1.000357E-19
3.142057E+03	1.783139E-20	-1.001855E-19
3.142255E+03	1.786211E-20	-1.003167E-19
3.142453E+03	1.790277E-20	-1.005036E-19
3.142651E+03	1.793848E-20	-1.006625E-19
3.142849E+03	1.798250E-20	-1.008679E-19
3.143047E+03	1.802820E-20	-1.010826E-19
3.143245E+03	1.807890E-20	-1.013251E-19
3.143444E+03	1.813631E-20	-1.016050E-19
3.143642E+03	1.819540E-20	-1.018940E-19
3.143840E+03	1.826787E-20	-1.022577E-19
3.144038E+03	1.835372E-20	-1.026960E-19
3.144236E+03	1.842798E-20	-1.030690E-19
3.144434E+03	1.851228E-20	-1.034980E-19
3.144632E+03	1.859499E-20	-1.039177E-19
3.144830E+03	1.868109E-20	-1.043559E-19
3.145028E+03	1.877564E-20	-1.048409E-19
3.145226E+03	1.887192E-20	-1.053353E-19
3.145424E+03	1.898336E-20	-1.059138E-19
3.145623E+03	1.909493E-20	-1.064923E-19
3.145821E+03	1.920823E-20	-1.070802E-19
3.146019E+03	1.932999E-20	-1.077148E-19
3.146217E+03	1.944853E-20	-1.083308E-19
3.146415E+03	1.957385E-20	-1.089842E-19
3.146613E+03	1.971275E-20	-1.097126E-19
3.146811E+03	1.985342E-20	-1.104502E-19
3.147009E+03	1.999929E-20	-1.112161E-19
3.147207E+03	2.014695E-20	-1.119913E-19
3.147406E+03	2.029812E-20	-1.127854E-19
3.147604E+03	2.045446E-20	-1.136076E-19
3.147802E+03	2.061432E-20	-1.144487E-19
3.148000E+03	2.077768E-20	-1.153084E-19
3.148198E+03	2.094458E-20	-1.161871E-19
3.148396E+03	2.111667E-20	-1.170939E-19
3.148593E+03	2.129394E-20	-1.180288E-19
3.148792E+03	2.147315E-20	-1.189733E-19
3.148990E+03	2.166263E-20	-1.199741E-19
3.149187E+03	2.187082E-20	-1.210779E-19
3.149386E+03	2.207426E-20	-1.221539E-19
3.149583E+03	2.227434E-20	-1.232111E-19
3.149781E+03	2.248315E-20	-1.243154E-19
3.149979E+03	2.269892E-20	-1.254572E-19
3.150177E+03	2.291489E-20	-1.265993E-19
3.150375E+03	2.315651E-20	-1.278820E-19
3.150573E+03	2.339157E-20	-1.291275E-19
3.150771E+03	2.363701E-20	-1.304292E-19
3.150969E+03	2.388100E-20	-1.317218E-19
3.151168E+03	2.413198E-20	-1.330520E-19
3.151366E+03	2.439001E-20	-1.344199E-19
3.151565E+03	2.465342E-20	-1.358161E-19
3.151763E+03	2.491532E-20	-1.372030E-19
3.151961E+03	2.518254E-20	-1.386182E-19
3.152159E+03	2.546537E-20	-1.401180E-19
3.152357E+03	2.576038E-20	-1.416836E-19
3.152555E+03	2.604712E-20	-1.432025E-19
3.152753E+03	2.634777E-20	-1.447966E-19
3.152951E+03	2.664528E-20	-1.463721E-19
3.153149E+03	2.694643E-20	-1.479663E-19
3.153347E+03	2.725131E-20	-1.495797E-19
3.153545E+03	2.756839E-20	-1.512587E-19
3.153743E+03	2.789263E-20	-1.529757E-19
3.153941E+03	2.822055E-20	-1.547114E-19
3.154139E+03	2.855050E-20	-1.564567E-19
3.154337E+03	2.889441E-20	-1.582772E-19
3.154535E+03	2.923694E-20	-1.600886E-19
3.154733E+03	2.958831E-20	-1.619469E-19
3.154931E+03	2.994860E-20	-1.638525E-19
3.155130E+03	3.030400E-20	-1.657299E-19
3.155328E+03	3.066833E-20	-1.676545E-19
3.155526E+03	3.103809E-20	-1.696072E-19
3.155724E+03	3.141508E-20	-1.715978E-19
3.155922E+03	3.179752E-20	-1.736166E-19
3.156120E+03	3.218548E-20	-1.756638E-19
3.156318E+03	3.258062E-20	-1.777486E-19
3.156516E+03	3.298129E-20	-1.798618E-19
3.156714E+03	3.338743E-20	-1.820031E-19
3.156912E+03	3.380085E-20	-1.841824E-19
3.157110E+03	3.421974E-20	-1.863897E-19
3.157308E+03	3.464593E-20	-1.886349E-19
3.157506E+03	3.507587E-20	-1.908988E-19
3.157705E+03	3.551494E-20	-1.932100E-19
3.157903E+03	3.595943E-20	-1.955493E-19
3.158101E+03	3.640950E-20	-1.979170E-19
3.158299E+03	3.686855E-20	-2.003316E-19
3.158497E+03	3.733148E-20	-2.027652E-19
3.158695E+03	3.780166E-20	-2.052363E-19
3.158893E+03	3.827745E-20	-2.077359E-19
3.159092E+03	3.876052E-20	-2.102729E-19
3.159290E+03	3.925095E-20	-2.128477E-19
3.159488E+03	3.974693E-20	-2.154506E-19
3.159686E+03	4.024854E-20	-2.180819E-19
3.159884E+03	4.075745E-20	-2.207506E-19
3.160082E+03	4.127202E-20	-2.234477E-19
3.160279E+03	4.179379E-20	-2.261822E-19
3.160478E+03	4.232316E-20	-2.289546E-19
3.160675E+03	4.285792E-20	-2.317548E-19
3.160874E+03	4.340028E-20	-2.345930E-19
3.161072E+03	4.394989E-20	-2.374684E-19
3.161269E+03	4.450508E-20	-2.403722E-19
3.161467E+03	4.506771E-20	-2.433134E-19
3.161665E+03	4.563604E-20	-2.462829E-19
3.162061E+03	4.623369E-20	-2.493083E-19
3.162259E+03	4.683627E-20	-2.524564E-19
3.162457E+03	4.744446E-20	-2.556322E-19
3.162655E+03	4.798662E-20	-2.584499E-19
3.162854E+03	4.875149E-20	-2.624643E-19
3.163052E+03	4.662998E-20	-2.509422E-19
3.163250E+03	4.435753E-20	-2.386174E-19
3.163448E+03	4.387150E-20	-2.359084E-19
3.163647E+03	4.405681E-20	-2.368097E-19
3.163845E+03	4.372975E-20	-2.349577E-19
