#wls	flux	fluxerr
1.584409E+03	1.555821E-16	4.982904E-17
1.624020E+03	1.614647E-16	5.171233E-17
1.663630E+03	1.667182E-16	5.339401E-17
1.703240E+03	1.712419E-16	5.484193E-17
1.742850E+03	1.749157E-16	5.601755E-17
1.782461E+03	1.775771E-16	5.686889E-17
1.822071E+03	1.790064E-16	5.732561E-17
1.861681E+03	1.790005E-16	5.732267E-17
1.901291E+03	1.773459E-16	5.679169E-17
1.940902E+03	1.738739E-16	5.567875E-17
1.980512E+03	1.686054E-16	5.399054E-17
2.020122E+03	1.618388E-16	5.182262E-17
2.059732E+03	1.543096E-16	4.941059E-17
2.099342E+03	1.471596E-16	4.712007E-17
2.138953E+03	1.414884E-16	4.530310E-17
2.178563E+03	1.378571E-16	4.413931E-17
2.218173E+03	1.359614E-16	4.353124E-17
2.257783E+03	1.348228E-16	4.316555E-17
2.297394E+03	1.335225E-16	4.274808E-17
2.337004E+03	1.313932E-16	4.206520E-17
2.376614E+03	1.280973E-16	4.100881E-17
2.416224E+03	1.235735E-16	3.955939E-17
2.455835E+03	1.179405E-16	3.775494E-17
2.495445E+03	1.113987E-16	3.565964E-17
2.535055E+03	1.041695E-16	3.334443E-17
2.574665E+03	9.648089E-17	3.088225E-17
2.614276E+03	8.854128E-17	2.833989E-17
2.653886E+03	8.053543E-17	2.577647E-17
2.693496E+03	7.262311E-17	2.324315E-17
2.733106E+03	6.494364E-17	2.078451E-17
2.772716E+03	5.760245E-17	1.843430E-17
2.812327E+03	5.068606E-17	1.622020E-17
2.851937E+03	4.426433E-17	1.416455E-17
2.891547E+03	3.838693E-17	1.228324E-17
2.931157E+03	3.308620E-17	1.058660E-17
2.970768E+03	2.837223E-17	9.077846E-18
2.980670E+03	2.728427E-17	8.729641E-18
2.990573E+03	2.623189E-17	8.392830E-18
3.000475E+03	2.521509E-17	8.067408E-18
3.010378E+03	2.423317E-17	7.753152E-18
3.020280E+03	2.328542E-17	7.449839E-18
3.030183E+03	2.237162E-17	7.157392E-18
3.040086E+03	2.149076E-17	6.875489E-18
3.049988E+03	2.064380E-17	6.604440E-18
3.059891E+03	1.983011E-17	6.344039E-18
3.069793E+03	1.904881E-17	6.094008E-18
3.079696E+03	1.829864E-17	5.853940E-18
3.089598E+03	1.757879E-17	5.623578E-18
3.099501E+03	1.688809E-17	5.402548E-18
3.109403E+03	1.622547E-17	5.190504E-18
3.119306E+03	1.559019E-17	4.987213E-18
3.129209E+03	1.498094E-17	4.792253E-18
3.139111E+03	1.439735E-17	4.605504E-18
3.149014E+03	1.383817E-17	4.426571E-18
3.158916E+03	1.330277E-17	4.255246E-18
3.168819E+03	1.279025E-17	4.091246E-18
3.178721E+03	1.229976E-17	3.934298E-18
3.188624E+03	1.183069E-17	3.784204E-18
3.198526E+03	1.138222E-17	3.640703E-18
3.208429E+03	1.095338E-17	3.503483E-18
3.218332E+03	1.054394E-17	3.372474E-18
3.228234E+03	1.015264E-17	3.247268E-18
3.238137E+03	9.779247E-18	3.127794E-18
3.248039E+03	9.422741E-18	3.013725E-18
3.257942E+03	9.082598E-18	2.904892E-18
3.267844E+03	8.758292E-18	2.801126E-18
3.277747E+03	8.448913E-18	2.702138E-18
3.287650E+03	8.154104E-18	2.607812E-18
3.297552E+03	7.873255E-18	2.517953E-18
3.307455E+03	7.605666E-18	2.432338E-18
3.317357E+03	7.350787E-18	2.350789E-18
3.327260E+03	7.108087E-18	2.273137E-18
3.337162E+03	6.877144E-18	2.199248E-18
3.347065E+03	6.657276E-18	2.128902E-18
3.356967E+03	6.448188E-18	2.062005E-18
3.366870E+03	6.249250E-18	1.998356E-18
3.376773E+03	6.060033E-18	1.937818E-18
3.386675E+03	5.880199E-18	1.880281E-18
3.396578E+03	5.709132E-18	1.825550E-18
3.406480E+03	5.546603E-18	1.773549E-18
3.416383E+03	5.392182E-18	1.724144E-18
3.426285E+03	5.245341E-18	1.677163E-18
3.436188E+03	5.105893E-18	1.632548E-18
3.446090E+03	4.973359E-18	1.590144E-18
3.455993E+03	4.847462E-18	1.549863E-18
3.465896E+03	4.727884E-18	1.511605E-18
3.475798E+03	4.614175E-18	1.475223E-18
3.485701E+03	4.506115E-18	1.440649E-18
3.495603E+03	4.403356E-18	1.407771E-18
3.505506E+03	4.305572E-18	1.376484E-18
3.515408E+03	4.212511E-18	1.346708E-18
3.525311E+03	4.123845E-18	1.318338E-18
3.535213E+03	4.039322E-18	1.291294E-18
3.545116E+03	3.958663E-18	1.265485E-18
3.555019E+03	3.881686E-18	1.240854E-18
3.564921E+03	3.808184E-18	1.217335E-18
3.574824E+03	3.737926E-18	1.194853E-18
3.584726E+03	3.670765E-18	1.173362E-18
3.594629E+03	3.606563E-18	1.152818E-18
3.604531E+03	3.545122E-18	1.133156E-18
3.614434E+03	3.486412E-18	1.114369E-18
3.624337E+03	3.430246E-18	1.096395E-18
3.634239E+03	3.376569E-18	1.079217E-18
3.644142E+03	3.325293E-18	1.062806E-18
3.654044E+03	3.276331E-18	1.047136E-18
3.663947E+03	3.229626E-18	1.032188E-18
3.673849E+03	3.185150E-18	1.017953E-18
3.683752E+03	3.142760E-18	1.004384E-18
3.693654E+03	3.102480E-18	9.914911E-19
3.703557E+03	3.064199E-18	9.792367E-19
3.713460E+03	3.027885E-18	9.676113E-19
3.723362E+03	2.993504E-18	9.566040E-19
3.733265E+03	2.960950E-18	9.461809E-19
3.743167E+03	2.930238E-18	9.363465E-19
3.753070E+03	2.901288E-18	9.270754E-19
3.762972E+03	2.874064E-18	9.183563E-19
3.772875E+03	2.848513E-18	9.101719E-19
3.782777E+03	2.824603E-18	9.025119E-19
3.792680E+03	2.802279E-18	8.953589E-19
3.802583E+03	2.781510E-18	8.887031E-19
3.812485E+03	2.762245E-18	8.825277E-19
3.822388E+03	2.744475E-18	8.768303E-19
3.832290E+03	2.728150E-18	8.715946E-19
3.842193E+03	2.713220E-18	8.668048E-19
3.852095E+03	2.699660E-18	8.624525E-19
3.861998E+03	2.687422E-18	8.585228E-19
3.871900E+03	2.676503E-18	8.550144E-19
3.881803E+03	2.666856E-18	8.519122E-19
3.891706E+03	2.658459E-18	8.492094E-19
3.901608E+03	2.651269E-18	8.468924E-19
3.911511E+03	2.645244E-18	8.449470E-19
3.921413E+03	2.640405E-18	8.433806E-19
3.931316E+03	2.636670E-18	8.421670E-19
3.941218E+03	2.634043E-18	8.413068E-19
3.951121E+03	2.632483E-18	8.407876E-19
3.961024E+03	2.631976E-18	8.406044E-19
3.970926E+03	2.632504E-18	8.407518E-19
3.980829E+03	2.634014E-18	8.412125E-19
3.990731E+03	2.636510E-18	8.419878E-19
4.000634E+03	2.639957E-18	8.430668E-19
4.010536E+03	2.644345E-18	8.444460E-19
4.020439E+03	2.649640E-18	8.461148E-19
4.030341E+03	2.655811E-18	8.480627E-19
4.040244E+03	2.662869E-18	8.502937E-19
4.050147E+03	2.670761E-18	8.527910E-19
4.060049E+03	2.679480E-18	8.555517E-19
4.069952E+03	2.689017E-18	8.585734E-19
4.079854E+03	2.699322E-18	8.618401E-19
4.089757E+03	2.710411E-18	8.653566E-19
4.099659E+03	2.722233E-18	8.691070E-19
4.109562E+03	2.734784E-18	8.730894E-19
4.119464E+03	2.748059E-18	8.773027E-19
4.129367E+03	2.762010E-18	8.817313E-19
4.139270E+03	2.776652E-18	8.863804E-19
4.149172E+03	2.791921E-18	8.912288E-19
4.159075E+03	2.807853E-18	8.962887E-19
4.168977E+03	2.824384E-18	9.015391E-19
4.178880E+03	2.841508E-18	9.069781E-19
4.188782E+03	2.859201E-18	9.125985E-19
4.198685E+03	2.877461E-18	9.183994E-19
4.208587E+03	2.896220E-18	9.243591E-19
4.218490E+03	2.915500E-18	9.304841E-19
4.228393E+03	2.935251E-18	9.367591E-19
4.238295E+03	2.955427E-18	9.431693E-19
4.248198E+03	2.976028E-18	9.497141E-19
4.258100E+03	2.997025E-18	9.563851E-19
4.268003E+03	3.018348E-18	9.631593E-19
4.277905E+03	3.039970E-18	9.700283E-19
4.287808E+03	3.061863E-18	9.769833E-19
4.297711E+03	3.084000E-18	9.840152E-19
4.307613E+03	3.106352E-18	9.911152E-19
4.317516E+03	3.128917E-18	9.982824E-19
4.327418E+03	3.151664E-18	1.005507E-18
4.337321E+03	3.174565E-18	1.012780E-18
4.347223E+03	3.197668E-18	1.020117E-18
4.357126E+03	3.220945E-18	1.027508E-18
4.367028E+03	3.244395E-18	1.034954E-18
4.376931E+03	3.268043E-18	1.042463E-18
4.386834E+03	3.291890E-18	1.050034E-18
4.396736E+03	3.315912E-18	1.057660E-18
4.406639E+03	3.340136E-18	1.065350E-18
4.416541E+03	3.364541E-18	1.073097E-18
4.426444E+03	3.389130E-18	1.080902E-18
4.436346E+03	3.413909E-18	1.088766E-18
4.446249E+03	3.438827E-18	1.096674E-18
4.456151E+03	3.463920E-18	1.104637E-18
4.466054E+03	3.489167E-18	1.112649E-18
4.475957E+03	3.514548E-18	1.120702E-18
4.485859E+03	3.540074E-18	1.128800E-18
4.495762E+03	3.565695E-18	1.136928E-18
4.505664E+03	3.591423E-18	1.145089E-18
4.515567E+03	3.617269E-18	1.153287E-18
4.525469E+03	3.643221E-18	1.161518E-18
4.535372E+03	3.669229E-18	1.169766E-18
4.545274E+03	3.695310E-18	1.178036E-18
4.555177E+03	3.721449E-18	1.186323E-18
4.565080E+03	3.747632E-18	1.194624E-18
4.574982E+03	3.773879E-18	1.202945E-18
4.584885E+03	3.800147E-18	1.211271E-18
4.594787E+03	3.826458E-18	1.219609E-18
4.604690E+03	3.852801E-18	1.227957E-18
4.614592E+03	3.879166E-18	1.236311E-18
4.624495E+03	3.905547E-18	1.244669E-18
4.634398E+03	3.931936E-18	1.253028E-18
4.644300E+03	3.958326E-18	1.261387E-18
4.654203E+03	3.984783E-18	1.269766E-18
4.664105E+03	4.011302E-18	1.278164E-18
4.674008E+03	4.037883E-18	1.286581E-18
4.683910E+03	4.064595E-18	1.295038E-18
4.693813E+03	4.091404E-18	1.303525E-18
4.703715E+03	4.118313E-18	1.312043E-18
4.713618E+03	4.145360E-18	1.320604E-18
4.723521E+03	4.172548E-18	1.329208E-18
4.733423E+03	4.199846E-18	1.337846E-18
4.743326E+03	4.227295E-18	1.346532E-18
4.753228E+03	4.254901E-18	1.355266E-18
4.763131E+03	4.282633E-18	1.364039E-18
4.773033E+03	4.310534E-18	1.372865E-18
4.782936E+03	4.338614E-18	1.381747E-18
4.792838E+03	4.366883E-18	1.390687E-18
4.802741E+03	4.395345E-18	1.399688E-18
4.812644E+03	4.423972E-18	1.408740E-18
4.822546E+03	4.452854E-18	1.417872E-18
4.832449E+03	4.481918E-18	1.427061E-18
4.842351E+03	4.511174E-18	1.436310E-18
4.852254E+03	4.540673E-18	1.445634E-18
4.862156E+03	4.570425E-18	1.455038E-18
4.872059E+03	4.600440E-18	1.464524E-18
4.881961E+03	4.630642E-18	1.474069E-18
4.891864E+03	4.661126E-18	1.483701E-18
4.901767E+03	4.691858E-18	1.493412E-18
4.911669E+03	4.722846E-18	1.503202E-18
4.921572E+03	4.754099E-18	1.513075E-18
4.931474E+03	4.785623E-18	1.523033E-18
4.941377E+03	4.817380E-18	1.533064E-18
4.951279E+03	4.849377E-18	1.543169E-18
4.961182E+03	4.881661E-18	1.553365E-18
4.971085E+03	4.914196E-18	1.563639E-18
4.980987E+03	4.946934E-18	1.573975E-18
4.990890E+03	4.979973E-18	1.584406E-18
5.000792E+03	5.013171E-18	1.594886E-18
5.010695E+03	5.046624E-18	1.605445E-18
5.020597E+03	5.080332E-18	1.616084E-18
5.030500E+03	5.114146E-18	1.626755E-18
5.040402E+03	5.148209E-18	1.637503E-18
5.050305E+03	5.182417E-18	1.648295E-18
5.060208E+03	5.216765E-18	1.659131E-18
5.070110E+03	5.251296E-18	1.670023E-18
5.080013E+03	5.285899E-18	1.680936E-18
5.089915E+03	5.320564E-18	1.691867E-18
5.099818E+03	5.355331E-18	1.702828E-18
5.109720E+03	5.390135E-18	1.713800E-18
5.119623E+03	5.424962E-18	1.724777E-18
5.129525E+03	5.459744E-18	1.735738E-18
5.139428E+03	5.494515E-18	1.746693E-18
5.149331E+03	5.529150E-18	1.757603E-18
5.159233E+03	5.563736E-18	1.768496E-18
5.169136E+03	5.598198E-18	1.779348E-18
5.179038E+03	5.632458E-18	1.790133E-18
5.188941E+03	5.666490E-18	1.800844E-18
5.198843E+03	5.700327E-18	1.811491E-18
5.208746E+03	5.733829E-18	1.822030E-18
5.218648E+03	5.767023E-18	1.832468E-18
5.228551E+03	5.799938E-18	1.842817E-18
5.238454E+03	5.832373E-18	1.853010E-18
5.248356E+03	5.864470E-18	1.863095E-18
5.258259E+03	5.896024E-18	1.873005E-18
5.268161E+03	5.927180E-18	1.882786E-18
5.278064E+03	5.957730E-18	1.892373E-18
5.287966E+03	5.987759E-18	1.901793E-18
5.297869E+03	6.017237E-18	1.911036E-18
5.307772E+03	6.046073E-18	1.920073E-18
5.317674E+03	6.074356E-18	1.928932E-18
5.327577E+03	6.101876E-18	1.937547E-18
5.337479E+03	6.128786E-18	1.945967E-18
5.347382E+03	6.154996E-18	1.954163E-18
5.357284E+03	6.180479E-18	1.962126E-18
5.367187E+03	6.205211E-18	1.969848E-18
5.377089E+03	6.229165E-18	1.977322E-18
5.386992E+03	6.252253E-18	1.984519E-18
5.396895E+03	6.274455E-18	1.991433E-18
5.406797E+03	6.295747E-18	1.998057E-18
5.416700E+03	6.316107E-18	2.004383E-18
5.426602E+03	6.335453E-18	2.010385E-18
5.436505E+03	6.353702E-18	2.016038E-18
5.446407E+03	6.370897E-18	2.021355E-18
5.456310E+03	6.386960E-18	2.026311E-18
5.466212E+03	6.401812E-18	2.030881E-18
5.476115E+03	6.415370E-18	2.035039E-18
5.486018E+03	6.427686E-18	2.038802E-18
5.495920E+03	6.438619E-18	2.042125E-18
5.505823E+03	6.448222E-18	2.045025E-18
5.515725E+03	6.456355E-18	2.047457E-18
5.525628E+03	6.463011E-18	2.049419E-18
5.535530E+03	6.468246E-18	2.050930E-18
5.545433E+03	6.471927E-18	2.051947E-18
5.555335E+03	6.474115E-18	2.052489E-18
5.565238E+03	6.474810E-18	2.052557E-18
5.575141E+03	6.473947E-18	2.052131E-18
5.585043E+03	6.471529E-18	2.051210E-18
5.594946E+03	6.467625E-18	2.049818E-18
5.604848E+03	6.462248E-18	2.047959E-18
5.614751E+03	6.455338E-18	2.045612E-18
5.624653E+03	6.446976E-18	2.042805E-18
5.634556E+03	6.437242E-18	2.039564E-18
5.644459E+03	6.426021E-18	2.035850E-18
5.654361E+03	6.413400E-18	2.031692E-18
5.664264E+03	6.399469E-18	2.027120E-18
5.674166E+03	6.384252E-18	2.022139E-18
5.684069E+03	6.367778E-18	2.016761E-18
5.693971E+03	6.350077E-18	2.010994E-18
5.703874E+03	6.331180E-18	2.004848E-18
5.713776E+03	6.311192E-18	1.998356E-18
5.723679E+03	6.290080E-18	1.991509E-18
5.733582E+03	6.268021E-18	1.984363E-18
5.743484E+03	6.244990E-18	1.976908E-18
5.753387E+03	6.221031E-18	1.969160E-18
5.763289E+03	6.196322E-18	1.961176E-18
5.773192E+03	6.170780E-18	1.952928E-18
5.783094E+03	6.144519E-18	1.944452E-18
5.792997E+03	6.117661E-18	1.935789E-18
5.802899E+03	6.090190E-18	1.926932E-18
5.812802E+03	6.062226E-18	1.917919E-18
5.822705E+03	6.033759E-18	1.908748E-18
5.832607E+03	6.004978E-18	1.899479E-18
5.842510E+03	5.975871E-18	1.890107E-18
5.852412E+03	5.946498E-18	1.880651E-18
5.862315E+03	5.916981E-18	1.871151E-18
5.872217E+03	5.887311E-18	1.861603E-18
5.882120E+03	5.857609E-18	1.852046E-18
5.892022E+03	5.827865E-18	1.842476E-18
5.901925E+03	5.798203E-18	1.832933E-18
5.911828E+03	5.768673E-18	1.823432E-18
5.921730E+03	5.739330E-18	1.813992E-18
5.931633E+03	5.710159E-18	1.804606E-18
5.941535E+03	5.681275E-18	1.795312E-18
5.951438E+03	5.652728E-18	1.786125E-18
5.961340E+03	5.624496E-18	1.777039E-18
5.971243E+03	5.596691E-18	1.768088E-18
5.981146E+03	5.569289E-18	1.759265E-18
5.991048E+03	5.542265E-18	1.750563E-18
6.000951E+03	5.515786E-18	1.742033E-18
6.010853E+03	5.489761E-18	1.733647E-18
6.020756E+03	5.464284E-18	1.725436E-18
6.030658E+03	5.439260E-18	1.717367E-18
6.040561E+03	5.414781E-18	1.709472E-18
6.050463E+03	5.390808E-18	1.701737E-18
6.060366E+03	5.367367E-18	1.694171E-18
6.070269E+03	5.344480E-18	1.686780E-18
6.080171E+03	5.322100E-18	1.679549E-18
6.090074E+03	5.300247E-18	1.672486E-18
6.099976E+03	5.278935E-18	1.665593E-18
6.109879E+03	5.258178E-18	1.658876E-18
6.119781E+03	5.237987E-18	1.652338E-18
6.129684E+03	5.218306E-18	1.645962E-18
6.139586E+03	5.199207E-18	1.639770E-18
6.149489E+03	5.180697E-18	1.633763E-18
6.159392E+03	5.162778E-18	1.627944E-18
6.169294E+03	5.145521E-18	1.622333E-18
6.179197E+03	5.128993E-18	1.616953E-18
6.189099E+03	5.113263E-18	1.611824E-18
6.199002E+03	5.098396E-18	1.606967E-18
6.208904E+03	5.084462E-18	1.602405E-18
6.218807E+03	5.071592E-18	1.598178E-18
6.228709E+03	5.059719E-18	1.594266E-18
6.238612E+03	5.049118E-18	1.590754E-18
6.248515E+03	5.039717E-18	1.587620E-18
6.258417E+03	5.031657E-18	1.584908E-18
6.268320E+03	5.025009E-18	1.582641E-18
6.278222E+03	5.019843E-18	1.580840E-18
6.288125E+03	5.016167E-18	1.579507E-18
6.298027E+03	5.014051E-18	1.578665E-18
6.307930E+03	5.013575E-18	1.578339E-18
6.317833E+03	5.014747E-18	1.578531E-18
6.327735E+03	5.017571E-18	1.579242E-18
6.337638E+03	5.022133E-18	1.580499E-18
6.347540E+03	5.028294E-18	1.582258E-18
6.357443E+03	5.036061E-18	1.584521E-18
6.367345E+03	5.045373E-18	1.587269E-18
6.377248E+03	5.056083E-18	1.590454E-18
6.387150E+03	5.068275E-18	1.594105E-18
6.397053E+03	5.081801E-18	1.598173E-18
6.406956E+03	5.096744E-18	1.602685E-18
6.416858E+03	5.113111E-18	1.607643E-18
6.426761E+03	5.130830E-18	1.613023E-18
6.436663E+03	5.149907E-18	1.618829E-18
6.446566E+03	5.170346E-18	1.625060E-18
6.456468E+03	5.192156E-18	1.631720E-18
6.466371E+03	5.215344E-18	1.638810E-18
6.476273E+03	5.239998E-18	1.646358E-18
6.486176E+03	5.266044E-18	1.654341E-18
6.496079E+03	5.293408E-18	1.662735E-18
6.505981E+03	5.322264E-18	1.671595E-18
6.515884E+03	5.352454E-18	1.680870E-18
6.525786E+03	5.384071E-18	1.690590E-18
6.535689E+03	5.417123E-18	1.700758E-18
6.545591E+03	5.451622E-18	1.711376E-18
6.555494E+03	5.487579E-18	1.722449E-18
6.565396E+03	5.524915E-18	1.733950E-18
6.575299E+03	5.563730E-18	1.745912E-18
6.585202E+03	5.603941E-18	1.758308E-18
6.595104E+03	5.645653E-18	1.771171E-18
6.605007E+03	5.688786E-18	1.784475E-18
6.614909E+03	5.733347E-18	1.798222E-18
6.624812E+03	5.779447E-18	1.812448E-18
6.634714E+03	5.827099E-18	1.827156E-18
6.644617E+03	5.876117E-18	1.842287E-18
6.654520E+03	5.926711E-18	1.857908E-18
6.664422E+03	5.978694E-18	1.873959E-18
6.674325E+03	6.032281E-18	1.890507E-18
6.684227E+03	6.087384E-18	1.907525E-18
6.694130E+03	6.143908E-18	1.924983E-18
6.704032E+03	6.202080E-18	1.942951E-18
6.713935E+03	6.261698E-18	1.961367E-18
6.723837E+03	6.322882E-18	1.980267E-18
6.733740E+03	6.385645E-18	1.999655E-18
6.743643E+03	6.450005E-18	2.019537E-18
6.753545E+03	6.515859E-18	2.039881E-18
6.763448E+03	6.583334E-18	2.060725E-18
6.773350E+03	6.652325E-18	2.082037E-18
6.783253E+03	6.722966E-18	2.103859E-18
6.793155E+03	6.795147E-18	2.126155E-18
6.803058E+03	6.868876E-18	2.148929E-18
6.812960E+03	6.944296E-18	2.172224E-18
6.822863E+03	7.021161E-18	2.195964E-18
6.832766E+03	7.099738E-18	2.220231E-18
6.842668E+03	7.179909E-18	2.244988E-18
6.852571E+03	7.261684E-18	2.270240E-18
6.862473E+03	7.345074E-18	2.295988E-18
6.872376E+03	7.430087E-18	2.322234E-18
6.882278E+03	7.516592E-18	2.348939E-18
6.892181E+03	7.604733E-18	2.376146E-18
6.902083E+03	7.694522E-18	2.403859E-18
6.911986E+03	7.785965E-18	2.432080E-18
6.921889E+03	7.878768E-18	2.460716E-18
6.931791E+03	7.973388E-18	2.489910E-18
6.941694E+03	8.069368E-18	2.519519E-18
6.951596E+03	8.167020E-18	2.549641E-18
6.961499E+03	8.266187E-18	2.580225E-18
6.971401E+03	8.366868E-18	2.611272E-18
6.981304E+03	8.469063E-18	2.642782E-18
6.991207E+03	8.572767E-18	2.674752E-18
7.001109E+03	8.677805E-18	2.707127E-18
7.011012E+03	8.784339E-18	2.739958E-18
7.020914E+03	8.892363E-18	2.773243E-18
7.030817E+03	9.001692E-18	2.806924E-18
7.040719E+03	9.112494E-18	2.841054E-18
7.050622E+03	9.224573E-18	2.875570E-18
7.060524E+03	9.337914E-18	2.910467E-18
7.070427E+03	9.452493E-18	2.945739E-18
7.080330E+03	9.568492E-18	2.981442E-18
7.090232E+03	9.685497E-18	3.017447E-18
7.100135E+03	9.803477E-18	3.053742E-18
7.110037E+03	9.922812E-18	3.090448E-18
7.119940E+03	1.004307E-17	3.127428E-18
7.129842E+03	1.016420E-17	3.164670E-18
7.139745E+03	1.028640E-17	3.202231E-18
7.149647E+03	1.040941E-17	3.240032E-18
7.159550E+03	1.053320E-17	3.278061E-18
7.169453E+03	1.065771E-17	3.316304E-18
7.179355E+03	1.078291E-17	3.354747E-18
7.189258E+03	1.090899E-17	3.393450E-18
7.199160E+03	1.103543E-17	3.432252E-18
7.209063E+03	1.116265E-17	3.471286E-18
7.218965E+03	1.129038E-17	3.510464E-18
7.228868E+03	1.141856E-17	3.549768E-18
7.238770E+03	1.154739E-17	3.589261E-18
7.248673E+03	1.167657E-17	3.628851E-18
7.258576E+03	1.180631E-17	3.668600E-18
7.268478E+03	1.193657E-17	3.708497E-18
7.278381E+03	1.206756E-17	3.748609E-18
7.288283E+03	1.219926E-17	3.788926E-18
7.298186E+03	1.233191E-17	3.829525E-18
7.308088E+03	1.246520E-17	3.870311E-18
7.317991E+03	1.259997E-17	3.911540E-18
7.327894E+03	1.273622E-17	3.953213E-18
7.337796E+03	1.287364E-17	3.995239E-18
7.347699E+03	1.301315E-17	4.037896E-18
7.357601E+03	1.315445E-17	4.081099E-18
7.367504E+03	1.329789E-17	4.124947E-18
7.377406E+03	1.344318E-17	4.169355E-18
7.387309E+03	1.359066E-17	4.214426E-18
7.397211E+03	1.373938E-17	4.259868E-18
7.407114E+03	1.389000E-17	4.305883E-18
7.417017E+03	1.404152E-17	4.352164E-18
7.426919E+03	1.419428E-17	4.398811E-18
7.436822E+03	1.434791E-17	4.445712E-18
7.446724E+03	1.450203E-17	4.492750E-18
7.456627E+03	1.465695E-17	4.540023E-18
7.466529E+03	1.481158E-17	4.587188E-18
7.476432E+03	1.496657E-17	4.634448E-18
7.486334E+03	1.512149E-17	4.681672E-18
7.496237E+03	1.527628E-17	4.728842E-18
7.506140E+03	1.543051E-17	4.775819E-18
7.516042E+03	1.558446E-17	4.822696E-18
7.525945E+03	1.573767E-17	4.869331E-18
7.535847E+03	1.589006E-17	4.915697E-18
7.545750E+03	1.604194E-17	4.961887E-18
7.555652E+03	1.619282E-17	5.007753E-18
7.565555E+03	1.634300E-17	5.053391E-18
7.575457E+03	1.649158E-17	5.098519E-18
7.585360E+03	1.663928E-17	5.143359E-18
7.595263E+03	1.678557E-17	5.187751E-18
7.605165E+03	1.693079E-17	5.231796E-18
7.615068E+03	1.707439E-17	5.275328E-18
7.624970E+03	1.721627E-17	5.318314E-18
7.634873E+03	1.735630E-17	5.360717E-18
7.644775E+03	1.749528E-17	5.402781E-18
7.654678E+03	1.763173E-17	5.444054E-18
7.664581E+03	1.776693E-17	5.484926E-18
7.674483E+03	1.789983E-17	5.525075E-18
7.684386E+03	1.803079E-17	5.564615E-18
