#wls	flux	fluxerr
1.584409E+03	1.703856E-16	5.707987E-17
1.624020E+03	1.769487E-16	5.927757E-17
1.663630E+03	1.828373E-16	6.124921E-17
1.703240E+03	1.879405E-16	6.295764E-17
1.742850E+03	1.921243E-16	6.435804E-17
1.782461E+03	1.952084E-16	6.538992E-17
1.822071E+03	1.969482E-16	6.597147E-17
1.861681E+03	1.971162E-16	6.602645E-17
1.901291E+03	1.954719E-16	6.547437E-17
1.940902E+03	1.918237E-16	6.425107E-17
1.980512E+03	1.861875E-16	6.236191E-17
2.020122E+03	1.788860E-16	5.991506E-17
2.059732E+03	1.707270E-16	5.718105E-17
2.099342E+03	1.629711E-16	5.458212E-17
2.138953E+03	1.568364E-16	5.252624E-17
2.178563E+03	1.529487E-16	5.122299E-17
2.218173E+03	1.509743E-16	5.056049E-17
2.257783E+03	1.498286E-16	5.017550E-17
2.297394E+03	1.484891E-16	4.972560E-17
2.337004E+03	1.462102E-16	4.896112E-17
2.376614E+03	1.426115E-16	4.775469E-17
2.416224E+03	1.376207E-16	4.608217E-17
2.455835E+03	1.313672E-16	4.398690E-17
2.495445E+03	1.240731E-16	4.154329E-17
2.535055E+03	1.159860E-16	3.883425E-17
2.574665E+03	1.073620E-16	3.594563E-17
2.614276E+03	9.843770E-17	3.295663E-17
2.653886E+03	8.942417E-17	2.993791E-17
2.693496E+03	8.050534E-17	2.695108E-17
2.733106E+03	7.184275E-17	2.405021E-17
2.772716E+03	6.356008E-17	2.127671E-17
2.812327E+03	5.575936E-17	1.866472E-17
2.851937E+03	4.852302E-17	1.624181E-17
2.891547E+03	4.190956E-17	1.402757E-17
2.931157E+03	3.595653E-17	1.203454E-17
2.970768E+03	3.067510E-17	1.026643E-17
2.980670E+03	2.945826E-17	9.859068E-18
2.990573E+03	2.828209E-17	9.465327E-18
3.000475E+03	2.714653E-17	9.085183E-18
3.010378E+03	2.605076E-17	8.718366E-18
3.020280E+03	2.499398E-17	8.364600E-18
3.030183E+03	2.397586E-17	8.023785E-18
3.040086E+03	2.299530E-17	7.695542E-18
3.049988E+03	2.205320E-17	7.380179E-18
3.059891E+03	2.114885E-17	7.077457E-18
3.069793E+03	2.028123E-17	6.787031E-18
3.079696E+03	1.944891E-17	6.508423E-18
3.089598E+03	1.865096E-17	6.241325E-18
3.099501E+03	1.788605E-17	5.985287E-18
3.109403E+03	1.715300E-17	5.739914E-18
3.119306E+03	1.645090E-17	5.504908E-18
3.129209E+03	1.577836E-17	5.279794E-18
3.139111E+03	1.513485E-17	5.064403E-18
3.149014E+03	1.451904E-17	4.858283E-18
3.158916E+03	1.393015E-17	4.661175E-18
3.168819E+03	1.336717E-17	4.472742E-18
3.178721E+03	1.282914E-17	4.292661E-18
3.188624E+03	1.231533E-17	4.120687E-18
3.198526E+03	1.182480E-17	3.956508E-18
3.208429E+03	1.135645E-17	3.799753E-18
3.218332E+03	1.090997E-17	3.650320E-18
3.228234E+03	1.048394E-17	3.507734E-18
3.238137E+03	1.007806E-17	3.371889E-18
3.248039E+03	9.691159E-18	3.242400E-18
3.257942E+03	9.322617E-18	3.119055E-18
3.267844E+03	8.971797E-18	3.001643E-18
3.277747E+03	8.637677E-18	2.889821E-18
3.287650E+03	8.319800E-18	2.783435E-18
3.297552E+03	8.017453E-18	2.682248E-18
3.307455E+03	7.729838E-18	2.585992E-18
3.317357E+03	7.456309E-18	2.494450E-18
3.327260E+03	7.196244E-18	2.407415E-18
3.337162E+03	6.949138E-18	2.324717E-18
3.347065E+03	6.714222E-18	2.246099E-18
3.356967E+03	6.491125E-18	2.171437E-18
3.366870E+03	6.279143E-18	2.100494E-18
3.376773E+03	6.077775E-18	2.033105E-18
3.386675E+03	5.886618E-18	1.969132E-18
3.396578E+03	5.704994E-18	1.908350E-18
3.406480E+03	5.532615E-18	1.850662E-18
3.416383E+03	5.368999E-18	1.795907E-18
3.426285E+03	5.213563E-18	1.743889E-18
3.436188E+03	5.066077E-18	1.694532E-18
3.446090E+03	4.926015E-18	1.647659E-18
3.455993E+03	4.793062E-18	1.603165E-18
3.465896E+03	4.666860E-18	1.560930E-18
3.475798E+03	4.546927E-18	1.520794E-18
3.485701E+03	4.433011E-18	1.482670E-18
3.495603E+03	4.324736E-18	1.446435E-18
3.505506E+03	4.221751E-18	1.411969E-18
3.515408E+03	4.123777E-18	1.379181E-18
3.525311E+03	4.030472E-18	1.347954E-18
3.535213E+03	3.941557E-18	1.318197E-18
3.545116E+03	3.856740E-18	1.289811E-18
3.555019E+03	3.775823E-18	1.262730E-18
3.564921E+03	3.698582E-18	1.236880E-18
3.574824E+03	3.624775E-18	1.212178E-18
3.584726E+03	3.554242E-18	1.188571E-18
3.594629E+03	3.486833E-18	1.166010E-18
3.604531E+03	3.422338E-18	1.144425E-18
3.614434E+03	3.360717E-18	1.123800E-18
3.624337E+03	3.301774E-18	1.104072E-18
3.634239E+03	3.245442E-18	1.085217E-18
3.644142E+03	3.191623E-18	1.067203E-18
3.654044E+03	3.140222E-18	1.049999E-18
3.663947E+03	3.091173E-18	1.033581E-18
3.673849E+03	3.044433E-18	1.017935E-18
3.683752E+03	2.999858E-18	1.003014E-18
3.693654E+03	2.957457E-18	9.888201E-19
3.703557E+03	2.917114E-18	9.753145E-19
3.713460E+03	2.878787E-18	9.624834E-19
3.723362E+03	2.842433E-18	9.503123E-19
3.733265E+03	2.807939E-18	9.387634E-19
3.743167E+03	2.775313E-18	9.278391E-19
3.753070E+03	2.744464E-18	9.175096E-19
3.762972E+03	2.715355E-18	9.077619E-19
3.772875E+03	2.687925E-18	8.985755E-19
3.782777E+03	2.662135E-18	8.899375E-19
3.792680E+03	2.637926E-18	8.818285E-19
3.802583E+03	2.615262E-18	8.742361E-19
3.812485E+03	2.594088E-18	8.671420E-19
3.822388E+03	2.574391E-18	8.605416E-19
3.832290E+03	2.556118E-18	8.544174E-19
3.842193E+03	2.539216E-18	8.487517E-19
3.852095E+03	2.523659E-18	8.435355E-19
3.861998E+03	2.509393E-18	8.387513E-19
3.871900E+03	2.496415E-18	8.343973E-19
3.881803E+03	2.484676E-18	8.304574E-19
3.891706E+03	2.474150E-18	8.269234E-19
3.901608E+03	2.464795E-18	8.237804E-19
3.911511E+03	2.456565E-18	8.210137E-19
3.921413E+03	2.449478E-18	8.186286E-19
3.931316E+03	2.443452E-18	8.165984E-19
3.941218E+03	2.438487E-18	8.149228E-19
3.951121E+03	2.434543E-18	8.135884E-19
3.961024E+03	2.431601E-18	8.125885E-19
3.970926E+03	2.429642E-18	8.119173E-19
3.980829E+03	2.428612E-18	8.115561E-19
3.990731E+03	2.428510E-18	8.115052E-19
4.000634E+03	2.429303E-18	8.117531E-19
4.010536E+03	2.430976E-18	8.122951E-19
4.020439E+03	2.433495E-18	8.131196E-19
4.030341E+03	2.436828E-18	8.142162E-19
4.040244E+03	2.440981E-18	8.155863E-19
4.050147E+03	2.445905E-18	8.172139E-19
4.060049E+03	2.451589E-18	8.190953E-19
4.069952E+03	2.458024E-18	8.212273E-19
4.079854E+03	2.465160E-18	8.235933E-19
4.089757E+03	2.473009E-18	8.261974E-19
4.099659E+03	2.481525E-18	8.290239E-19
4.109562E+03	2.490702E-18	8.320709E-19
4.119464E+03	2.500529E-18	8.353352E-19
4.129367E+03	2.510965E-18	8.388026E-19
4.139270E+03	2.522025E-18	8.424779E-19
4.149172E+03	2.533641E-18	8.463389E-19
4.159075E+03	2.545852E-18	8.503982E-19
4.168977E+03	2.558593E-18	8.546342E-19
4.178880E+03	2.571861E-18	8.590458E-19
4.188782E+03	2.585632E-18	8.636253E-19
4.198685E+03	2.599905E-18	8.683720E-19
4.208587E+03	2.614617E-18	8.732651E-19
4.218490E+03	2.629785E-18	8.783101E-19
4.228393E+03	2.645370E-18	8.834938E-19
4.238295E+03	2.661325E-18	8.888009E-19
4.248198E+03	2.677652E-18	8.942320E-19
4.258100E+03	2.694327E-18	8.997787E-19
4.268003E+03	2.711288E-18	9.054203E-19
4.277905E+03	2.728508E-18	9.111482E-19
4.287808E+03	2.745965E-18	9.169548E-19
4.297711E+03	2.763633E-18	9.228316E-19
4.307613E+03	2.781490E-18	9.287709E-19
4.317516E+03	2.799530E-18	9.347708E-19
4.327418E+03	2.817727E-18	9.408226E-19
4.337321E+03	2.836056E-18	9.469182E-19
4.347223E+03	2.854557E-18	9.530704E-19
4.357126E+03	2.873202E-18	9.592706E-19
4.367028E+03	2.891991E-18	9.655182E-19
4.376931E+03	2.910940E-18	9.718190E-19
4.386834E+03	2.930052E-18	9.781734E-19
4.396736E+03	2.949298E-18	9.845722E-19
4.406639E+03	2.968703E-18	9.910235E-19
4.416541E+03	2.988240E-18	9.975185E-19
4.426444E+03	3.007911E-18	1.004058E-18
4.436346E+03	3.027719E-18	1.010642E-18
4.446249E+03	3.047617E-18	1.017256E-18
4.456151E+03	3.067631E-18	1.023908E-18
4.466054E+03	3.087742E-18	1.030592E-18
4.475957E+03	3.107932E-18	1.037301E-18
4.485859E+03	3.128207E-18	1.044039E-18
4.495762E+03	3.148524E-18	1.050790E-18
4.505664E+03	3.168893E-18	1.057557E-18
4.515567E+03	3.189324E-18	1.064345E-18
4.525469E+03	3.209805E-18	1.071149E-18
4.535372E+03	3.230296E-18	1.077956E-18
4.545274E+03	3.250811E-18	1.084770E-18
4.555177E+03	3.271340E-18	1.091588E-18
4.565080E+03	3.291874E-18	1.098407E-18
4.574982E+03	3.312431E-18	1.105233E-18
4.584885E+03	3.332975E-18	1.112055E-18
4.594787E+03	3.353531E-18	1.118880E-18
4.604690E+03	3.374090E-18	1.125705E-18
4.614592E+03	3.394649E-18	1.132529E-18
4.624495E+03	3.415204E-18	1.139352E-18
4.634398E+03	3.435751E-18	1.146171E-18
4.644300E+03	3.456289E-18	1.152987E-18
4.654203E+03	3.476878E-18	1.159819E-18
4.664105E+03	3.497517E-18	1.166666E-18
4.674008E+03	3.518207E-18	1.173531E-18
4.683910E+03	3.539015E-18	1.180434E-18
4.693813E+03	3.559912E-18	1.187366E-18
4.703715E+03	3.580902E-18	1.194328E-18
4.713618E+03	3.602023E-18	1.201333E-18
4.723521E+03	3.623282E-18	1.208384E-18
4.733423E+03	3.644653E-18	1.215471E-18
4.743326E+03	3.666173E-18	1.222608E-18
4.753228E+03	3.687856E-18	1.229798E-18
4.763131E+03	3.709673E-18	1.237031E-18
4.773033E+03	3.731668E-18	1.244324E-18
4.782936E+03	3.753854E-18	1.251679E-18
4.792838E+03	3.776239E-18	1.259100E-18
4.802741E+03	3.798836E-18	1.266591E-18
4.812644E+03	3.821624E-18	1.274145E-18
4.822546E+03	3.844685E-18	1.281789E-18
4.832449E+03	3.867960E-18	1.289504E-18
4.842351E+03	3.891466E-18	1.297294E-18
4.852254E+03	3.915250E-18	1.305177E-18
4.862156E+03	3.939327E-18	1.313156E-18
4.872059E+03	3.963715E-18	1.321238E-18
4.881961E+03	3.988351E-18	1.329402E-18
4.891864E+03	4.013327E-18	1.337679E-18
4.901767E+03	4.038620E-18	1.346060E-18
4.911669E+03	4.064242E-18	1.354550E-18
4.921572E+03	4.090207E-18	1.363153E-18
4.931474E+03	4.116532E-18	1.371875E-18
4.941377E+03	4.143186E-18	1.380706E-18
4.951279E+03	4.170181E-18	1.389649E-18
4.961182E+03	4.197569E-18	1.398723E-18
4.971085E+03	4.225317E-18	1.407916E-18
4.980987E+03	4.253396E-18	1.417217E-18
4.990890E+03	4.281891E-18	1.426657E-18
5.000792E+03	4.310687E-18	1.436195E-18
5.010695E+03	4.339871E-18	1.445862E-18
5.020597E+03	4.369444E-18	1.455657E-18
5.030500E+03	4.399288E-18	1.465541E-18
5.040402E+03	4.429527E-18	1.475556E-18
5.050305E+03	4.460078E-18	1.485674E-18
5.060208E+03	4.490941E-18	1.495894E-18
5.070110E+03	4.522156E-18	1.506230E-18
5.080013E+03	4.553636E-18	1.516653E-18
5.089915E+03	4.585376E-18	1.527162E-18
5.099818E+03	4.617418E-18	1.537770E-18
5.109720E+03	4.649710E-18	1.548460E-18
5.119623E+03	4.682248E-18	1.559231E-18
5.129525E+03	4.714977E-18	1.570064E-18
5.139428E+03	4.747938E-18	1.580973E-18
5.149331E+03	4.781026E-18	1.591923E-18
5.159233E+03	4.814325E-18	1.602941E-18
5.169136E+03	4.847778E-18	1.614010E-18
5.179038E+03	4.881324E-18	1.625108E-18
5.188941E+03	4.914946E-18	1.636231E-18
5.198843E+03	4.948678E-18	1.647388E-18
5.208746E+03	4.982407E-18	1.658543E-18
5.218648E+03	5.016160E-18	1.669704E-18
5.228551E+03	5.049966E-18	1.680882E-18
5.238454E+03	5.083653E-18	1.692019E-18
5.248356E+03	5.117347E-18	1.703156E-18
5.258259E+03	5.150873E-18	1.714236E-18
5.268161E+03	5.184354E-18	1.725300E-18
5.278064E+03	5.217611E-18	1.736288E-18
5.287966E+03	5.250715E-18	1.747223E-18
5.297869E+03	5.283636E-18	1.758096E-18
5.307772E+03	5.316295E-18	1.768880E-18
5.317674E+03	5.348767E-18	1.779600E-18
5.327577E+03	5.380860E-18	1.790193E-18
5.337479E+03	5.412708E-18	1.800703E-18
5.347382E+03	5.444228E-18	1.811102E-18
5.357284E+03	5.475390E-18	1.821381E-18
5.367187E+03	5.506169E-18	1.831530E-18
5.377089E+03	5.536537E-18	1.841542E-18
5.386992E+03	5.566410E-18	1.851387E-18
5.396895E+03	5.595763E-18	1.861058E-18
5.406797E+03	5.624568E-18	1.870545E-18
5.416700E+03	5.652796E-18	1.879839E-18
5.426602E+03	5.680365E-18	1.888912E-18
5.436505E+03	5.707188E-18	1.897735E-18
5.446407E+03	5.733290E-18	1.906318E-18
5.456310E+03	5.758588E-18	1.914632E-18
5.466212E+03	5.782989E-18	1.922645E-18
5.476115E+03	5.806405E-18	1.930331E-18
5.486018E+03	5.828861E-18	1.937695E-18
5.495920E+03	5.850208E-18	1.944690E-18
5.505823E+03	5.870468E-18	1.951322E-18
5.515725E+03	5.889492E-18	1.957542E-18
5.525628E+03	5.907244E-18	1.963338E-18
5.535530E+03	5.923751E-18	1.968719E-18
5.545433E+03	5.938862E-18	1.973634E-18
5.555335E+03	5.952603E-18	1.978094E-18
5.565238E+03	5.964944E-18	1.982087E-18
5.575141E+03	5.975794E-18	1.985583E-18
5.585043E+03	5.985128E-18	1.988575E-18
5.594946E+03	5.992980E-18	1.991074E-18
5.604848E+03	5.999329E-18	1.993072E-18
5.614751E+03	6.004092E-18	1.994543E-18
5.624653E+03	6.007315E-18	1.995501E-18
5.634556E+03	6.009048E-18	1.995963E-18
5.644459E+03	6.009154E-18	1.995885E-18
5.654361E+03	6.007692E-18	1.995285E-18
5.664264E+03	6.004721E-18	1.994184E-18
5.674166E+03	6.000242E-18	1.992581E-18
5.684069E+03	5.994260E-18	1.990478E-18
5.693971E+03	5.986783E-18	1.987879E-18
5.703874E+03	5.977824E-18	1.984787E-18
5.713776E+03	5.967460E-18	1.981229E-18
5.723679E+03	5.955646E-18	1.977189E-18
5.733582E+03	5.942531E-18	1.972717E-18
5.743484E+03	5.928078E-18	1.967801E-18
5.753387E+03	5.912314E-18	1.962449E-18
5.763289E+03	5.895397E-18	1.956715E-18
5.773192E+03	5.877238E-18	1.950569E-18
5.783094E+03	5.857939E-18	1.944044E-18
5.792997E+03	5.837608E-18	1.937177E-18
5.802899E+03	5.816227E-18	1.929962E-18
5.812802E+03	5.793914E-18	1.922438E-18
5.822705E+03	5.770656E-18	1.914600E-18
5.832607E+03	5.746638E-18	1.906511E-18
5.842510E+03	5.721861E-18	1.898171E-18
5.852412E+03	5.696385E-18	1.889599E-18
5.862315E+03	5.670340E-18	1.880839E-18
5.872217E+03	5.643730E-18	1.871891E-18
5.882120E+03	5.616684E-18	1.862800E-18
5.892022E+03	5.589206E-18	1.853566E-18
5.901925E+03	5.561426E-18	1.844233E-18
5.911828E+03	5.533413E-18	1.834822E-18
5.921730E+03	5.505228E-18	1.825356E-18
5.931633E+03	5.476873E-18	1.815833E-18
5.941535E+03	5.448473E-18	1.806297E-18
5.951438E+03	5.420087E-18	1.796765E-18
5.961340E+03	5.391709E-18	1.787237E-18
5.971243E+03	5.363458E-18	1.777751E-18
5.981146E+03	5.335322E-18	1.768305E-18
5.991048E+03	5.307291E-18	1.758894E-18
6.000951E+03	5.279539E-18	1.749576E-18
6.010853E+03	5.251984E-18	1.740324E-18
6.020756E+03	5.224731E-18	1.731173E-18
6.030658E+03	5.197698E-18	1.722095E-18
6.040561E+03	5.170983E-18	1.713124E-18
6.050463E+03	5.144562E-18	1.704250E-18
6.060366E+03	5.118465E-18	1.695484E-18
6.070269E+03	5.092724E-18	1.686837E-18
6.080171E+03	5.067305E-18	1.678297E-18
6.090074E+03	5.042232E-18	1.669873E-18
6.099976E+03	5.017530E-18	1.661571E-18
6.109879E+03	4.993221E-18	1.653401E-18
6.119781E+03	4.969324E-18	1.645368E-18
6.129684E+03	4.945794E-18	1.637456E-18
6.139586E+03	4.922704E-18	1.629691E-18
6.149489E+03	4.900073E-18	1.622079E-18
6.159392E+03	4.877909E-18	1.614621E-18
6.169294E+03	4.856284E-18	1.607343E-18
6.179197E+03	4.835271E-18	1.600267E-18
6.189099E+03	4.814939E-18	1.593418E-18
6.199002E+03	4.795358E-18	1.586817E-18
6.208904E+03	4.776596E-18	1.580488E-18
6.218807E+03	4.758785E-18	1.574474E-18
6.228709E+03	4.741863E-18	1.568754E-18
6.238612E+03	4.726092E-18	1.563416E-18
6.248515E+03	4.711410E-18	1.558438E-18
6.258417E+03	4.697949E-18	1.553864E-18
6.268320E+03	4.685779E-18	1.549717E-18
6.278222E+03	4.674967E-18	1.546019E-18
6.288125E+03	4.665520E-18	1.542773E-18
6.298027E+03	4.657506E-18	1.540000E-18
6.307930E+03	4.650999E-18	1.537725E-18
6.317833E+03	4.646004E-18	1.535951E-18
6.327735E+03	4.642528E-18	1.534678E-18
6.337638E+03	4.640647E-18	1.533932E-18
6.347540E+03	4.640235E-18	1.533671E-18
6.357443E+03	4.641296E-18	1.533896E-18
6.367345E+03	4.643771E-18	1.534588E-18
6.377248E+03	4.647527E-18	1.535703E-18
6.387150E+03	4.652641E-18	1.537265E-18
6.397053E+03	4.658977E-18	1.539231E-18
6.406956E+03	4.666609E-18	1.541624E-18
6.416858E+03	4.675545E-18	1.544446E-18
6.426761E+03	4.685720E-18	1.547676E-18
6.436663E+03	4.697135E-18	1.551316E-18
6.446566E+03	4.709798E-18	1.555366E-18
6.456468E+03	4.723714E-18	1.559828E-18
6.466371E+03	4.738890E-18	1.564706E-18
6.476273E+03	4.755405E-18	1.570024E-18
6.486176E+03	4.773192E-18	1.575760E-18
6.496079E+03	4.792182E-18	1.581892E-18
6.505981E+03	4.812534E-18	1.588472E-18
6.515884E+03	4.834102E-18	1.595451E-18
6.525786E+03	4.856970E-18	1.602858E-18
6.535689E+03	4.881146E-18	1.610694E-18
6.545591E+03	4.906638E-18	1.618963E-18
6.555494E+03	4.933455E-18	1.627667E-18
6.565396E+03	4.961525E-18	1.636782E-18
6.575299E+03	4.990936E-18	1.646337E-18
6.585202E+03	5.021616E-18	1.656308E-18
6.595104E+03	5.053655E-18	1.666726E-18
6.605007E+03	5.086978E-18	1.677564E-18
6.614909E+03	5.121596E-18	1.688827E-18
6.624812E+03	5.157601E-18	1.700544E-18
6.634714E+03	5.195008E-18	1.712721E-18
6.644617E+03	5.233649E-18	1.725302E-18
6.654520E+03	5.273710E-18	1.738348E-18
6.664422E+03	5.315023E-18	1.751803E-18
6.674325E+03	5.357782E-18	1.765732E-18
6.684227E+03	5.401901E-18	1.780107E-18
6.694130E+03	5.447302E-18	1.794900E-18
6.704032E+03	5.494184E-18	1.810177E-18
6.713935E+03	5.542367E-18	1.825880E-18
6.723837E+03	5.591955E-18	1.842042E-18
6.733740E+03	5.642965E-18	1.858669E-18
6.743643E+03	5.695407E-18	1.875763E-18
6.753545E+03	5.749189E-18	1.893296E-18
6.763448E+03	5.804428E-18	1.911303E-18
6.773350E+03	5.861030E-18	1.929756E-18
6.783253E+03	5.919110E-18	1.948691E-18
6.793155E+03	5.978572E-18	1.968076E-18
6.803058E+03	6.039428E-18	1.987916E-18
6.812960E+03	6.101794E-18	2.008248E-18
6.822863E+03	6.165458E-18	2.029003E-18
6.832766E+03	6.230657E-18	2.050258E-18
6.842668E+03	6.297282E-18	2.071978E-18
6.852571E+03	6.365347E-18	2.094167E-18
6.862473E+03	6.434855E-18	2.116825E-18
6.872376E+03	6.505816E-18	2.139956E-18
6.882278E+03	6.578113E-18	2.163521E-18
6.892181E+03	6.651874E-18	2.187562E-18
6.902083E+03	6.727106E-18	2.212082E-18
6.911986E+03	6.803817E-18	2.237082E-18
6.921889E+03	6.881748E-18	2.262477E-18
6.931791E+03	6.961297E-18	2.288399E-18
6.941694E+03	7.042065E-18	2.314715E-18
6.951596E+03	7.124324E-18	2.341515E-18
6.961499E+03	7.207938E-18	2.368755E-18
6.971401E+03	7.292904E-18	2.396432E-18
6.981304E+03	7.379223E-18	2.424548E-18
6.991207E+03	7.466890E-18	2.453101E-18
7.001109E+03	7.555752E-18	2.482039E-18
7.011012E+03	7.645951E-18	2.511409E-18
7.020914E+03	7.737482E-18	2.541211E-18
7.030817E+03	7.830186E-18	2.571390E-18
7.040719E+03	7.924204E-18	2.601995E-18
7.050622E+03	8.019370E-18	2.632969E-18
7.060524E+03	8.115671E-18	2.664308E-18
7.070427E+03	8.213088E-18	2.696007E-18
7.080330E+03	8.311777E-18	2.728116E-18
7.090232E+03	8.411380E-18	2.760517E-18
7.100135E+03	8.511870E-18	2.793202E-18
7.110037E+03	8.613578E-18	2.826279E-18
7.119940E+03	8.716129E-18	2.859625E-18
7.129842E+03	8.819489E-18	2.893229E-18
7.139745E+03	8.923817E-18	2.927142E-18
7.149647E+03	9.028896E-18	2.961293E-18
7.159550E+03	9.134692E-18	2.995672E-18
7.169453E+03	9.241171E-18	3.030267E-18
7.179355E+03	9.348292E-18	3.065065E-18
7.189258E+03	9.456225E-18	3.100120E-18
7.199160E+03	9.564521E-18	3.135286E-18
7.209063E+03	9.673549E-18	3.170684E-18
7.218965E+03	9.783066E-18	3.206234E-18
7.228868E+03	9.893025E-18	3.241920E-18
7.238770E+03	1.000360E-17	3.277801E-18
7.248673E+03	1.011453E-17	3.313789E-18
7.258576E+03	1.022600E-17	3.349944E-18
7.268478E+03	1.033796E-17	3.386252E-18
7.278381E+03	1.045060E-17	3.422777E-18
7.288283E+03	1.056391E-17	3.459509E-18
7.298186E+03	1.067808E-17	3.496517E-18
7.308088E+03	1.079285E-17	3.533711E-18
7.317991E+03	1.090893E-17	3.571326E-18
7.327894E+03	1.102633E-17	3.609363E-18
7.337796E+03	1.114478E-17	3.647736E-18
7.347699E+03	1.126505E-17	3.686696E-18
7.357601E+03	1.138691E-17	3.726165E-18
7.367504E+03	1.151062E-17	3.766234E-18
7.377406E+03	1.163595E-17	3.806820E-18
7.387309E+03	1.176317E-17	3.848017E-18
7.397211E+03	1.189146E-17	3.889556E-18
7.407114E+03	1.202139E-17	3.931618E-18
7.417017E+03	1.215208E-17	3.973922E-18
7.426919E+03	1.228381E-17	4.016555E-18
7.436822E+03	1.241626E-17	4.059413E-18
7.446724E+03	1.254909E-17	4.102388E-18
7.456627E+03	1.268257E-17	4.145565E-18
7.466529E+03	1.281574E-17	4.188627E-18
7.476432E+03	1.294914E-17	4.231759E-18
7.486334E+03	1.308241E-17	4.274839E-18
7.496237E+03	1.321549E-17	4.317845E-18
7.506140E+03	1.334799E-17	4.360652E-18
7.516042E+03	1.348016E-17	4.403340E-18
7.525945E+03	1.361159E-17	4.445778E-18
7.535847E+03	1.374220E-17	4.487940E-18
7.545750E+03	1.387225E-17	4.529910E-18
7.555652E+03	1.400132E-17	4.571552E-18
7.565555E+03	1.412969E-17	4.612953E-18
7.575457E+03	1.425656E-17	4.653855E-18
7.585360E+03	1.438254E-17	4.694461E-18
7.595263E+03	1.450721E-17	4.734628E-18
7.605165E+03	1.463083E-17	4.774446E-18
7.615068E+03	1.475297E-17	4.813769E-18
7.624970E+03	1.487351E-17	4.852565E-18
7.634873E+03	1.499237E-17	4.890804E-18
7.644775E+03	1.511025E-17	4.928713E-18
7.654678E+03	1.522588E-17	4.965882E-18
7.664581E+03	1.534036E-17	5.002668E-18
7.674483E+03	1.545281E-17	5.038786E-18
7.684386E+03	1.556356E-17	5.074341E-18
