#wls	flux	fluxerr
1.584409E+03	7.522474E-17	1.418132E-17
1.624020E+03	7.821415E-17	1.474480E-17
1.663630E+03	8.093229E-17	1.525713E-17
1.703240E+03	8.334017E-17	1.571096E-17
1.742850E+03	8.536433E-17	1.609244E-17
1.782461E+03	8.694966E-17	1.639117E-17
1.822071E+03	8.797143E-17	1.658366E-17
1.861681E+03	8.833387E-17	1.665184E-17
1.901291E+03	8.792512E-17	1.657463E-17
1.940902E+03	8.664521E-17	1.633320E-17
1.980512E+03	8.449871E-17	1.592841E-17
2.020122E+03	8.162042E-17	1.538567E-17
2.059732E+03	7.836772E-17	1.477235E-17
2.099342E+03	7.530353E-17	1.419457E-17
2.138953E+03	7.300408E-17	1.376095E-17
2.178563E+03	7.176736E-17	1.352765E-17
2.218173E+03	7.145433E-17	1.346845E-17
2.257783E+03	7.160906E-17	1.349740E-17
2.297394E+03	7.172371E-17	1.351879E-17
2.337004E+03	7.144383E-17	1.346581E-17
2.376614E+03	7.057675E-17	1.330214E-17
2.416224E+03	6.907633E-17	1.301910E-17
2.455835E+03	6.697248E-17	1.262233E-17
2.495445E+03	6.434979E-17	1.212778E-17
2.535055E+03	6.130265E-17	1.155324E-17
2.574665E+03	5.793393E-17	1.091811E-17
2.614276E+03	5.433433E-17	1.023949E-17
2.653886E+03	5.058811E-17	9.533268E-18
2.693496E+03	4.677145E-17	8.813791E-18
2.733106E+03	4.294790E-17	8.093046E-18
2.772716E+03	3.917461E-17	7.381802E-18
2.812327E+03	3.550075E-17	6.689324E-18
2.851937E+03	3.197050E-17	6.023941E-18
2.891547E+03	2.862286E-17	5.392998E-18
2.931157E+03	2.548947E-17	4.802455E-18
2.970768E+03	2.259462E-17	4.256890E-18
2.980670E+03	2.191012E-17	4.127891E-18
2.990573E+03	2.124124E-17	4.001837E-18
3.000475E+03	2.058890E-17	3.878901E-18
3.010378E+03	1.995210E-17	3.758893E-18
3.020280E+03	1.933163E-17	3.641966E-18
3.030183E+03	1.872739E-17	3.528097E-18
3.040086E+03	1.813982E-17	3.417370E-18
3.049988E+03	1.756866E-17	3.309737E-18
3.059891E+03	1.701546E-17	3.205489E-18
3.069793E+03	1.647891E-17	3.104381E-18
3.079696E+03	1.595918E-17	3.006440E-18
3.089598E+03	1.545573E-17	2.911570E-18
3.099501E+03	1.496780E-17	2.819625E-18
3.109403E+03	1.449556E-17	2.730637E-18
3.119306E+03	1.403831E-17	2.644474E-18
3.129209E+03	1.359593E-17	2.561112E-18
3.139111E+03	1.316803E-17	2.480482E-18
3.149014E+03	1.275426E-17	2.402515E-18
3.158916E+03	1.235452E-17	2.327191E-18
3.168819E+03	1.196845E-17	2.254442E-18
3.178721E+03	1.159551E-17	2.184169E-18
3.188624E+03	1.123579E-17	2.116389E-18
3.198526E+03	1.088879E-17	2.051004E-18
3.208429E+03	1.055437E-17	1.987990E-18
3.218332E+03	1.023221E-17	1.927287E-18
3.228234E+03	9.921841E-18	1.868807E-18
3.238137E+03	9.623295E-18	1.812554E-18
3.248039E+03	9.335952E-18	1.758412E-18
3.257942E+03	9.059821E-18	1.706383E-18
3.267844E+03	8.794591E-18	1.656409E-18
3.277747E+03	8.539706E-18	1.608383E-18
3.287650E+03	8.295139E-18	1.562302E-18
3.297552E+03	8.060601E-18	1.518111E-18
3.307455E+03	7.835678E-18	1.475731E-18
3.317357E+03	7.620098E-18	1.435112E-18
3.327260E+03	7.413592E-18	1.396203E-18
3.337162E+03	7.215899E-18	1.358954E-18
3.347065E+03	7.026743E-18	1.323314E-18
3.356967E+03	6.845865E-18	1.289233E-18
3.366870E+03	6.672929E-18	1.256649E-18
3.376773E+03	6.507609E-18	1.225500E-18
3.386675E+03	6.349833E-18	1.195772E-18
3.396578E+03	6.199128E-18	1.167376E-18
3.406480E+03	6.055357E-18	1.140287E-18
3.416383E+03	5.918231E-18	1.114449E-18
3.426285E+03	5.787550E-18	1.089826E-18
3.436188E+03	5.662977E-18	1.066354E-18
3.446090E+03	5.544269E-18	1.043986E-18
3.455993E+03	5.431254E-18	1.022691E-18
3.465896E+03	5.323645E-18	1.002414E-18
3.475798E+03	5.221291E-18	9.831272E-19
3.485701E+03	5.123817E-18	9.647595E-19
3.495603E+03	5.031098E-18	9.472878E-19
3.505506E+03	4.942855E-18	9.306590E-19
3.515408E+03	4.858876E-18	9.148336E-19
3.525311E+03	4.778967E-18	8.997748E-19
3.535213E+03	4.702845E-18	8.854293E-19
3.545116E+03	4.630441E-18	8.717841E-19
3.555019E+03	4.561544E-18	8.587994E-19
3.564921E+03	4.495957E-18	8.464383E-19
3.574824E+03	4.433627E-18	8.346906E-19
3.584726E+03	4.374331E-18	8.235142E-19
3.594629E+03	4.317941E-18	8.128852E-19
3.604531E+03	4.264336E-18	8.027809E-19
3.614434E+03	4.213401E-18	7.931793E-19
3.624337E+03	4.165025E-18	7.840596E-19
3.634239E+03	4.119101E-18	7.754016E-19
3.644142E+03	4.075562E-18	7.671929E-19
3.654044E+03	4.034345E-18	7.594213E-19
3.663947E+03	3.995346E-18	7.520675E-19
3.673849E+03	3.958610E-18	7.451397E-19
3.683752E+03	3.923999E-18	7.386121E-19
3.693654E+03	3.891519E-18	7.324858E-19
3.703557E+03	3.861104E-18	7.267481E-19
3.713460E+03	3.832722E-18	7.213933E-19
3.723362E+03	3.806404E-18	7.164269E-19
3.733265E+03	3.782018E-18	7.118243E-19
3.743167E+03	3.759595E-18	7.075913E-19
3.753070E+03	3.739130E-18	7.037267E-19
3.762972E+03	3.720523E-18	7.002119E-19
3.772875E+03	3.703801E-18	6.970519E-19
3.782777E+03	3.688956E-18	6.942451E-19
3.792680E+03	3.675922E-18	6.917792E-19
3.802583E+03	3.664661E-18	6.896469E-19
3.812485E+03	3.655226E-18	6.878581E-19
3.822388E+03	3.647520E-18	6.863947E-19
3.832290E+03	3.641564E-18	6.852606E-19
3.842193E+03	3.637323E-18	6.844491E-19
3.852095E+03	3.634788E-18	6.839587E-19
3.861998E+03	3.633953E-18	6.837878E-19
3.871900E+03	3.634752E-18	6.839244E-19
3.881803E+03	3.637179E-18	6.843672E-19
3.891706E+03	3.641256E-18	6.851204E-19
3.901608E+03	3.646949E-18	6.861775E-19
3.911511E+03	3.654224E-18	6.875320E-19
3.921413E+03	3.663076E-18	6.891829E-19
3.931316E+03	3.673471E-18	6.911242E-19
3.941218E+03	3.685406E-18	6.933550E-19
3.951121E+03	3.698878E-18	6.958747E-19
3.961024E+03	3.713884E-18	6.986826E-19
3.970926E+03	3.730365E-18	7.017679E-19
3.980829E+03	3.748318E-18	7.051297E-19
3.990731E+03	3.767742E-18	7.087682E-19
4.000634E+03	3.788638E-18	7.126831E-19
4.010536E+03	3.810976E-18	7.168690E-19
4.020439E+03	3.834728E-18	7.213205E-19
4.030341E+03	3.859895E-18	7.260380E-19
4.040244E+03	3.886449E-18	7.310159E-19
4.050147E+03	3.914393E-18	7.362550E-19
4.060049E+03	3.943699E-18	7.417498E-19
4.069952E+03	3.974370E-18	7.475011E-19
4.079854E+03	4.006381E-18	7.535038E-19
4.089757E+03	4.039704E-18	7.597529E-19
4.099659E+03	4.074344E-18	7.662493E-19
4.109562E+03	4.110274E-18	7.729878E-19
4.119464E+03	4.147501E-18	7.799698E-19
4.129367E+03	4.185965E-18	7.871838E-19
4.139270E+03	4.225673E-18	7.946312E-19
4.149172E+03	4.266563E-18	8.023005E-19
4.159075E+03	4.308676E-18	8.101991E-19
4.168977E+03	4.351950E-18	8.183155E-19
4.178880E+03	4.396390E-18	8.266508E-19
4.188782E+03	4.441901E-18	8.351867E-19
4.198685E+03	4.488522E-18	8.439305E-19
4.208587E+03	4.536152E-18	8.528636E-19
4.218490E+03	4.584828E-18	8.619928E-19
4.228393E+03	4.634450E-18	8.712991E-19
4.238295E+03	4.684946E-18	8.807689E-19
4.248198E+03	4.736350E-18	8.904090E-19
4.258100E+03	4.788518E-18	9.001918E-19
4.268003E+03	4.841482E-18	9.101235E-19
4.277905E+03	4.895088E-18	9.201753E-19
4.287808E+03	4.949369E-18	9.303531E-19
4.297711E+03	5.004241E-18	9.406413E-19
4.307613E+03	5.059617E-18	9.510235E-19
4.317516E+03	5.115487E-18	9.614978E-19
4.327418E+03	5.171802E-18	9.720548E-19
4.337321E+03	5.228593E-18	9.827005E-19
4.347223E+03	5.285769E-18	9.934178E-19
4.357126E+03	5.343405E-18	1.004221E-18
4.367028E+03	5.401497E-18	1.015108E-18
4.376931E+03	5.460040E-18	1.026080E-18
4.386834E+03	5.519032E-18	1.037135E-18
4.396736E+03	5.578516E-18	1.048282E-18
4.406639E+03	5.638449E-18	1.059512E-18
4.416541E+03	5.698877E-18	1.070834E-18
4.426444E+03	5.759806E-18	1.082250E-18
4.436346E+03	5.821241E-18	1.093759E-18
4.446249E+03	5.883142E-18	1.105355E-18
4.456151E+03	5.945515E-18	1.117039E-18
4.466054E+03	6.008319E-18	1.128803E-18
4.475957E+03	6.071616E-18	1.140658E-18
4.485859E+03	6.135315E-18	1.152588E-18
4.495762E+03	6.199427E-18	1.164595E-18
4.505664E+03	6.263967E-18	1.176681E-18
4.515567E+03	6.328842E-18	1.188828E-18
4.525469E+03	6.394123E-18	1.201051E-18
4.535372E+03	6.459717E-18	1.213332E-18
4.545274E+03	6.525644E-18	1.225674E-18
4.555177E+03	6.591810E-18	1.238060E-18
4.565080E+03	6.658292E-18	1.250504E-18
4.574982E+03	6.725060E-18	1.263000E-18
4.584885E+03	6.792020E-18	1.275531E-18
4.594787E+03	6.859198E-18	1.288103E-18
4.604690E+03	6.926625E-18	1.300719E-18
4.614592E+03	6.994273E-18	1.313376E-18
4.624495E+03	7.062051E-18	1.326056E-18
4.634398E+03	7.130122E-18	1.338790E-18
4.644300E+03	7.198529E-18	1.351586E-18
4.654203E+03	7.267190E-18	1.364428E-18
4.664105E+03	7.336153E-18	1.377325E-18
4.674008E+03	7.405468E-18	1.390287E-18
4.683910E+03	7.474997E-18	1.403289E-18
4.693813E+03	7.544785E-18	1.416337E-18
4.703715E+03	7.614750E-18	1.429417E-18
4.713618E+03	7.684957E-18	1.442541E-18
4.723521E+03	7.755389E-18	1.455706E-18
4.733423E+03	7.825973E-18	1.468898E-18
4.743326E+03	7.896758E-18	1.482127E-18
4.753228E+03	7.967678E-18	1.495379E-18
4.763131E+03	8.038782E-18	1.508664E-18
4.773033E+03	8.109996E-18	1.521968E-18
4.782936E+03	8.181303E-18	1.535289E-18
4.792838E+03	8.252703E-18	1.548625E-18
4.802741E+03	8.324253E-18	1.561988E-18
4.812644E+03	8.395870E-18	1.575362E-18
4.822546E+03	8.467532E-18	1.588743E-18
4.832449E+03	8.539154E-18	1.602114E-18
4.842351E+03	8.610884E-18	1.615505E-18
4.852254E+03	8.682609E-18	1.628892E-18
4.862156E+03	8.754328E-18	1.642277E-18
4.872059E+03	8.825920E-18	1.655637E-18
4.881961E+03	8.897458E-18	1.668984E-18
4.891864E+03	8.968830E-18	1.682299E-18
4.901767E+03	9.039994E-18	1.695573E-18
4.911669E+03	9.111018E-18	1.708819E-18
4.921572E+03	9.181773E-18	1.722013E-18
4.931474E+03	9.252226E-18	1.735149E-18
4.941377E+03	9.322242E-18	1.748200E-18
4.951279E+03	9.391863E-18	1.761176E-18
4.961182E+03	9.461050E-18	1.774069E-18
4.971085E+03	9.529657E-18	1.786851E-18
4.980987E+03	9.597624E-18	1.799512E-18
4.990890E+03	9.664902E-18	1.812041E-18
5.000792E+03	9.731325E-18	1.824409E-18
5.010695E+03	9.796933E-18	1.836621E-18
5.020597E+03	9.861650E-18	1.848665E-18
5.030500E+03	9.925216E-18	1.860492E-18
5.040402E+03	9.987652E-18	1.872104E-18
5.050305E+03	1.004888E-17	1.883488E-18
5.060208E+03	1.010873E-17	1.894612E-18
5.070110E+03	1.016711E-17	1.905460E-18
5.080013E+03	1.022394E-17	1.916014E-18
5.089915E+03	1.027912E-17	1.926259E-18
5.099818E+03	1.033248E-17	1.936160E-18
5.109720E+03	1.038402E-17	1.945719E-18
5.119623E+03	1.043344E-17	1.954878E-18
5.129525E+03	1.048076E-17	1.963641E-18
5.139428E+03	1.052577E-17	1.971972E-18
5.149331E+03	1.056838E-17	1.979851E-18
5.159233E+03	1.060850E-17	1.987261E-18
5.169136E+03	1.064603E-17	1.994184E-18
5.179038E+03	1.068067E-17	2.000565E-18
5.188941E+03	1.071253E-17	2.006425E-18
5.198843E+03	1.074144E-17	2.011729E-18
5.208746E+03	1.076729E-17	2.016460E-18
5.218648E+03	1.078992E-17	2.020585E-18
5.228551E+03	1.080924E-17	2.024091E-18
5.238454E+03	1.082520E-17	2.026965E-18
5.248356E+03	1.083774E-17	2.029199E-18
5.258259E+03	1.084680E-17	2.030780E-18
5.268161E+03	1.085225E-17	2.031682E-18
5.278064E+03	1.085428E-17	2.031945E-18
5.287966E+03	1.085264E-17	2.031520E-18
5.297869E+03	1.084735E-17	2.030410E-18
5.307772E+03	1.083863E-17	2.028659E-18
5.317674E+03	1.082630E-17	2.026229E-18
5.327577E+03	1.081059E-17	2.023169E-18
5.337479E+03	1.079148E-17	2.019471E-18
5.347382E+03	1.076914E-17	2.015167E-18
5.357284E+03	1.074353E-17	2.010253E-18
5.367187E+03	1.071499E-17	2.004789E-18
5.377089E+03	1.068351E-17	1.998774E-18
5.386992E+03	1.064933E-17	1.992256E-18
5.396895E+03	1.061237E-17	1.985216E-18
5.406797E+03	1.057290E-17	1.977707E-18
5.416700E+03	1.053097E-17	1.969739E-18
5.426602E+03	1.048667E-17	1.961326E-18
5.436505E+03	1.044026E-17	1.952520E-18
5.446407E+03	1.039176E-17	1.943322E-18
5.456310E+03	1.034123E-17	1.933747E-18
5.466212E+03	1.028891E-17	1.923836E-18
5.476115E+03	1.023480E-17	1.913592E-18
5.486018E+03	1.017923E-17	1.903073E-18
5.495920E+03	1.012210E-17	1.892265E-18
5.505823E+03	1.006383E-17	1.881245E-18
5.515725E+03	1.000457E-17	1.870039E-18
5.525628E+03	9.944405E-18	1.858665E-18
5.535530E+03	9.883577E-18	1.847168E-18
5.545433E+03	9.822283E-18	1.835585E-18
5.555335E+03	9.760634E-18	1.823936E-18
5.565238E+03	9.699024E-18	1.812295E-18
5.575141E+03	9.637454E-18	1.800662E-18
5.585043E+03	9.576306E-18	1.789109E-18
5.594946E+03	9.515549E-18	1.777630E-18
5.604848E+03	9.455543E-18	1.766292E-18
5.614751E+03	9.396452E-18	1.755126E-18
5.624653E+03	9.338309E-18	1.744137E-18
5.634556E+03	9.281364E-18	1.733373E-18
5.644459E+03	9.225730E-18	1.722854E-18
5.654361E+03	9.171625E-18	1.712622E-18
5.664264E+03	9.119146E-18	1.702694E-18
5.674166E+03	9.068312E-18	1.693074E-18
5.684069E+03	9.019382E-18	1.683810E-18
5.693971E+03	8.972444E-18	1.674918E-18
5.703874E+03	8.927487E-18	1.666397E-18
5.713776E+03	8.884653E-18	1.658272E-18
5.723679E+03	8.844102E-18	1.650574E-18
5.733582E+03	8.805890E-18	1.643313E-18
5.743484E+03	8.769961E-18	1.636478E-18
5.753387E+03	8.736456E-18	1.630096E-18
5.763289E+03	8.705504E-18	1.624190E-18
5.773192E+03	8.677133E-18	1.618765E-18
5.783094E+03	8.651274E-18	1.613810E-18
5.792997E+03	8.628042E-18	1.609344E-18
5.802899E+03	8.607446E-18	1.605370E-18
5.812802E+03	8.589608E-18	1.601910E-18
5.822705E+03	8.574540E-18	1.598966E-18
5.832607E+03	8.562134E-18	1.596519E-18
5.842510E+03	8.552495E-18	1.594587E-18
5.852412E+03	8.545535E-18	1.593153E-18
5.862315E+03	8.541520E-18	1.592268E-18
5.872217E+03	8.540158E-18	1.591877E-18
5.882120E+03	8.541538E-18	1.591997E-18
5.892022E+03	8.545733E-18	1.592640E-18
5.901925E+03	8.552621E-18	1.593783E-18
5.911828E+03	8.562190E-18	1.595426E-18
5.921730E+03	8.574497E-18	1.597577E-18
5.931633E+03	8.589419E-18	1.600215E-18
5.941535E+03	8.607016E-18	1.603349E-18
5.951438E+03	8.627045E-18	1.606935E-18
5.961340E+03	8.649667E-18	1.611002E-18
5.971243E+03	8.674634E-18	1.615504E-18
5.981146E+03	8.702088E-18	1.620468E-18
5.991048E+03	8.731679E-18	1.625828E-18
6.000951E+03	8.763544E-18	1.631609E-18
6.010853E+03	8.797518E-18	1.637781E-18
6.020756E+03	8.833542E-18	1.644332E-18
6.030658E+03	8.871333E-18	1.651211E-18
6.040561E+03	8.911021E-18	1.658440E-18
6.050463E+03	8.952221E-18	1.665948E-18
6.060366E+03	8.995069E-18	1.673760E-18
6.070269E+03	9.039148E-18	1.681800E-18
6.080171E+03	9.084374E-18	1.690050E-18
6.090074E+03	9.130550E-18	1.698474E-18
6.099976E+03	9.177576E-18	1.707053E-18
6.109879E+03	9.225018E-18	1.715708E-18
6.119781E+03	9.272767E-18	1.724416E-18
6.129684E+03	9.320602E-18	1.733138E-18
6.139586E+03	9.368420E-18	1.741854E-18
6.149489E+03	9.416112E-18	1.750544E-18
6.159392E+03	9.463804E-18	1.759232E-18
6.169294E+03	9.511772E-18	1.767967E-18
6.179197E+03	9.560057E-18	1.776759E-18
6.189099E+03	9.608831E-18	1.785639E-18
6.199002E+03	9.658271E-18	1.794640E-18
6.208904E+03	9.708463E-18	1.803778E-18
6.218807E+03	9.759606E-18	1.813089E-18
6.228709E+03	9.811804E-18	1.822593E-18
6.238612E+03	9.865152E-18	1.832308E-18
6.248515E+03	9.919906E-18	1.842281E-18
6.258417E+03	9.976057E-18	1.852510E-18
6.268320E+03	1.003388E-17	1.863046E-18
6.278222E+03	1.009324E-17	1.873865E-18
6.288125E+03	1.015430E-17	1.884994E-18
6.298027E+03	1.021705E-17	1.896436E-18
6.307930E+03	1.028168E-17	1.908223E-18
6.317833E+03	1.034807E-17	1.920331E-18
6.327735E+03	1.041624E-17	1.932766E-18
6.337638E+03	1.048606E-17	1.945504E-18
6.347540E+03	1.055726E-17	1.958494E-18
6.357443E+03	1.062971E-17	1.971712E-18
6.367345E+03	1.070341E-17	1.985156E-18
6.377248E+03	1.077836E-17	1.998829E-18
6.387150E+03	1.085460E-17	2.012737E-18
6.397053E+03	1.093230E-17	2.026911E-18
6.406956E+03	1.101164E-17	2.041384E-18
6.416858E+03	1.109265E-17	2.056164E-18
6.426761E+03	1.117520E-17	2.071224E-18
6.436663E+03	1.125966E-17	2.086633E-18
6.446566E+03	1.134607E-17	2.102399E-18
6.456468E+03	1.143429E-17	2.118494E-18
6.466371E+03	1.152454E-17	2.134960E-18
6.476273E+03	1.161684E-17	2.151803E-18
6.486176E+03	1.171108E-17	2.168998E-18
6.496079E+03	1.180727E-17	2.186549E-18
6.505981E+03	1.190585E-17	2.204537E-18
6.515884E+03	1.200627E-17	2.222861E-18
6.525786E+03	1.210897E-17	2.241601E-18
6.535689E+03	1.221398E-17	2.260763E-18
6.545591E+03	1.232096E-17	2.280282E-18
6.555494E+03	1.243033E-17	2.300238E-18
6.565396E+03	1.254173E-17	2.320564E-18
6.575299E+03	1.265560E-17	2.341341E-18
6.585202E+03	1.277158E-17	2.362501E-18
6.595104E+03	1.288990E-17	2.384087E-18
6.605007E+03	1.301060E-17	2.406106E-18
6.614909E+03	1.313349E-17	2.428524E-18
6.624812E+03	1.325861E-17	2.451347E-18
6.634714E+03	1.338621E-17	2.474621E-18
6.644617E+03	1.351610E-17	2.498311E-18
6.654520E+03	1.364829E-17	2.522420E-18
6.664422E+03	1.378283E-17	2.546955E-18
6.674325E+03	1.391973E-17	2.571918E-18
6.684227E+03	1.405903E-17	2.597315E-18
6.694130E+03	1.420074E-17	2.623151E-18
6.704032E+03	1.434465E-17	2.649384E-18
6.713935E+03	1.449101E-17	2.676062E-18
6.723837E+03	1.463985E-17	2.703190E-18
6.733740E+03	1.479095E-17	2.730725E-18
6.743643E+03	1.494456E-17	2.758717E-18
6.753545E+03	1.510045E-17	2.787119E-18
6.763448E+03	1.525863E-17	2.815934E-18
6.773350E+03	1.541910E-17	2.845163E-18
6.783253E+03	1.558187E-17	2.874808E-18
6.793155E+03	1.574724E-17	2.904922E-18
6.803058E+03	1.591464E-17	2.935401E-18
6.812960E+03	1.608436E-17	2.966298E-18
6.822863E+03	1.625639E-17	2.997612E-18
6.832766E+03	1.643046E-17	3.029290E-18
6.842668E+03	1.660684E-17	3.061386E-18
6.852571E+03	1.678554E-17	3.093898E-18
6.862473E+03	1.696624E-17	3.126768E-18
6.872376E+03	1.714893E-17	3.159994E-18
6.882278E+03	1.733392E-17	3.193633E-18
6.892181E+03	1.752087E-17	3.227623E-18
6.902083E+03	1.770976E-17	3.261958E-18
6.911986E+03	1.790058E-17	3.296637E-18
6.921889E+03	1.809330E-17	3.331656E-18
6.931791E+03	1.828755E-17	3.366945E-18
6.941694E+03	1.848402E-17	3.402630E-18
6.951596E+03	1.868196E-17	3.438573E-18
6.961499E+03	1.888171E-17	3.474840E-18
6.971401E+03	1.908287E-17	3.511353E-18
6.981304E+03	1.928540E-17	3.548107E-18
6.991207E+03	1.948966E-17	3.585165E-18
7.001109E+03	1.969521E-17	3.622451E-18
7.011012E+03	1.990163E-17	3.659883E-18
7.020914E+03	2.010967E-17	3.697601E-18
7.030817E+03	2.031890E-17	3.735523E-18
7.040719E+03	2.052885E-17	3.773568E-18
7.050622E+03	2.073990E-17	3.811801E-18
7.060524E+03	2.095158E-17	3.850136E-18
7.070427E+03	2.116425E-17	3.888642E-18
7.080330E+03	2.137745E-17	3.927231E-18
7.090232E+03	2.159155E-17	3.965973E-18
7.100135E+03	2.180562E-17	4.004698E-18
7.110037E+03	2.202004E-17	4.043473E-18
7.119940E+03	2.223521E-17	4.082372E-18
7.129842E+03	2.245014E-17	4.121216E-18
7.139745E+03	2.266478E-17	4.159992E-18
7.149647E+03	2.287950E-17	4.198771E-18
7.159550E+03	2.309426E-17	4.237543E-18
7.169453E+03	2.330848E-17	4.276205E-18
7.179355E+03	2.352261E-17	4.314836E-18
7.189258E+03	2.373608E-17	4.353332E-18
7.199160E+03	2.394878E-17	4.391675E-18
7.209063E+03	2.416116E-17	4.429947E-18
7.218965E+03	2.437265E-17	4.468042E-18
7.228868E+03	2.458368E-17	4.506041E-18
7.238770E+03	2.479365E-17	4.543833E-18
7.248673E+03	2.500250E-17	4.581407E-18
7.258576E+03	2.521125E-17	4.618948E-18
7.268478E+03	2.541874E-17	4.656247E-18
7.278381E+03	2.562603E-17	4.693499E-18
7.288283E+03	2.583252E-17	4.730590E-18
7.298186E+03	2.603875E-17	4.767621E-18
7.308088E+03	2.624528E-17	4.804694E-18
7.317991E+03	2.645151E-17	4.841702E-18
7.327894E+03	2.665864E-17	4.878862E-18
7.337796E+03	2.686671E-17	4.916180E-18
7.347699E+03	2.707636E-17	4.953775E-18
7.357601E+03	2.728766E-17	4.991661E-18
7.367504E+03	2.750067E-17	5.029847E-18
7.377406E+03	2.771611E-17	5.068465E-18
7.387309E+03	2.793279E-17	5.107296E-18
7.397211E+03	2.815074E-17	5.146348E-18
7.407114E+03	2.836937E-17	5.185511E-18
7.417017E+03	2.858939E-17	5.224916E-18
7.426919E+03	2.881017E-17	5.264448E-18
7.436822E+03	2.903108E-17	5.303990E-18
7.446724E+03	2.925213E-17	5.343545E-18
7.456627E+03	2.947331E-17	5.383113E-18
7.466529E+03	2.969394E-17	5.422566E-18
7.476432E+03	2.991468E-17	5.462028E-18
7.486334E+03	3.013411E-17	5.501238E-18
7.496237E+03	3.035360E-17	5.540448E-18
7.506140E+03	3.057242E-17	5.579522E-18
7.516042E+03	3.079049E-17	5.618450E-18
7.525945E+03	3.100702E-17	5.657083E-18
7.535847E+03	3.122267E-17	5.695544E-18
7.545750E+03	3.143735E-17	5.733816E-18
7.555652E+03	3.165095E-17	5.771883E-18
7.565555E+03	3.186261E-17	5.809582E-18
7.575457E+03	3.207296E-17	5.847031E-18
7.585360E+03	3.228106E-17	5.884061E-18
7.595263E+03	3.248837E-17	5.920935E-18
7.605165E+03	3.269229E-17	5.957181E-18
7.615068E+03	3.289506E-17	5.993208E-18
7.624970E+03	3.309571E-17	6.028836E-18
7.634873E+03	3.329316E-17	6.063874E-18
7.644775E+03	3.348805E-17	6.098435E-18
7.654678E+03	3.368012E-17	6.132475E-18
7.664581E+03	3.386916E-17	6.165951E-18
7.674483E+03	3.405492E-17	6.198823E-18
7.684386E+03	3.423800E-17	6.231199E-18
