#wls	flux	fluxerr
1.584409E+03	1.333873E-16	3.096345E-17
1.624020E+03	1.388630E-16	3.218087E-17
1.663630E+03	1.440508E-16	3.332615E-17
1.703240E+03	1.489316E-16	3.439513E-17
1.742850E+03	1.534104E-16	3.536607E-17
1.782461E+03	1.573597E-16	3.621002E-17
1.822071E+03	1.606167E-16	3.689009E-17
1.861681E+03	1.629583E-16	3.735594E-17
1.901291E+03	1.641572E-16	3.755669E-17
1.940902E+03	1.640121E-16	3.744787E-17
1.980512E+03	1.624197E-16	3.700776E-17
2.020122E+03	1.595900E-16	3.628619E-17
2.059732E+03	1.561204E-16	3.542054E-17
2.099342E+03	1.530735E-16	3.465239E-17
2.138953E+03	1.516638E-16	3.425552E-17
2.178563E+03	1.526402E-16	3.439614E-17
2.218173E+03	1.558825E-16	3.504344E-17
2.257783E+03	1.605994E-16	3.601622E-17
2.297394E+03	1.657019E-16	3.706827E-17
2.337004E+03	1.703082E-16	3.800199E-17
2.376614E+03	1.738593E-16	3.869364E-17
2.416224E+03	1.760924E-16	3.908654E-17
2.455835E+03	1.769557E-16	3.917151E-17
2.495445E+03	1.764835E-16	3.895850E-17
2.535055E+03	1.747961E-16	3.847649E-17
2.574665E+03	1.720007E-16	3.775133E-17
2.614276E+03	1.682189E-16	3.681182E-17
2.653886E+03	1.635612E-16	3.568413E-17
2.693496E+03	1.581432E-16	3.439528E-17
2.733106E+03	1.520691E-16	3.296961E-17
2.772716E+03	1.454399E-16	3.143050E-17
2.812327E+03	1.383666E-16	2.980330E-17
2.851937E+03	1.309548E-16	2.811187E-17
2.891547E+03	1.233186E-16	2.638161E-17
2.931157E+03	1.155710E-16	2.463740E-17
2.970768E+03	1.078210E-16	2.290297E-17
2.980670E+03	1.058948E-16	2.247339E-17
2.990573E+03	1.039766E-16	2.204617E-17
3.000475E+03	1.020675E-16	2.162153E-17
3.010378E+03	1.001707E-16	2.120018E-17
3.020280E+03	9.828523E-17	2.078187E-17
3.030183E+03	9.641209E-17	2.036684E-17
3.040086E+03	9.455746E-17	1.995637E-17
3.049988E+03	9.272206E-17	1.955062E-17
3.059891E+03	9.091406E-17	1.915129E-17
3.069793E+03	8.913071E-17	1.875781E-17
3.079696E+03	8.737149E-17	1.837004E-17
3.089598E+03	8.563949E-17	1.798862E-17
3.099501E+03	8.393102E-17	1.761278E-17
3.109403E+03	8.224781E-17	1.724286E-17
3.119306E+03	8.058998E-17	1.687887E-17
3.129209E+03	7.895926E-17	1.652117E-17
3.139111E+03	7.735451E-17	1.616951E-17
3.149014E+03	7.577776E-17	1.582429E-17
3.158916E+03	7.422943E-17	1.548560E-17
3.168819E+03	7.270884E-17	1.515327E-17
3.178721E+03	7.121810E-17	1.482773E-17
3.188624E+03	6.975914E-17	1.450937E-17
3.198526E+03	6.833024E-17	1.419781E-17
3.208429E+03	6.693455E-17	1.389369E-17
3.218332E+03	6.557050E-17	1.359668E-17
3.228234E+03	6.424206E-17	1.330757E-17
3.238137E+03	6.294664E-17	1.302580E-17
3.248039E+03	6.168590E-17	1.275171E-17
3.257942E+03	6.046133E-17	1.248559E-17
3.267844E+03	5.927236E-17	1.222728E-17
3.277747E+03	5.812025E-17	1.197705E-17
3.287650E+03	5.700348E-17	1.173454E-17
3.297552E+03	5.592318E-17	1.149998E-17
3.307455E+03	5.487950E-17	1.127336E-17
3.317357E+03	5.387250E-17	1.105469E-17
3.327260E+03	5.290216E-17	1.084393E-17
3.337162E+03	5.196770E-17	1.064091E-17
3.347065E+03	5.106905E-17	1.044559E-17
3.356967E+03	5.020611E-17	1.025793E-17
3.366870E+03	4.937870E-17	1.007787E-17
3.376773E+03	4.858596E-17	9.905200E-18
3.386675E+03	4.782769E-17	9.739876E-18
3.396578E+03	4.710366E-17	9.581823E-18
3.406480E+03	4.641298E-17	9.430838E-18
3.416383E+03	4.575539E-17	9.286850E-18
3.426285E+03	4.513063E-17	9.149783E-18
3.436188E+03	4.453726E-17	9.019323E-18
3.446090E+03	4.397557E-17	8.895513E-18
3.455993E+03	4.344472E-17	8.778161E-18
3.465896E+03	4.294392E-17	8.667086E-18
3.475798E+03	4.247289E-17	8.562213E-18
3.485701E+03	4.203036E-17	8.463267E-18
3.495603E+03	4.161610E-17	8.370184E-18
3.505506E+03	4.122939E-17	8.282800E-18
3.515408E+03	4.086955E-17	8.200959E-18
3.525311E+03	4.053591E-17	8.124510E-18
3.535213E+03	4.022784E-17	8.053309E-18
3.545116E+03	3.994428E-17	7.987130E-18
3.555019E+03	3.968511E-17	7.925927E-18
3.564921E+03	3.944935E-17	7.869490E-18
3.574824E+03	3.923686E-17	7.817777E-18
3.584726E+03	3.904633E-17	7.770509E-18
3.594629E+03	3.887809E-17	7.727736E-18
3.604531E+03	3.873044E-17	7.689108E-18
3.614434E+03	3.860336E-17	7.654606E-18
3.624337E+03	3.849605E-17	7.624054E-18
3.634239E+03	3.840847E-17	7.597434E-18
3.644142E+03	3.833946E-17	7.574502E-18
3.654044E+03	3.828904E-17	7.555248E-18
3.663947E+03	3.825645E-17	7.539509E-18
3.673849E+03	3.824169E-17	7.527273E-18
3.683752E+03	3.824403E-17	7.518383E-18
3.693654E+03	3.826383E-17	7.512899E-18
3.703557E+03	3.830000E-17	7.510592E-18
3.713460E+03	3.835290E-17	7.511523E-18
3.723362E+03	3.842215E-17	7.515603E-18
3.733265E+03	3.850770E-17	7.522814E-18
3.743167E+03	3.860919E-17	7.533070E-18
3.753070E+03	3.872691E-17	7.546417E-18
3.762972E+03	3.886010E-17	7.562698E-18
3.772875E+03	3.900907E-17	7.581958E-18
3.782777E+03	3.917373E-17	7.604168E-18
3.792680E+03	3.935399E-17	7.629302E-18
3.802583E+03	3.954977E-17	7.657330E-18
3.812485E+03	3.976061E-17	7.688153E-18
3.822388E+03	3.998710E-17	7.721872E-18
3.832290E+03	4.022912E-17	7.758453E-18
3.842193E+03	4.048619E-17	7.797791E-18
3.852095E+03	4.075849E-17	7.839911E-18
3.861998E+03	4.104588E-17	7.884773E-18
3.871900E+03	4.134853E-17	7.932399E-18
3.881803E+03	4.166591E-17	7.982675E-18
3.891706E+03	4.199851E-17	8.035685E-18
3.901608E+03	4.234576E-17	8.091308E-18
3.911511E+03	4.270815E-17	8.149624E-18
3.921413E+03	4.308506E-17	8.210505E-18
3.931316E+03	4.347620E-17	8.273885E-18
3.941218E+03	4.388200E-17	8.339836E-18
3.951121E+03	4.430180E-17	8.408217E-18
3.961024E+03	4.473559E-17	8.479020E-18
3.970926E+03	4.518302E-17	8.552165E-18
3.980829E+03	4.564406E-17	8.627639E-18
3.990731E+03	4.611830E-17	8.705349E-18
4.000634E+03	4.660526E-17	8.785201E-18
4.010536E+03	4.710488E-17	8.867168E-18
4.020439E+03	4.761700E-17	8.951215E-18
4.030341E+03	4.814031E-17	9.037083E-18
4.040244E+03	4.867540E-17	9.124875E-18
4.050147E+03	4.922087E-17	9.214320E-18
4.060049E+03	4.977683E-17	9.305433E-18
4.069952E+03	5.034219E-17	9.397998E-18
4.079854E+03	5.091658E-17	9.491944E-18
4.089757E+03	5.149920E-17	9.587110E-18
4.099659E+03	5.208918E-17	9.683334E-18
4.109562E+03	5.268560E-17	9.780435E-18
4.119464E+03	5.328745E-17	9.878226E-18
4.129367E+03	5.389414E-17	9.976588E-18
4.139270E+03	5.450455E-17	1.007532E-17
4.149172E+03	5.511704E-17	1.017410E-17
4.159075E+03	5.573033E-17	1.027271E-17
4.168977E+03	5.634311E-17	1.037090E-17
4.178880E+03	5.695443E-17	1.046849E-17
4.188782E+03	5.756235E-17	1.056514E-17
4.198685E+03	5.816531E-17	1.066056E-17
4.208587E+03	5.876124E-17	1.075438E-17
4.218490E+03	5.934893E-17	1.084638E-17
4.228393E+03	5.992614E-17	1.093616E-17
4.238295E+03	6.049113E-17	1.102341E-17
4.248198E+03	6.104206E-17	1.110781E-17
4.258100E+03	6.157608E-17	1.118885E-17
4.268003E+03	6.209233E-17	1.126640E-17
4.277905E+03	6.258794E-17	1.133994E-17
4.287808E+03	6.306108E-17	1.140916E-17
4.297711E+03	6.350943E-17	1.147367E-17
4.307613E+03	6.393235E-17	1.153336E-17
4.317516E+03	6.432665E-17	1.158769E-17
4.327418E+03	6.469196E-17	1.163661E-17
4.337321E+03	6.502710E-17	1.167994E-17
4.347223E+03	6.533169E-17	1.171762E-17
4.357126E+03	6.560637E-17	1.174981E-17
4.367028E+03	6.585159E-17	1.177660E-17
4.376931E+03	6.606928E-17	1.179837E-17
4.386834E+03	6.625942E-17	1.181513E-17
4.396736E+03	6.642441E-17	1.182734E-17
4.406639E+03	6.656516E-17	1.183517E-17
4.416541E+03	6.668327E-17	1.183893E-17
4.426444E+03	6.678165E-17	1.183914E-17
4.436346E+03	6.686034E-17	1.183585E-17
4.446249E+03	6.692298E-17	1.182969E-17
4.456151E+03	6.696971E-17	1.182071E-17
4.466054E+03	6.700365E-17	1.180947E-17
4.475957E+03	6.702611E-17	1.179620E-17
4.485859E+03	6.703903E-17	1.178127E-17
4.495762E+03	6.704432E-17	1.176500E-17
4.505664E+03	6.704262E-17	1.174752E-17
4.515567E+03	6.703693E-17	1.172936E-17
4.525469E+03	6.702784E-17	1.171062E-17
4.535372E+03	6.701703E-17	1.169160E-17
4.545274E+03	6.700614E-17	1.167258E-17
4.555177E+03	6.699675E-17	1.165384E-17
4.565080E+03	6.698976E-17	1.163553E-17
4.574982E+03	6.698598E-17	1.161780E-17
4.584885E+03	6.698680E-17	1.160087E-17
4.594787E+03	6.699351E-17	1.158497E-17
4.604690E+03	6.700735E-17	1.157031E-17
4.614592E+03	6.702826E-17	1.155687E-17
4.624495E+03	6.705799E-17	1.154495E-17
4.634398E+03	6.709698E-17	1.153461E-17
4.644300E+03	6.714561E-17	1.152592E-17
4.654203E+03	6.720485E-17	1.151903E-17
4.664105E+03	6.727501E-17	1.151398E-17
4.674008E+03	6.735628E-17	1.151081E-17
4.683910E+03	6.744888E-17	1.150954E-17
4.693813E+03	6.755291E-17	1.151017E-17
4.703715E+03	6.766844E-17	1.151271E-17
4.713618E+03	6.779550E-17	1.151716E-17
4.723521E+03	6.793406E-17	1.152351E-17
4.733423E+03	6.808338E-17	1.153161E-17
4.743326E+03	6.824399E-17	1.154155E-17
4.753228E+03	6.841438E-17	1.155307E-17
4.763131E+03	6.859565E-17	1.156634E-17
4.773033E+03	6.878618E-17	1.158108E-17
4.782936E+03	6.898631E-17	1.159735E-17
4.792838E+03	6.919566E-17	1.161506E-17
4.802741E+03	6.941248E-17	1.163393E-17
4.812644E+03	6.963766E-17	1.165409E-17
4.822546E+03	6.987003E-17	1.167534E-17
4.832449E+03	7.010978E-17	1.169771E-17
4.842351E+03	7.035432E-17	1.172076E-17
4.852254E+03	7.060518E-17	1.174475E-17
4.862156E+03	7.086040E-17	1.176933E-17
4.872059E+03	7.112012E-17	1.179453E-17
4.881961E+03	7.138307E-17	1.182015E-17
4.891864E+03	7.164939E-17	1.184619E-17
4.901767E+03	7.191709E-17	1.187232E-17
4.911669E+03	7.218632E-17	1.189858E-17
4.921572E+03	7.245724E-17	1.192499E-17
4.931474E+03	7.272786E-17	1.195121E-17
4.941377E+03	7.299764E-17	1.197716E-17
4.951279E+03	7.326679E-17	1.200288E-17
4.961182E+03	7.353478E-17	1.202828E-17
4.971085E+03	7.379964E-17	1.205303E-17
4.980987E+03	7.406158E-17	1.207718E-17
4.990890E+03	7.432010E-17	1.210065E-17
5.000792E+03	7.457466E-17	1.212335E-17
5.010695E+03	7.482402E-17	1.214509E-17
5.020597E+03	7.506762E-17	1.216577E-17
5.030500E+03	7.530564E-17	1.218543E-17
5.040402E+03	7.553599E-17	1.220375E-17
5.050305E+03	7.575880E-17	1.222074E-17
5.060208E+03	7.597266E-17	1.223618E-17
5.070110E+03	7.617687E-17	1.224998E-17
5.080013E+03	7.637069E-17	1.226201E-17
5.089915E+03	7.655331E-17	1.227217E-17
5.099818E+03	7.672313E-17	1.228019E-17
5.109720E+03	7.688003E-17	1.228607E-17
5.119623E+03	7.702149E-17	1.228943E-17
5.129525E+03	7.714728E-17	1.229024E-17
5.139428E+03	7.725554E-17	1.228820E-17
5.149331E+03	7.734513E-17	1.228316E-17
5.159233E+03	7.741488E-17	1.227495E-17
5.169136E+03	7.746354E-17	1.226339E-17
5.179038E+03	7.748829E-17	1.224803E-17
5.188941E+03	7.748937E-17	1.222895E-17
5.198843E+03	7.746313E-17	1.220558E-17
5.208746E+03	7.740979E-17	1.217799E-17
5.218648E+03	7.732649E-17	1.214573E-17
5.228551E+03	7.721272E-17	1.210876E-17
5.238454E+03	7.706649E-17	1.206679E-17
5.248356E+03	7.688589E-17	1.201955E-17
5.258259E+03	7.667066E-17	1.196701E-17
5.268161E+03	7.641841E-17	1.190884E-17
5.278064E+03	7.612917E-17	1.184507E-17
5.287966E+03	7.580168E-17	1.177553E-17
5.297869E+03	7.543494E-17	1.170009E-17
5.307772E+03	7.502893E-17	1.161878E-17
5.317674E+03	7.458397E-17	1.153168E-17
5.327577E+03	7.410068E-17	1.143891E-17
5.337479E+03	7.357855E-17	1.134043E-17
5.347382E+03	7.301964E-17	1.123658E-17
5.357284E+03	7.242495E-17	1.112754E-17
5.367187E+03	7.179726E-17	1.101377E-17
5.377089E+03	7.113758E-17	1.089544E-17
5.386992E+03	7.045082E-17	1.077332E-17
5.396895E+03	6.974077E-17	1.064803E-17
5.406797E+03	6.901488E-17	1.052070E-17
5.416700E+03	6.827524E-17	1.039167E-17
5.426602E+03	6.752080E-17	1.026078E-17
5.436505E+03	6.675213E-17	1.012814E-17
5.446407E+03	6.597201E-17	9.994175E-18
5.456310E+03	6.518590E-17	9.859711E-18
5.466212E+03	6.439596E-17	9.725078E-18
5.476115E+03	6.360826E-17	9.591196E-18
5.486018E+03	6.282559E-17	9.458477E-18
5.495920E+03	6.205259E-17	9.327618E-18
5.505823E+03	6.129382E-17	9.199291E-18
5.515725E+03	6.055364E-17	9.074140E-18
5.525628E+03	5.983503E-17	8.952594E-18
5.535530E+03	5.914198E-17	8.835236E-18
5.545433E+03	5.847821E-17	8.722600E-18
5.555335E+03	5.784657E-17	8.615087E-18
5.565238E+03	5.724956E-17	8.513049E-18
5.575141E+03	5.669054E-17	8.416957E-18
5.585043E+03	5.617072E-17	8.326964E-18
5.594946E+03	5.569208E-17	8.243335E-18
5.604848E+03	5.525565E-17	8.166195E-18
5.614751E+03	5.486263E-17	8.095689E-18
5.624653E+03	5.451326E-17	8.031825E-18
5.634556E+03	5.420747E-17	7.974558E-18
5.644459E+03	5.394538E-17	7.923882E-18
5.654361E+03	5.372689E-17	7.879746E-18
5.664264E+03	5.355049E-17	7.841904E-18
5.674166E+03	5.341563E-17	7.810245E-18
5.684069E+03	5.332107E-17	7.784560E-18
5.693971E+03	5.326550E-17	7.764632E-18
5.703874E+03	5.324866E-17	7.750396E-18
5.713776E+03	5.326806E-17	7.741468E-18
5.723679E+03	5.332352E-17	7.737793E-18
5.733582E+03	5.341320E-17	7.739085E-18
5.743484E+03	5.353650E-17	7.745234E-18
5.753387E+03	5.369232E-17	7.756059E-18
5.763289E+03	5.387968E-17	7.771398E-18
5.773192E+03	5.409829E-17	7.791189E-18
5.783094E+03	5.434675E-17	7.815212E-18
5.792997E+03	5.462495E-17	7.843434E-18
5.802899E+03	5.493230E-17	7.875748E-18
5.812802E+03	5.526761E-17	7.911970E-18
5.822705E+03	5.563160E-17	7.952185E-18
5.832607E+03	5.602258E-17	7.996134E-18
5.842510E+03	5.644135E-17	8.043917E-18
5.852412E+03	5.688689E-17	8.095369E-18
5.862315E+03	5.735875E-17	8.150413E-18
5.872217E+03	5.785712E-17	8.209063E-18
5.882120E+03	5.838028E-17	8.271055E-18
5.892022E+03	5.892832E-17	8.336394E-18
5.901925E+03	5.950137E-17	8.405081E-18
5.911828E+03	6.009749E-17	8.476830E-18
5.921730E+03	6.071669E-17	8.551630E-18
5.931633E+03	6.135828E-17	8.629373E-18
5.941535E+03	6.202079E-17	8.709840E-18
5.951438E+03	6.270342E-17	8.792910E-18
5.961340E+03	6.340531E-17	8.878452E-18
5.971243E+03	6.412483E-17	8.966231E-18
5.981146E+03	6.486106E-17	9.056109E-18
5.991048E+03	6.561378E-17	9.148049E-18
6.000951E+03	6.637973E-17	9.241591E-18
6.010853E+03	6.715941E-17	9.336799E-18
6.020756E+03	6.794940E-17	9.433194E-18
6.030658E+03	6.875018E-17	9.530843E-18
6.040561E+03	6.955817E-17	9.629244E-18
6.050463E+03	7.037299E-17	9.728344E-18
6.060366E+03	7.119168E-17	9.827738E-18
6.070269E+03	7.201376E-17	9.927360E-18
6.080171E+03	7.283610E-17	1.002678E-17
6.090074E+03	7.365630E-17	1.012568E-17
6.099976E+03	7.447365E-17	1.022395E-17
6.109879E+03	7.528469E-17	1.032115E-17
6.119781E+03	7.608860E-17	1.041715E-17
6.129684E+03	7.688375E-17	1.051175E-17
6.139586E+03	7.766868E-17	1.060475E-17
6.149489E+03	7.844210E-17	1.069600E-17
6.159392E+03	7.920502E-17	1.078564E-17
6.169294E+03	7.995633E-17	1.087353E-17
6.179197E+03	8.069615E-17	1.095970E-17
6.189099E+03	8.142462E-17	1.104418E-17
6.199002E+03	8.214404E-17	1.112729E-17
6.208904E+03	8.285274E-17	1.120881E-17
6.218807E+03	8.355093E-17	1.128879E-17
6.228709E+03	8.424027E-17	1.136745E-17
6.238612E+03	8.492130E-17	1.144486E-17
6.248515E+03	8.559370E-17	1.152099E-17
6.258417E+03	8.625686E-17	1.159577E-17
6.268320E+03	8.691271E-17	1.166944E-17
6.278222E+03	8.755987E-17	1.174185E-17
6.288125E+03	8.819897E-17	1.181306E-17
6.298027E+03	8.882968E-17	1.188304E-17
6.307930E+03	8.945163E-17	1.195175E-17
6.317833E+03	9.006437E-17	1.201912E-17
6.327735E+03	9.066757E-17	1.208513E-17
6.337638E+03	9.126056E-17	1.214967E-17
6.347540E+03	9.184156E-17	1.221253E-17
6.357443E+03	9.241129E-17	1.227380E-17
6.367345E+03	9.296920E-17	1.233341E-17
6.377248E+03	9.351587E-17	1.239144E-17
6.387150E+03	9.405223E-17	1.244803E-17
6.397053E+03	9.457630E-17	1.250291E-17
6.406956E+03	9.509033E-17	1.255639E-17
6.416858E+03	9.559380E-17	1.260840E-17
6.426761E+03	9.608773E-17	1.265908E-17
6.436663E+03	9.657036E-17	1.270820E-17
6.446566E+03	9.704427E-17	1.275611E-17
6.456468E+03	9.750777E-17	1.280258E-17
6.466371E+03	9.796211E-17	1.284778E-17
6.476273E+03	9.840570E-17	1.289152E-17
6.486176E+03	9.883994E-17	1.293397E-17
6.496079E+03	9.926656E-17	1.297537E-17
6.505981E+03	9.968233E-17	1.301530E-17
6.515884E+03	1.000890E-16	1.305398E-17
6.525786E+03	1.004882E-16	1.309164E-17
6.535689E+03	1.008771E-16	1.312791E-17
6.545591E+03	1.012588E-16	1.316319E-17
6.555494E+03	1.016303E-16	1.319712E-17
6.565396E+03	1.019951E-16	1.323013E-17
6.575299E+03	1.023500E-16	1.326180E-17
6.585202E+03	1.026966E-16	1.329237E-17
6.595104E+03	1.030350E-16	1.332184E-17
6.605007E+03	1.033635E-16	1.335000E-17
6.614909E+03	1.036837E-16	1.337706E-17
6.624812E+03	1.039938E-16	1.340278E-17
6.634714E+03	1.042935E-16	1.342715E-17
6.644617E+03	1.045846E-16	1.345038E-17
6.654520E+03	1.048650E-16	1.347223E-17
6.664422E+03	1.051328E-16	1.349243E-17
6.674325E+03	1.053913E-16	1.351144E-17
6.684227E+03	1.056366E-16	1.352874E-17
6.694130E+03	1.058705E-16	1.354458E-17
6.704032E+03	1.060925E-16	1.355890E-17
6.713935E+03	1.063006E-16	1.357145E-17
6.723837E+03	1.064945E-16	1.358220E-17
6.733740E+03	1.066740E-16	1.359113E-17
6.743643E+03	1.068407E-16	1.359845E-17
6.753545E+03	1.069924E-16	1.360388E-17
6.763448E+03	1.071271E-16	1.360717E-17
6.773350E+03	1.072462E-16	1.360853E-17
6.783253E+03	1.073496E-16	1.360794E-17
6.793155E+03	1.074370E-16	1.360536E-17
6.803058E+03	1.075062E-16	1.360055E-17
6.812960E+03	1.075571E-16	1.359347E-17
6.822863E+03	1.075913E-16	1.358435E-17
6.832766E+03	1.076068E-16	1.357294E-17
6.842668E+03	1.076034E-16	1.355922E-17
6.852571E+03	1.075808E-16	1.354319E-17
6.862473E+03	1.075390E-16	1.352483E-17
6.872376E+03	1.074780E-16	1.350414E-17
6.882278E+03	1.073975E-16	1.348113E-17
6.892181E+03	1.072956E-16	1.345554E-17
6.902083E+03	1.071722E-16	1.342738E-17
6.911986E+03	1.070294E-16	1.339693E-17
6.921889E+03	1.068673E-16	1.336419E-17
6.931791E+03	1.066819E-16	1.332868E-17
6.941694E+03	1.064773E-16	1.329094E-17
6.951596E+03	1.062520E-16	1.325077E-17
6.961499E+03	1.060061E-16	1.320820E-17
6.971401E+03	1.057377E-16	1.316300E-17
6.981304E+03	1.054495E-16	1.311552E-17
6.991207E+03	1.051417E-16	1.306580E-17
7.001109E+03	1.048149E-16	1.301392E-17
7.011012E+03	1.044675E-16	1.295968E-17
7.020914E+03	1.041001E-16	1.290317E-17
7.030817E+03	1.037154E-16	1.284474E-17
7.040719E+03	1.033120E-16	1.278422E-17
7.050622E+03	1.028885E-16	1.272144E-17
7.060524E+03	1.024499E-16	1.265704E-17
7.070427E+03	1.019950E-16	1.259086E-17
7.080330E+03	1.015247E-16	1.252303E-17
7.090232E+03	1.010380E-16	1.245343E-17
7.100135E+03	1.005379E-16	1.238245E-17
7.110037E+03	1.000256E-16	1.231022E-17
7.119940E+03	9.950013E-17	1.223665E-17
7.129842E+03	9.896287E-17	1.216190E-17
7.139745E+03	9.841709E-17	1.208637E-17
7.149647E+03	9.786207E-17	1.201000E-17
7.159550E+03	9.729910E-17	1.193293E-17
7.169453E+03	9.672952E-17	1.185534E-17
7.179355E+03	9.615462E-17	1.177739E-17
7.189258E+03	9.557367E-17	1.169899E-17
7.199160E+03	9.499182E-17	1.162077E-17
7.209063E+03	9.440836E-17	1.154265E-17
7.218965E+03	9.382029E-17	1.146427E-17
7.228868E+03	9.323473E-17	1.138649E-17
7.238770E+03	9.264664E-17	1.130871E-17
7.248673E+03	9.206106E-17	1.123153E-17
7.258576E+03	9.147684E-17	1.115482E-17
7.268478E+03	9.089507E-17	1.107871E-17
7.278381E+03	9.031466E-17	1.100307E-17
7.288283E+03	8.973670E-17	1.092804E-17
7.298186E+03	8.916236E-17	1.085375E-17
7.308088E+03	8.859281E-17	1.078034E-17
7.317991E+03	8.802564E-17	1.070754E-17
7.327894E+03	8.746419E-17	1.063573E-17
7.337796E+03	8.690627E-17	1.056466E-17
7.347699E+03	8.635198E-17	1.049433E-17
7.357601E+03	8.580129E-17	1.042474E-17
7.367504E+03	8.525811E-17	1.035638E-17
7.377406E+03	8.472468E-17	1.028950E-17
7.387309E+03	8.420676E-17	1.022480E-17
7.397211E+03	8.371003E-17	1.016298E-17
7.407114E+03	8.323458E-17	1.010404E-17
7.417017E+03	8.278384E-17	1.004837E-17
7.426919E+03	8.236271E-17	9.996566E-18
7.436822E+03	8.196848E-17	9.948288E-18
7.446724E+03	8.160503E-17	9.903998E-18
7.456627E+03	8.127224E-17	9.863672E-18
7.466529E+03	8.096946E-17	9.827225E-18
7.476432E+03	8.069578E-17	9.794539E-18
7.486334E+03	8.044999E-17	9.765459E-18
7.496237E+03	8.023246E-17	9.740028E-18
7.506140E+03	8.003999E-17	9.717848E-18
7.516042E+03	7.987289E-17	9.698953E-18
7.525945E+03	7.972773E-17	9.682924E-18
7.535847E+03	7.960499E-17	9.669812E-18
7.545750E+03	7.950304E-17	9.659418E-18
7.555652E+03	7.941877E-17	9.651359E-18
7.565555E+03	7.935267E-17	9.645690E-18
7.575457E+03	7.930332E-17	9.642238E-18
7.585360E+03	7.926778E-17	9.640641E-18
7.595263E+03	7.924667E-17	9.640971E-18
7.605165E+03	7.923697E-17	9.642858E-18
7.615068E+03	7.924136E-17	9.646627E-18
7.624970E+03	7.925506E-17	9.651691E-18
7.634873E+03	7.927904E-17	9.658168E-18
7.644775E+03	7.931036E-17	9.665697E-18
7.654678E+03	7.935003E-17	9.674396E-18
7.664581E+03	7.939722E-17	9.684166E-18
7.674483E+03	7.945117E-17	9.694907E-18
7.684386E+03	7.950901E-17	9.706271E-18
