#wls	flux	fluxerr
1.584409E+03	1.725245E-16	5.858967E-17
1.624020E+03	1.792447E-16	6.087087E-17
1.663630E+03	1.852927E-16	6.292370E-17
1.703240E+03	1.905558E-16	6.470987E-17
1.742850E+03	1.948976E-16	6.618310E-17
1.782461E+03	1.981343E-16	6.728095E-17
1.822071E+03	2.000158E-16	6.791858E-17
1.861681E+03	2.003089E-16	6.801679E-17
1.901291E+03	1.987662E-16	6.749162E-17
1.940902E+03	1.951887E-16	6.627554E-17
1.980512E+03	1.895883E-16	6.437257E-17
2.020122E+03	1.822886E-16	6.189273E-17
2.059732E+03	1.741085E-16	5.911402E-17
2.099342E+03	1.663314E-16	5.647223E-17
2.138953E+03	1.602017E-16	5.438983E-17
2.178563E+03	1.563621E-16	5.308497E-17
2.218173E+03	1.544758E-16	5.244329E-17
2.257783E+03	1.534363E-16	5.208908E-17
2.297394E+03	1.521967E-16	5.166692E-17
2.337004E+03	1.499902E-16	5.091653E-17
2.376614E+03	1.464224E-16	4.970404E-17
2.416224E+03	1.414145E-16	4.800272E-17
2.455835E+03	1.350942E-16	4.585601E-17
2.495445E+03	1.276859E-16	4.334008E-17
2.535055E+03	1.194418E-16	4.054057E-17
2.574665E+03	1.106237E-16	3.754641E-17
2.614276E+03	1.014750E-16	3.444017E-17
2.653886E+03	9.221369E-17	3.129591E-17
2.693496E+03	8.303133E-17	2.817861E-17
2.733106E+03	7.409698E-17	2.514567E-17
2.772716E+03	6.554143E-17	2.224146E-17
2.812327E+03	5.747342E-17	1.950288E-17
2.851937E+03	4.998154E-17	1.695997E-17
2.891547E+03	4.312945E-17	1.463433E-17
2.931157E+03	3.695869E-17	1.254003E-17
2.970768E+03	3.148287E-17	1.068166E-17
2.980670E+03	3.022120E-17	1.025349E-17
2.990573E+03	2.900172E-17	9.839645E-18
3.000475E+03	2.782438E-17	9.440100E-18
3.010378E+03	2.668832E-17	9.054570E-18
3.020280E+03	2.559275E-17	8.682784E-18
3.030183E+03	2.453732E-17	8.324623E-18
3.040086E+03	2.352088E-17	7.979698E-18
3.049988E+03	2.254438E-17	7.648330E-18
3.059891E+03	2.160706E-17	7.330259E-18
3.069793E+03	2.070784E-17	7.025121E-18
3.079696E+03	1.984530E-17	6.732430E-18
3.089598E+03	1.901842E-17	6.451844E-18
3.099501E+03	1.822587E-17	6.182911E-18
3.109403E+03	1.746641E-17	5.925208E-18
3.119306E+03	1.673917E-17	5.678439E-18
3.129209E+03	1.604266E-17	5.442099E-18
3.139111E+03	1.537638E-17	5.216022E-18
3.149014E+03	1.473894E-17	4.999732E-18
3.158916E+03	1.412958E-17	4.792968E-18
3.168819E+03	1.354725E-17	4.595382E-18
3.178721E+03	1.299096E-17	4.406629E-18
3.188624E+03	1.245994E-17	4.226455E-18
3.198526E+03	1.195323E-17	4.054529E-18
3.208429E+03	1.146969E-17	3.890467E-18
3.218332E+03	1.100898E-17	3.734152E-18
3.228234E+03	1.056964E-17	3.585089E-18
3.238137E+03	1.015132E-17	3.443158E-18
3.248039E+03	9.752821E-18	3.307954E-18
3.257942E+03	9.373477E-18	3.179250E-18
3.267844E+03	9.012610E-18	3.056815E-18
3.277747E+03	8.669152E-18	2.940288E-18
3.287650E+03	8.342606E-18	2.829500E-18
3.297552E+03	8.032216E-18	2.724193E-18
3.307455E+03	7.737144E-18	2.624084E-18
3.317357E+03	7.456704E-18	2.528939E-18
3.327260E+03	7.190238E-18	2.438536E-18
3.337162E+03	6.937205E-18	2.352691E-18
3.347065E+03	6.696801E-18	2.271131E-18
3.356967E+03	6.468627E-18	2.193720E-18
3.366870E+03	6.251942E-18	2.120208E-18
3.376773E+03	6.046223E-18	2.050416E-18
3.386675E+03	5.851034E-18	1.984197E-18
3.396578E+03	5.665674E-18	1.921312E-18
3.406480E+03	5.489828E-18	1.861655E-18
3.416383E+03	5.322992E-18	1.805055E-18
3.426285E+03	5.164566E-18	1.751308E-18
3.436188E+03	5.014294E-18	1.700328E-18
3.446090E+03	4.871638E-18	1.651931E-18
3.455993E+03	4.736264E-18	1.606005E-18
3.465896E+03	4.607799E-18	1.562422E-18
3.475798E+03	4.485749E-18	1.521016E-18
3.485701E+03	4.369852E-18	1.481697E-18
3.495603E+03	4.259716E-18	1.444332E-18
3.505506E+03	4.154984E-18	1.408801E-18
3.515408E+03	4.055367E-18	1.375005E-18
3.525311E+03	3.960517E-18	1.342826E-18
3.535213E+03	3.870147E-18	1.312167E-18
3.545116E+03	3.783960E-18	1.282926E-18
3.555019E+03	3.701749E-18	1.255035E-18
3.564921E+03	3.623286E-18	1.228415E-18
3.574824E+03	3.548326E-18	1.202983E-18
3.584726E+03	3.476703E-18	1.178683E-18
3.594629E+03	3.408261E-18	1.155462E-18
3.604531E+03	3.342790E-18	1.133249E-18
3.614434E+03	3.280243E-18	1.112028E-18
3.624337E+03	3.220422E-18	1.091731E-18
3.634239E+03	3.163254E-18	1.072335E-18
3.644142E+03	3.108643E-18	1.053805E-18
3.654044E+03	3.056486E-18	1.036108E-18
3.663947E+03	3.006715E-18	1.019221E-18
3.673849E+03	2.959285E-18	1.003127E-18
3.683752E+03	2.914047E-18	9.877765E-19
3.693654E+03	2.871006E-18	9.731713E-19
3.703557E+03	2.830042E-18	9.592704E-19
3.713460E+03	2.791110E-18	9.460586E-19
3.723362E+03	2.754161E-18	9.335194E-19
3.733265E+03	2.719080E-18	9.216136E-19
3.743167E+03	2.685869E-18	9.103418E-19
3.753070E+03	2.654436E-18	8.996732E-19
3.762972E+03	2.624738E-18	8.895928E-19
3.772875E+03	2.596711E-18	8.800789E-19
3.782777E+03	2.570314E-18	8.711177E-19
3.792680E+03	2.545486E-18	8.626884E-19
3.802583E+03	2.522190E-18	8.547786E-19
3.812485E+03	2.500371E-18	8.473691E-19
3.822388E+03	2.480012E-18	8.404550E-19
3.832290E+03	2.461059E-18	8.340175E-19
3.842193E+03	2.443464E-18	8.280403E-19
3.852095E+03	2.427195E-18	8.225125E-19
3.861998E+03	2.412203E-18	8.174176E-19
3.871900E+03	2.398481E-18	8.127529E-19
3.881803E+03	2.385978E-18	8.085018E-19
3.891706E+03	2.374672E-18	8.046561E-19
3.901608E+03	2.364516E-18	8.012003E-19
3.911511E+03	2.355469E-18	7.981199E-19
3.921413E+03	2.347540E-18	7.954187E-19
3.931316E+03	2.340654E-18	7.930709E-19
3.941218E+03	2.334807E-18	7.910749E-19
3.951121E+03	2.329957E-18	7.894169E-19
3.961024E+03	2.326086E-18	7.880903E-19
3.970926E+03	2.323171E-18	7.870879E-19
3.980829E+03	2.321159E-18	7.863913E-19
3.990731E+03	2.320051E-18	7.860007E-19
4.000634E+03	2.319809E-18	7.859035E-19
4.010536E+03	2.320418E-18	7.860946E-19
4.020439E+03	2.321843E-18	7.865618E-19
4.030341E+03	2.324053E-18	7.872950E-19
4.040244E+03	2.327051E-18	7.882951E-19
4.050147E+03	2.330788E-18	7.895453E-19
4.060049E+03	2.335254E-18	7.910423E-19
4.069952E+03	2.340436E-18	7.927814E-19
4.079854E+03	2.346290E-18	7.947483E-19
4.089757E+03	2.352826E-18	7.969459E-19
4.099659E+03	2.359997E-18	7.993583E-19
4.109562E+03	2.367797E-18	8.019837E-19
4.119464E+03	2.376220E-18	8.048200E-19
4.129367E+03	2.385220E-18	8.078515E-19
4.139270E+03	2.394812E-18	8.110832E-19
4.149172E+03	2.404935E-18	8.144944E-19
4.159075E+03	2.415618E-18	8.180951E-19
4.168977E+03	2.426802E-18	8.218649E-19
4.178880E+03	2.438482E-18	8.258027E-19
4.188782E+03	2.450637E-18	8.299011E-19
4.198685E+03	2.463262E-18	8.341585E-19
4.208587E+03	2.476298E-18	8.385546E-19
4.218490E+03	2.489763E-18	8.430957E-19
4.228393E+03	2.503618E-18	8.477683E-19
4.238295E+03	2.517822E-18	8.525590E-19
4.248198E+03	2.532374E-18	8.574674E-19
4.258100E+03	2.547255E-18	8.624865E-19
4.268003E+03	2.562405E-18	8.675967E-19
4.277905E+03	2.577803E-18	8.727903E-19
4.287808E+03	2.593427E-18	8.780599E-19
4.297711E+03	2.609256E-18	8.833988E-19
4.307613E+03	2.625266E-18	8.887986E-19
4.317516E+03	2.641455E-18	8.942583E-19
4.327418E+03	2.657799E-18	8.997705E-19
4.337321E+03	2.674272E-18	9.053258E-19
4.347223E+03	2.690914E-18	9.109379E-19
4.357126E+03	2.707697E-18	9.165975E-19
4.367028E+03	2.724620E-18	9.223040E-19
4.376931E+03	2.741698E-18	9.280624E-19
4.386834E+03	2.758928E-18	9.338720E-19
4.396736E+03	2.776284E-18	9.397240E-19
4.406639E+03	2.793784E-18	9.456242E-19
4.416541E+03	2.811406E-18	9.515650E-19
4.426444E+03	2.829144E-18	9.575450E-19
4.436346E+03	2.847002E-18	9.635650E-19
4.446249E+03	2.864931E-18	9.696084E-19
4.456151E+03	2.882958E-18	9.756847E-19
4.466054E+03	2.901062E-18	9.817866E-19
4.475957E+03	2.919224E-18	9.879076E-19
4.485859E+03	2.937453E-18	9.940510E-19
4.495762E+03	2.955706E-18	1.000202E-18
4.505664E+03	2.973994E-18	1.006364E-18
4.515567E+03	2.992328E-18	1.012542E-18
4.525469E+03	3.010695E-18	1.018730E-18
4.535372E+03	3.029059E-18	1.024916E-18
4.545274E+03	3.047435E-18	1.031106E-18
4.555177E+03	3.065814E-18	1.037297E-18
4.565080E+03	3.084188E-18	1.043485E-18
4.574982E+03	3.102577E-18	1.049678E-18
4.584885E+03	3.120949E-18	1.055865E-18
4.594787E+03	3.139325E-18	1.062053E-18
4.604690E+03	3.157702E-18	1.068240E-18
4.614592E+03	3.176079E-18	1.074427E-18
4.624495E+03	3.194453E-18	1.080612E-18
4.634398E+03	3.212822E-18	1.086796E-18
4.644300E+03	3.231186E-18	1.092977E-18
4.654203E+03	3.249603E-18	1.099175E-18
4.664105E+03	3.268075E-18	1.105391E-18
4.674008E+03	3.286602E-18	1.111625E-18
4.683910E+03	3.305246E-18	1.117899E-18
4.693813E+03	3.323981E-18	1.124203E-18
4.703715E+03	3.342816E-18	1.130539E-18
4.713618E+03	3.361782E-18	1.136920E-18
4.723521E+03	3.380888E-18	1.143347E-18
4.733423E+03	3.400110E-18	1.149814E-18
4.743326E+03	3.419488E-18	1.156331E-18
4.753228E+03	3.439028E-18	1.162904E-18
4.763131E+03	3.458713E-18	1.169525E-18
4.773033E+03	3.478580E-18	1.176207E-18
4.782936E+03	3.498643E-18	1.182954E-18
4.792838E+03	3.518911E-18	1.189770E-18
4.802741E+03	3.539399E-18	1.196660E-18
4.812644E+03	3.560084E-18	1.203615E-18
4.822546E+03	3.581050E-18	1.210665E-18
4.832449E+03	3.602242E-18	1.217791E-18
4.842351E+03	3.623675E-18	1.224998E-18
4.852254E+03	3.645401E-18	1.232302E-18
4.862156E+03	3.667433E-18	1.239710E-18
4.872059E+03	3.689789E-18	1.247226E-18
4.881961E+03	3.712418E-18	1.254834E-18
4.891864E+03	3.735405E-18	1.262562E-18
4.901767E+03	3.758732E-18	1.270405E-18
4.911669E+03	3.782415E-18	1.278367E-18
4.921572E+03	3.806472E-18	1.286454E-18
4.931474E+03	3.830920E-18	1.294673E-18
4.941377E+03	3.855735E-18	1.303015E-18
4.951279E+03	3.880932E-18	1.311486E-18
4.961182E+03	3.906560E-18	1.320101E-18
4.971085E+03	3.932593E-18	1.328852E-18
4.980987E+03	3.959002E-18	1.337729E-18
4.990890E+03	3.985870E-18	1.346760E-18
5.000792E+03	4.013089E-18	1.355909E-18
5.010695E+03	4.040738E-18	1.365203E-18
5.020597E+03	4.068824E-18	1.374643E-18
5.030500E+03	4.097234E-18	1.384192E-18
5.040402E+03	4.126085E-18	1.393888E-18
5.050305E+03	4.155303E-18	1.403708E-18
5.060208E+03	4.184888E-18	1.413650E-18
5.070110E+03	4.214879E-18	1.423729E-18
5.080013E+03	4.245196E-18	1.433917E-18
5.089915E+03	4.275839E-18	1.444214E-18
5.099818E+03	4.306844E-18	1.454632E-18
5.109720E+03	4.338169E-18	1.465156E-18
5.119623E+03	4.369812E-18	1.475788E-18
5.129525E+03	4.401725E-18	1.486509E-18
5.139428E+03	4.433947E-18	1.497333E-18
5.149331E+03	4.466387E-18	1.508230E-18
5.159233E+03	4.499125E-18	1.519227E-18
5.169136E+03	4.532112E-18	1.530306E-18
5.179038E+03	4.565294E-18	1.541450E-18
5.188941E+03	4.598662E-18	1.552655E-18
5.198843E+03	4.632247E-18	1.563933E-18
5.208746E+03	4.665948E-18	1.575248E-18
5.218648E+03	4.699791E-18	1.586610E-18
5.228551E+03	4.733811E-18	1.598030E-18
5.238454E+03	4.767843E-18	1.609453E-18
5.248356E+03	4.802006E-18	1.620920E-18
5.258259E+03	4.836136E-18	1.632373E-18
5.268161E+03	4.870347E-18	1.643853E-18
5.278064E+03	4.904467E-18	1.655301E-18
5.287966E+03	4.938560E-18	1.666737E-18
5.297869E+03	4.972594E-18	1.678153E-18
5.307772E+03	5.006492E-18	1.689522E-18
5.317674E+03	5.040317E-18	1.700865E-18
5.327577E+03	5.073890E-18	1.712121E-18
5.337479E+03	5.107331E-18	1.723331E-18
5.347382E+03	5.140560E-18	1.734468E-18
5.357284E+03	5.173550E-18	1.745524E-18
5.367187E+03	5.206276E-18	1.756488E-18
5.377089E+03	5.238709E-18	1.767353E-18
5.386992E+03	5.270775E-18	1.778092E-18
5.396895E+03	5.302447E-18	1.788697E-18
5.406797E+03	5.333700E-18	1.799160E-18
5.416700E+03	5.364507E-18	1.809470E-18
5.426602E+03	5.394788E-18	1.819602E-18
5.436505E+03	5.424457E-18	1.829526E-18
5.446407E+03	5.453537E-18	1.839249E-18
5.456310E+03	5.481940E-18	1.848743E-18
5.466212E+03	5.509572E-18	1.857976E-18
5.476115E+03	5.536343E-18	1.866917E-18
5.486018E+03	5.562268E-18	1.875572E-18
5.495920E+03	5.587196E-18	1.883889E-18
5.505823E+03	5.611142E-18	1.891874E-18
5.515725E+03	5.633951E-18	1.899474E-18
5.525628E+03	5.655583E-18	1.906676E-18
5.535530E+03	5.676050E-18	1.913484E-18
5.545433E+03	5.695196E-18	1.919845E-18
5.555335E+03	5.713034E-18	1.925765E-18
5.565238E+03	5.729523E-18	1.931229E-18
5.575141E+03	5.744564E-18	1.936203E-18
5.585043E+03	5.758114E-18	1.940674E-18
5.594946E+03	5.770194E-18	1.944649E-18
5.604848E+03	5.780769E-18	1.948116E-18
5.614751E+03	5.789745E-18	1.951043E-18
5.624653E+03	5.797157E-18	1.953442E-18
5.634556E+03	5.803037E-18	1.955324E-18
5.644459E+03	5.807247E-18	1.956642E-18
5.654361E+03	5.809833E-18	1.957413E-18
5.664264E+03	5.810843E-18	1.957652E-18
5.674166E+03	5.810271E-18	1.957358E-18
5.684069E+03	5.808116E-18	1.956530E-18
5.693971E+03	5.804378E-18	1.955169E-18
5.703874E+03	5.799064E-18	1.953276E-18
5.713776E+03	5.792240E-18	1.950873E-18
5.723679E+03	5.783856E-18	1.947946E-18
5.733582E+03	5.774048E-18	1.944538E-18
5.743484E+03	5.762772E-18	1.940636E-18
5.753387E+03	5.750045E-18	1.936246E-18
5.763289E+03	5.736016E-18	1.931417E-18
5.773192E+03	5.720587E-18	1.926116E-18
5.783094E+03	5.703849E-18	1.920375E-18
5.792997E+03	5.685904E-18	1.914227E-18
5.802899E+03	5.666728E-18	1.907665E-18
5.812802E+03	5.646434E-18	1.900727E-18
5.822705E+03	5.625008E-18	1.893408E-18
5.832607E+03	5.602639E-18	1.885772E-18
5.842510E+03	5.579331E-18	1.877820E-18
5.852412E+03	5.555150E-18	1.869575E-18
5.862315E+03	5.530234E-18	1.861083E-18
5.872217E+03	5.504597E-18	1.852349E-18
5.882120E+03	5.478374E-18	1.843418E-18
5.892022E+03	5.451579E-18	1.834294E-18
5.901925E+03	5.424347E-18	1.825025E-18
5.911828E+03	5.396749E-18	1.815633E-18
5.921730E+03	5.368857E-18	1.806142E-18
5.931633E+03	5.340674E-18	1.796554E-18
5.941535E+03	5.312331E-18	1.786913E-18
5.951438E+03	5.283888E-18	1.777239E-18
5.961340E+03	5.255345E-18	1.767532E-18
5.971243E+03	5.226825E-18	1.757834E-18
5.981146E+03	5.198320E-18	1.748140E-18
5.991048E+03	5.169821E-18	1.738450E-18
6.000951E+03	5.141504E-18	1.728821E-18
6.010853E+03	5.113294E-18	1.719230E-18
6.020756E+03	5.085299E-18	1.709711E-18
6.030658E+03	5.057439E-18	1.700238E-18
6.040561E+03	5.029817E-18	1.690846E-18
6.050463E+03	5.002408E-18	1.681526E-18
6.060366E+03	4.975250E-18	1.672291E-18
6.070269E+03	4.948376E-18	1.663152E-18
6.080171E+03	4.921756E-18	1.654099E-18
6.090074E+03	4.895417E-18	1.645141E-18
6.099976E+03	4.869388E-18	1.636289E-18
6.109879E+03	4.843689E-18	1.627547E-18
6.119781E+03	4.818346E-18	1.618926E-18
6.129684E+03	4.793315E-18	1.610410E-18
6.139586E+03	4.768677E-18	1.602027E-18
6.149489E+03	4.744445E-18	1.593781E-18
6.159392E+03	4.720634E-18	1.585677E-18
6.169294E+03	4.697317E-18	1.577739E-18
6.179197E+03	4.674566E-18	1.569992E-18
6.189099E+03	4.652452E-18	1.562460E-18
6.199002E+03	4.631044E-18	1.555165E-18
6.208904E+03	4.610409E-18	1.548131E-18
6.218807E+03	4.590678E-18	1.541400E-18
6.228709E+03	4.571794E-18	1.534954E-18
6.238612E+03	4.554008E-18	1.528877E-18
6.248515E+03	4.537264E-18	1.523150E-18
6.258417E+03	4.521692E-18	1.517817E-18
6.268320E+03	4.507355E-18	1.512899E-18
6.278222E+03	4.494322E-18	1.508418E-18
6.288125E+03	4.482598E-18	1.504378E-18
6.298027E+03	4.472250E-18	1.500798E-18
6.307930E+03	4.463347E-18	1.497704E-18
6.317833E+03	4.455895E-18	1.495097E-18
6.327735E+03	4.449902E-18	1.492979E-18
6.337638E+03	4.445438E-18	1.491374E-18
6.347540E+03	4.442379E-18	1.490240E-18
6.357443E+03	4.440734E-18	1.489580E-18
6.367345E+03	4.440444E-18	1.489374E-18
6.377248E+03	4.441383E-18	1.489580E-18
6.387150E+03	4.443621E-18	1.490221E-18
6.397053E+03	4.447031E-18	1.491254E-18
6.406956E+03	4.451684E-18	1.492703E-18
6.416858E+03	4.457583E-18	1.494570E-18
6.426761E+03	4.464670E-18	1.496834E-18
6.436663E+03	4.472945E-18	1.499496E-18
6.446566E+03	4.482417E-18	1.502558E-18
6.456468E+03	4.493089E-18	1.506021E-18
6.466371E+03	4.504966E-18	1.509887E-18
6.476273E+03	4.518126E-18	1.514183E-18
6.486176E+03	4.532504E-18	1.518885E-18
6.496079E+03	4.548035E-18	1.523972E-18
6.505981E+03	4.564868E-18	1.529494E-18
6.515884E+03	4.582865E-18	1.535405E-18
6.525786E+03	4.602105E-18	1.541731E-18
6.535689E+03	4.622597E-18	1.548475E-18
6.545591E+03	4.644346E-18	1.555638E-18
6.555494E+03	4.667360E-18	1.563224E-18
6.565396E+03	4.691572E-18	1.571208E-18
6.575299E+03	4.717062E-18	1.579620E-18
6.585202E+03	4.743764E-18	1.588435E-18
6.595104E+03	4.771761E-18	1.597682E-18
6.605007E+03	4.800983E-18	1.607337E-18
6.614909E+03	4.831437E-18	1.617402E-18
6.624812E+03	4.863213E-18	1.627908E-18
6.634714E+03	4.896320E-18	1.638857E-18
6.644617E+03	4.930603E-18	1.650198E-18
6.654520E+03	4.966235E-18	1.661988E-18
6.664422E+03	5.003057E-18	1.674173E-18
6.674325E+03	5.041252E-18	1.686815E-18
6.684227E+03	5.080741E-18	1.699888E-18
6.694130E+03	5.121447E-18	1.713365E-18
6.704032E+03	5.163559E-18	1.727309E-18
6.713935E+03	5.206904E-18	1.741664E-18
6.723837E+03	5.251587E-18	1.756463E-18
6.733740E+03	5.297620E-18	1.771710E-18
6.743643E+03	5.345012E-18	1.787409E-18
6.753545E+03	5.393679E-18	1.803531E-18
6.763448E+03	5.443730E-18	1.820112E-18
6.773350E+03	5.495074E-18	1.837122E-18
6.783253E+03	5.547824E-18	1.854599E-18
6.793155E+03	5.601886E-18	1.872512E-18
6.803058E+03	5.657272E-18	1.890862E-18
6.812960E+03	5.714095E-18	1.909690E-18
6.822863E+03	5.772152E-18	1.928926E-18
6.832766E+03	5.831664E-18	1.948644E-18
6.842668E+03	5.892533E-18	1.968812E-18
6.852571E+03	5.954767E-18	1.989432E-18
6.862473E+03	6.018373E-18	2.010506E-18
6.872376E+03	6.083357E-18	2.032036E-18
6.882278E+03	6.149613E-18	2.053987E-18
6.892181E+03	6.217257E-18	2.076397E-18
6.902083E+03	6.286298E-18	2.099268E-18
6.911986E+03	6.356742E-18	2.122604E-18
6.921889E+03	6.428347E-18	2.146323E-18
6.931791E+03	6.501485E-18	2.170548E-18
6.941694E+03	6.575785E-18	2.195157E-18
6.951596E+03	6.651498E-18	2.220232E-18
6.961499E+03	6.728498E-18	2.245732E-18
6.971401E+03	6.806786E-18	2.271656E-18
6.981304E+03	6.886357E-18	2.298004E-18
6.991207E+03	6.967211E-18	2.324774E-18
7.001109E+03	7.049202E-18	2.351918E-18
7.011012E+03	7.132466E-18	2.379481E-18
7.020914E+03	7.216997E-18	2.407462E-18
7.030817E+03	7.302645E-18	2.435809E-18
7.040719E+03	7.389548E-18	2.464569E-18
7.050622E+03	7.477546E-18	2.493688E-18
7.060524E+03	7.566629E-18	2.523164E-18
7.070427E+03	7.656780E-18	2.552989E-18
7.080330E+03	7.748146E-18	2.583213E-18
7.090232E+03	7.840392E-18	2.613725E-18
7.100135E+03	7.933494E-18	2.644516E-18
7.110037E+03	8.027759E-18	2.675688E-18
7.119940E+03	8.122841E-18	2.707126E-18
7.129842E+03	8.218709E-18	2.738819E-18
7.139745E+03	8.315510E-18	2.770817E-18
7.149647E+03	8.413042E-18	2.803052E-18
7.159550E+03	8.511276E-18	2.835514E-18
7.169453E+03	8.610178E-18	2.868192E-18
7.179355E+03	8.709714E-18	2.901075E-18
7.189258E+03	8.810040E-18	2.934214E-18
7.199160E+03	8.910739E-18	2.967470E-18
7.209063E+03	9.012159E-18	3.000959E-18
7.218965E+03	9.114069E-18	3.034605E-18
7.228868E+03	9.216427E-18	3.068393E-18
7.238770E+03	9.319393E-18	3.102377E-18
7.248673E+03	9.422729E-18	3.136476E-18
7.258576E+03	9.526597E-18	3.170747E-18
7.268478E+03	9.630963E-18	3.205175E-18
7.278381E+03	9.736002E-18	3.239820E-18
7.288283E+03	9.841689E-18	3.274674E-18
7.298186E+03	9.948218E-18	3.309801E-18
7.308088E+03	1.005534E-17	3.345117E-18
7.317991E+03	1.016371E-17	3.380844E-18
7.327894E+03	1.027334E-17	3.416981E-18
7.337796E+03	1.038399E-17	3.453447E-18
7.347699E+03	1.049636E-17	3.490481E-18
7.357601E+03	1.061023E-17	3.528007E-18
7.367504E+03	1.072587E-17	3.566110E-18
7.377406E+03	1.084303E-17	3.604714E-18
7.387309E+03	1.096198E-17	3.643905E-18
7.397211E+03	1.108196E-17	3.683428E-18
7.407114E+03	1.120348E-17	3.723456E-18
7.417017E+03	1.132574E-17	3.763721E-18
7.426919E+03	1.144898E-17	3.804305E-18
7.436822E+03	1.157290E-17	3.845108E-18
7.446724E+03	1.169721E-17	3.886029E-18
7.456627E+03	1.182213E-17	3.927147E-18
7.466529E+03	1.194676E-17	3.968161E-18
7.476432E+03	1.207163E-17	4.009246E-18
7.486334E+03	1.219639E-17	4.050285E-18
7.496237E+03	1.232098E-17	4.091259E-18
7.506140E+03	1.244502E-17	4.132046E-18
7.516042E+03	1.256876E-17	4.172723E-18
7.525945E+03	1.269182E-17	4.213165E-18
7.535847E+03	1.281412E-17	4.253346E-18
7.545750E+03	1.293589E-17	4.293348E-18
7.555652E+03	1.305676E-17	4.333040E-18
7.565555E+03	1.317697E-17	4.372505E-18
7.575457E+03	1.329577E-17	4.411497E-18
7.585360E+03	1.341376E-17	4.450212E-18
7.595263E+03	1.353052E-17	4.488511E-18
7.605165E+03	1.364632E-17	4.526483E-18
7.615068E+03	1.376072E-17	4.563987E-18
7.624970E+03	1.387365E-17	4.600995E-18
7.634873E+03	1.398503E-17	4.637478E-18
7.644775E+03	1.409549E-17	4.673653E-18
7.654678E+03	1.420386E-17	4.709130E-18
7.664581E+03	1.431118E-17	4.744250E-18
7.674483E+03	1.441662E-17	4.778742E-18
7.684386E+03	1.452048E-17	4.812705E-18
