#wls	flux	fluxerr
1.584409E+03	1.544551E-19	7.588472E-19
1.624020E+03	8.639399E-20	4.489430E-19
1.663630E+03	3.836761E-20	2.117423E-19
1.703240E+03	7.460066E-21	4.393737E-20
1.742850E+03	-1.017697E-20	-6.432018E-20
1.782461E+03	-1.752247E-20	-1.196137E-19
1.822071E+03	-1.793334E-20	-1.332447E-19
1.861681E+03	-1.399960E-20	-1.142572E-19
1.901291E+03	-8.072997E-21	-7.320856E-20
1.940902E+03	-2.005630E-21	-2.049309E-20
1.980512E+03	3.081750E-21	3.614908E-20
2.020122E+03	6.335462E-21	8.739748E-20
2.059732E+03	7.798525E-21	1.310833E-19
2.099342E+03	7.533708E-21	1.624960E-19
2.138953E+03	6.125586E-21	1.858025E-19
2.178563E+03	3.873335E-21	1.991137E-19
2.218173E+03	1.166450E-21	2.067058E-19
2.257783E+03	-1.693176E-21	2.046347E-19
2.297394E+03	-4.409636E-21	1.958047E-19
2.337004E+03	-6.538402E-21	1.773935E-19
2.376614E+03	-7.937867E-21	1.539403E-19
2.416224E+03	-8.313793E-21	1.253149E-19
2.455835E+03	-7.861571E-21	9.641886E-20
2.495445E+03	-6.597592E-21	6.817239E-20
2.535055E+03	-4.930840E-21	4.383522E-20
2.574665E+03	-3.076872E-21	2.399730E-20
2.614276E+03	-1.404988E-21	9.724883E-21
2.653886E+03	-1.264184E-22	7.865640E-22
2.693496E+03	6.041536E-22	-3.402454E-21
2.733106E+03	7.310926E-22	-3.761507E-21
2.772716E+03	3.233356E-22	-1.526383E-21
2.812327E+03	-4.854745E-22	2.118010E-21
2.851937E+03	-1.534399E-21	6.203142E-21
2.891547E+03	-2.575749E-21	9.706535E-21
2.931157E+03	-3.525447E-21	1.240307E-20
2.967401E+03	-1.452271E-20	4.815501E-20
2.968985E+03	-1.462885E-20	4.838231E-20
2.995130E+03	-1.669841E-20	5.301136E-20
3.011174E+03	-1.785214E-20	5.527381E-20
3.011768E+03	-1.784675E-20	5.520697E-20
3.012362E+03	-1.783852E-20	5.513141E-20
3.012560E+03	-1.780618E-20	5.501483E-20
3.014145E+03	-1.785810E-20	5.504201E-20
3.014541E+03	-1.783292E-20	5.493120E-20
3.014739E+03	-1.779481E-20	5.479726E-20
3.015333E+03	-1.778051E-20	5.470372E-20
3.016323E+03	-1.779085E-20	5.465308E-20
3.017512E+03	-1.781826E-20	5.463867E-20
3.021869E+03	-1.803210E-20	5.493012E-20
3.022464E+03	-1.801352E-20	5.482415E-20
3.023454E+03	-1.801881E-20	5.475821E-20
3.025237E+03	-1.806396E-20	5.474797E-20
3.025435E+03	-1.802241E-20	5.460573E-20
3.026029E+03	-1.800013E-20	5.448940E-20
3.026227E+03	-1.795429E-20	5.433443E-20
3.027812E+03	-1.798656E-20	5.430236E-20
3.028010E+03	-1.794147E-20	5.415008E-20
3.029000E+03	-1.793959E-20	5.406398E-20
3.029792E+03	-1.792397E-20	5.395267E-20
3.031178E+03	-1.793484E-20	5.387327E-20
3.031574E+03	-1.789867E-20	5.373267E-20
3.031772E+03	-1.784820E-20	5.356527E-20
3.031970E+03	-1.779766E-20	5.339775E-20
3.032168E+03	-1.774566E-20	5.322595E-20
3.032565E+03	-1.770741E-20	5.307971E-20
3.033556E+03	-1.769501E-20	5.296400E-20
3.035140E+03	-1.771023E-20	5.288412E-20
3.036130E+03	-1.769286E-20	5.275424E-20
3.036329E+03	-1.763950E-20	5.257961E-20
3.037517E+03	-1.762981E-20	5.245774E-20
3.037913E+03	-1.758493E-20	5.229331E-20
3.038111E+03	-1.752957E-20	5.211331E-20
3.038309E+03	-1.747413E-20	5.193318E-20
3.039102E+03	-1.744599E-20	5.178840E-20
3.039894E+03	-1.741730E-20	5.164234E-20
3.040291E+03	-1.736962E-20	5.147070E-20
3.041874E+03	-1.737287E-20	5.135943E-20
3.042072E+03	-1.731618E-20	5.117682E-20
3.042666E+03	-1.727696E-20	5.101593E-20
3.042864E+03	-1.721724E-20	5.082464E-20
3.043062E+03	-1.715881E-20	5.063731E-20
3.043260E+03	-1.709892E-20	5.044575E-20
3.043458E+03	-1.703894E-20	5.025405E-20
3.044053E+03	-1.699710E-20	5.008658E-20
3.044251E+03	-1.693546E-20	4.989031E-20
3.044449E+03	-1.687372E-20	4.969385E-20
3.044647E+03	-1.681606E-20	4.950953E-20
3.044846E+03	-1.675695E-20	4.932099E-20
3.045044E+03	-1.669774E-20	4.913231E-20
3.045242E+03	-1.663565E-20	4.893529E-20
3.045440E+03	-1.657349E-20	4.873815E-20
3.046034E+03	-1.652572E-20	4.855502E-20
3.046232E+03	-1.646607E-20	4.836561E-20
3.046628E+03	-1.641342E-20	4.818277E-20
3.046826E+03	-1.634797E-20	4.797660E-20
3.047024E+03	-1.628800E-20	4.778661E-20
3.047420E+03	-1.622930E-20	4.758657E-20
3.047618E+03	-1.616631E-20	4.738804E-20
3.048015E+03	-1.611425E-20	4.720783E-20
3.048807E+03	-1.607248E-20	4.703051E-20
3.049401E+03	-1.601804E-20	4.683021E-20
3.050193E+03	-1.596959E-20	4.663413E-20
3.050392E+03	-1.590297E-20	4.642598E-20
3.050590E+03	-1.583480E-20	4.621351E-20
3.050788E+03	-1.576797E-20	4.600504E-20
3.050986E+03	-1.569963E-20	4.579233E-20
3.051382E+03	-1.563880E-20	4.558833E-20
3.051778E+03	-1.557489E-20	4.537562E-20
3.052373E+03	-1.551681E-20	4.516695E-20
3.052571E+03	-1.544935E-20	4.495753E-20
3.052967E+03	-1.538344E-20	4.473970E-20
3.053362E+03	-1.531869E-20	4.452555E-20
3.053758E+03	-1.525944E-20	4.432758E-20
3.054352E+03	-1.520270E-20	4.412430E-20
3.055342E+03	-1.515951E-20	4.393513E-20
3.055540E+03	-1.508830E-20	4.371607E-20
3.055739E+03	-1.501417E-20	4.348869E-20
3.055937E+03	-1.494422E-20	4.327353E-20
3.056136E+03	-1.487423E-20	4.305831E-20
3.056928E+03	-1.481538E-20	4.283828E-20
3.057126E+03	-1.474365E-20	4.261851E-20
3.057918E+03	-1.468684E-20	4.240518E-20
3.058116E+03	-1.461054E-20	4.217267E-20
3.058512E+03	-1.454615E-20	4.196252E-20
3.058710E+03	-1.447391E-20	4.174206E-20
3.059701E+03	-1.442328E-20	4.153600E-20
3.060295E+03	-1.435426E-20	4.130140E-20
3.060889E+03	-1.428524E-20	4.106725E-20
3.061087E+03	-1.420806E-20	4.083357E-20
3.061285E+03	-1.413221E-20	4.060387E-20
3.061682E+03	-1.406239E-20	4.037992E-20
3.062078E+03	-1.398977E-20	4.014824E-20
3.062276E+03	-1.391163E-20	3.991247E-20
3.062474E+03	-1.383153E-20	3.967123E-20
3.062870E+03	-1.375879E-20	3.943987E-20
3.063068E+03	-1.367836E-20	3.919802E-20
3.063266E+03	-1.360161E-20	3.896687E-20
3.063465E+03	-1.352305E-20	3.873066E-20
3.063663E+03	-1.344429E-20	3.849401E-20
3.064454E+03	-1.337652E-20	3.825597E-20
3.064850E+03	-1.330243E-20	3.802219E-20
3.065049E+03	-1.322157E-20	3.778014E-20
3.065247E+03	-1.314466E-20	3.754960E-20
3.065444E+03	-1.306623E-20	3.731487E-20
3.065643E+03	-1.298980E-20	3.708589E-20
3.066434E+03	-1.291871E-20	3.684063E-20
3.066632E+03	-1.284215E-20	3.661180E-20
3.067227E+03	-1.276879E-20	3.637130E-20
3.067624E+03	-1.269708E-20	3.614627E-20
3.068020E+03	-1.262401E-20	3.591766E-20
3.068218E+03	-1.254415E-20	3.568021E-20
3.068614E+03	-1.246445E-20	3.543320E-20
3.068812E+03	-1.238225E-20	3.518945E-20
3.069208E+03	-1.230374E-20	3.494629E-20
3.069406E+03	-1.222297E-20	3.470695E-20
3.070000E+03	-1.214449E-20	3.445451E-20
3.070594E+03	-1.206562E-20	3.420139E-20
3.070792E+03	-1.198159E-20	3.395349E-20
3.071585E+03	-1.190804E-20	3.370650E-20
3.072179E+03	-1.182932E-20	3.345500E-20
3.073368E+03	-1.175846E-20	3.319764E-20
3.073566E+03	-1.167674E-20	3.295752E-20
3.073764E+03	-1.159367E-20	3.271373E-20
3.073962E+03	-1.151242E-20	3.247522E-20
3.074160E+03	-1.142983E-20	3.223304E-20
3.074358E+03	-1.134673E-20	3.198956E-20
3.074952E+03	-1.126857E-20	3.174206E-20
3.075151E+03	-1.119186E-20	3.151702E-20
3.075547E+03	-1.111291E-20	3.127686E-20
3.075745E+03	-1.102717E-20	3.102672E-20
3.075943E+03	-1.094854E-20	3.079672E-20
3.076536E+03	-1.087173E-20	3.055462E-20
3.077131E+03	-1.079504E-20	3.031315E-20
3.077526E+03	-1.071058E-20	3.005895E-20
3.077724E+03	-1.062459E-20	2.980913E-20
3.077922E+03	-1.054233E-20	2.956994E-20
3.078120E+03	-1.046239E-20	2.933737E-20
3.078318E+03	-1.038531E-20	2.911297E-20
3.078517E+03	-1.030045E-20	2.886686E-20
3.078715E+03	-1.021932E-20	2.863137E-20
3.079904E+03	-1.014442E-20	2.837316E-20
3.080696E+03	-1.007083E-20	2.813543E-20
3.080894E+03	-9.987759E-21	2.789543E-20
3.081290E+03	-9.905655E-21	2.765045E-20
3.081488E+03	-9.822903E-21	2.741170E-20
3.083271E+03	-9.747796E-21	2.713293E-20
3.083469E+03	-9.661678E-21	2.688561E-20
3.085450E+03	-9.586221E-21	2.660039E-20
3.086044E+03	-9.502404E-21	2.634548E-20
3.086242E+03	-9.416455E-21	2.609982E-20
3.086440E+03	-9.330624E-21	2.585463E-20
3.087035E+03	-9.246814E-21	2.560075E-20
3.087233E+03	-9.161316E-21	2.535689E-20
3.087431E+03	-9.075929E-21	2.511348E-20
3.087827E+03	-8.991522E-21	2.486591E-20
3.088025E+03	-8.906347E-21	2.462343E-20
3.088223E+03	-8.821432E-21	2.438180E-20
3.088618E+03	-8.737267E-21	2.413562E-20
3.088817E+03	-8.652571E-21	2.389490E-20
3.089608E+03	-8.570100E-21	2.364058E-20
3.090203E+03	-8.486918E-21	2.339135E-20
3.090401E+03	-8.402620E-21	2.315250E-20
3.090798E+03	-8.319051E-21	2.290936E-20
3.090996E+03	-8.234822E-21	2.267105E-20
3.091986E+03	-8.152990E-21	2.241428E-20
3.092184E+03	-8.069089E-21	2.217739E-20
3.092382E+03	-7.985463E-21	2.194140E-20
3.092580E+03	-7.902548E-21	2.170749E-20
3.092778E+03	-7.824486E-21	2.148703E-20
3.092976E+03	-7.742266E-21	2.125529E-20
3.093174E+03	-7.659290E-21	2.102160E-20
3.094561E+03	-7.578636E-21	2.075950E-20
3.094759E+03	-7.498047E-21	2.053300E-20
3.094957E+03	-7.418603E-21	2.030976E-20
3.095155E+03	-7.336194E-21	2.007853E-20
3.096542E+03	-7.258838E-21	1.982795E-20
3.097136E+03	-7.178574E-21	1.959227E-20
3.097334E+03	-7.097177E-21	1.936471E-20
3.097928E+03	-7.016872E-21	1.912957E-20
3.098523E+03	-6.936566E-21	1.889482E-20
3.099711E+03	-6.864517E-21	1.866730E-20
3.100305E+03	-6.791906E-21	1.845442E-20
3.100700E+03	-6.718848E-21	1.824577E-20
3.101295E+03	-6.645165E-21	1.803060E-20
3.102682E+03	-6.570441E-21	1.779317E-20
3.102880E+03	-6.495985E-21	1.758665E-20
3.103276E+03	-6.421340E-21	1.737490E-20
3.103474E+03	-6.346568E-21	1.716781E-20
3.103870E+03	-6.271582E-21	1.695555E-20
3.104068E+03	-6.196645E-21	1.674831E-20
3.104464E+03	-6.121469E-21	1.653594E-20
3.104662E+03	-6.046219E-21	1.632813E-20
3.105256E+03	-5.970586E-21	1.611047E-20
3.106842E+03	-5.893235E-21	1.586652E-20
3.107040E+03	-5.818239E-21	1.566027E-20
3.107436E+03	-5.743007E-21	1.544922E-20
3.107832E+03	-5.667769E-21	1.523838E-20
3.108030E+03	-5.592751E-21	1.503253E-20
3.108228E+03	-5.517736E-21	1.482680E-20
3.108822E+03	-5.442060E-21	1.461132E-20
3.109020E+03	-5.367488E-21	1.440712E-20
3.109218E+03	-5.292320E-21	1.420143E-20
3.110010E+03	-5.216014E-21	1.398121E-20
3.110209E+03	-5.141145E-21	1.377673E-20
3.110407E+03	-5.066137E-21	1.357198E-20
3.110803E+03	-4.990815E-21	1.336282E-20
3.111397E+03	-4.915182E-21	1.314942E-20
3.111595E+03	-4.840770E-21	1.294678E-20
3.112190E+03	-4.765402E-21	1.273464E-20
3.112784E+03	-4.690298E-21	1.252359E-20
3.112981E+03	-4.619893E-21	1.233221E-20
3.113378E+03	-4.555447E-21	1.215347E-20
3.113575E+03	-4.486528E-21	1.196632E-20
3.114764E+03	-4.412739E-21	1.175010E-20
3.114962E+03	-4.340759E-21	1.155525E-20
3.115754E+03	-4.271360E-21	1.135802E-20
3.116348E+03	-4.202386E-21	1.116539E-20
3.116942E+03	-4.136464E-21	1.098120E-20
3.117536E+03	-4.071292E-21	1.079928E-20
3.117734E+03	-4.005692E-21	1.062236E-20
3.118924E+03	-3.933257E-21	1.041311E-20
3.119122E+03	-3.864187E-21	1.022745E-20
3.120310E+03	-3.796968E-21	1.003304E-20
3.122093E+03	-3.724628E-21	9.817698E-21
3.123281E+03	-3.658828E-21	9.628442E-21
3.123480E+03	-3.595924E-21	9.460310E-21
3.123678E+03	-3.532022E-21	9.289658E-21
3.124470E+03	-3.465434E-21	9.104582E-21
3.125262E+03	-3.399329E-21	8.921166E-21
3.125460E+03	-3.341064E-21	8.765865E-21
3.126252E+03	-3.283308E-21	8.604958E-21
3.126450E+03	-3.218557E-21	8.432961E-21
3.126648E+03	-3.156306E-21	8.267603E-21
3.127440E+03	-3.091089E-21	8.087964E-21
3.127638E+03	-3.029057E-21	7.923497E-21
3.127836E+03	-2.965882E-21	7.756131E-21
3.128034E+03	-2.908834E-21	7.604874E-21
3.129421E+03	-2.846759E-21	7.428435E-21
3.131006E+03	-2.781714E-21	7.242942E-21
3.131204E+03	-2.727603E-21	7.100123E-21
3.131798E+03	-2.671816E-21	6.949248E-21
3.132788E+03	-2.614637E-21	6.791320E-21
3.133184E+03	-2.554765E-21	6.632210E-21
3.133383E+03	-2.498950E-21	6.485557E-21
3.133977E+03	-2.440918E-21	6.329802E-21
3.134373E+03	-2.383777E-21	6.178277E-21
3.134572E+03	-2.334992E-21	6.050190E-21
3.134968E+03	-2.286282E-21	5.920775E-21
3.135166E+03	-2.232093E-21	5.778878E-21
3.135364E+03	-2.178361E-21	5.638240E-21
3.135562E+03	-2.126958E-21	5.503707E-21
3.135958E+03	-2.072080E-21	5.358808E-21
3.136552E+03	-2.019371E-21	5.218260E-21
3.136749E+03	-1.967515E-21	5.082893E-21
3.137145E+03	-1.914518E-21	4.943308E-21
3.137344E+03	-1.864020E-21	4.811622E-21
3.137542E+03	-1.821005E-21	4.699319E-21
3.137740E+03	-1.772855E-21	4.573828E-21
3.137938E+03	-1.724447E-21	4.447738E-21
3.138532E+03	-1.677701E-21	4.323670E-21
3.139126E+03	-1.629455E-21	4.195936E-21
3.139324E+03	-1.580751E-21	4.069425E-21
3.139522E+03	-1.536079E-21	3.953358E-21
3.139918E+03	-1.489360E-21	3.831053E-21
3.140711E+03	-1.443425E-21	3.708892E-21
3.140909E+03	-1.400039E-21	3.596443E-21
3.141108E+03	-1.356396E-21	3.483395E-21
3.141702E+03	-1.313357E-21	3.370144E-21
3.141900E+03	-1.275019E-21	3.270886E-21
3.142296E+03	-1.232380E-21	3.159803E-21
3.142890E+03	-1.190378E-21	3.049648E-21
3.143286E+03	-1.148050E-21	2.939629E-21
3.144672E+03	-1.105569E-21	2.825537E-21
3.144870E+03	-1.069928E-21	2.733717E-21
3.145267E+03	-1.035645E-21	2.644702E-21
3.145465E+03	-9.976632E-22	2.547025E-21
3.145663E+03	-9.616163E-22	2.454339E-21
3.146060E+03	-9.253470E-22	2.360500E-21
3.146456E+03	-8.874660E-22	2.262654E-21
3.146852E+03	-8.512568E-22	2.169174E-21
3.147050E+03	-8.169044E-22	2.081079E-21
3.147248E+03	-7.816036E-22	1.990617E-21
3.148040E+03	-7.498453E-22	1.907690E-21
3.148435E+03	-7.149500E-22	1.817941E-21
3.148634E+03	-6.843171E-22	1.739582E-21
3.148831E+03	-6.575012E-22	1.670969E-21
3.149031E+03	-6.287531E-22	1.597479E-21
3.149228E+03	-5.969856E-22	1.516364E-21
3.149426E+03	-5.657614E-22	1.436669E-21
3.149822E+03	-5.356539E-22	1.359488E-21
3.150020E+03	-5.077968E-22	1.288443E-21
3.150218E+03	-4.803953E-22	1.218591E-21
3.151010E+03	-4.526998E-22	1.147111E-21
3.151208E+03	-4.249434E-22	1.076491E-21
3.151407E+03	-4.035349E-22	1.021983E-21
3.151605E+03	-3.799954E-22	9.621107E-22
3.151803E+03	-3.593638E-22	9.096307E-22
3.152001E+03	-3.342314E-22	8.457894E-22
3.152199E+03	-3.131907E-22	7.923334E-22
3.152397E+03	-2.925718E-22	7.399728E-22
3.152595E+03	-2.725557E-22	6.891641E-22
3.152794E+03	-2.500094E-22	6.319867E-22
3.153190E+03	-2.292442E-22	5.791864E-22
3.153388E+03	-2.099157E-22	5.302117E-22
3.153586E+03	-1.956899E-22	4.941479E-22
3.153784E+03	-1.842957E-22	4.652519E-22
3.154180E+03	-1.651455E-22	4.166853E-22
3.154378E+03	-1.499242E-22	3.781792E-22
3.155170E+03	-1.328193E-22	3.346759E-22
3.155368E+03	-1.191456E-22	3.001413E-22
3.155962E+03	-1.038718E-22	2.614562E-22
3.156160E+03	-8.851187E-23	2.227344E-22
3.156358E+03	-7.865635E-23	1.978810E-22
3.156556E+03	-7.137498E-23	1.795150E-22
3.156755E+03	-6.186228E-23	1.555483E-22
3.157152E+03	-4.993166E-23	1.254827E-22
3.157350E+03	-3.808257E-23	9.567946E-23
3.157548E+03	-2.975605E-23	7.473989E-23
3.158340E+03	-2.287852E-23	5.740420E-23
3.158934E+03	-1.652795E-23	4.143706E-23
3.159132E+03	-9.930027E-24	2.488887E-23
3.159528E+03	-7.629016E-24	1.911142E-23
3.159726E+03	-6.594128E-24	1.651454E-23
3.160320E+03	-1.735214E-24	4.342271E-24
3.160518E+03	-2.866228E-24	7.170673E-24
3.161311E+03	-4.213234E-24	1.052941E-23
3.161508E+03	3.289863E-25	-8.219622E-25
3.161706E+03	1.610430E-24	-4.022544E-24
3.161904E+03	4.084246E-24	-1.019896E-23
3.162102E+03	6.906264E-24	-1.724139E-23
3.162300E+03	8.461252E-24	-2.111780E-23
3.163291E+03	9.605056E-24	-2.394082E-23
3.163489E+03	1.036746E-23	-2.583430E-23
3.164281E+03	8.268394E-24	-2.058194E-23
3.164480E+03	4.508928E-24	-1.122080E-23
3.164876E+03	1.102357E-24	-2.741847E-24
3.165074E+03	-4.226715E-24	1.051016E-23
3.165668E+03	-1.047452E-23	2.602535E-23
3.166064E+03	-1.507744E-23	3.744213E-23
3.166460E+03	-2.104356E-23	5.223035E-23
3.166658E+03	-3.122765E-23	7.748694E-23
3.167252E+03	-3.786871E-23	9.389151E-23
3.167648E+03	-4.498221E-23	1.114699E-22
3.167846E+03	-5.312102E-23	1.316039E-22
3.168640E+03	-6.155893E-23	1.523474E-22
3.168838E+03	-7.164547E-23	1.772632E-22
3.169036E+03	-8.415821E-23	2.081670E-22
3.169432E+03	-9.554798E-23	2.362155E-22
3.170620E+03	-1.064409E-22	2.627301E-22
3.170818E+03	-1.213732E-22	2.995090E-22
3.171016E+03	-1.337986E-22	3.300840E-22
3.171214E+03	-1.476685E-22	3.642056E-22
3.171412E+03	-1.628188E-22	4.014664E-22
3.171610E+03	-1.787307E-22	4.405849E-22
3.172205E+03	-1.946583E-22	4.794697E-22
3.172403E+03	-2.152353E-22	5.300143E-22
3.172600E+03	-2.366047E-22	5.824841E-22
3.172799E+03	-2.571543E-22	6.329069E-22
3.172996E+03	-2.794974E-22	6.877181E-22
3.173789E+03	-2.976467E-22	7.316063E-22
3.173987E+03	-3.204018E-22	7.873309E-22
3.174383E+03	-3.416332E-22	8.390632E-22
3.174977E+03	-3.618266E-22	8.879602E-22
3.175175E+03	-3.845909E-22	9.435791E-22
3.175967E+03	-4.083386E-22	1.000794E-21
3.176166E+03	-4.313199E-22	1.056842E-21
3.176562E+03	-4.559615E-22	1.116635E-21
3.176760E+03	-4.806842E-22	1.176872E-21
3.177354E+03	-5.060868E-22	1.238093E-21
3.177552E+03	-5.336260E-22	1.305124E-21
3.177948E+03	-5.612405E-22	1.371945E-21
3.178344E+03	-5.896157E-22	1.440554E-21
3.178542E+03	-6.190303E-22	1.512025E-21
3.178938E+03	-6.496746E-22	1.586047E-21
3.179731E+03	-6.794939E-22	1.657110E-21
3.179929E+03	-7.090798E-22	1.728811E-21
3.180326E+03	-7.417714E-22	1.807572E-21
3.180524E+03	-7.742268E-22	1.886168E-21
3.181118E+03	-8.062802E-22	1.962720E-21
3.181316E+03	-8.403208E-22	2.045051E-21
3.181712E+03	-8.730621E-22	2.123624E-21
3.181910E+03	-9.064397E-22	2.204237E-21
3.182306E+03	-9.424508E-22	2.290612E-21
3.182504E+03	-9.808388E-22	2.383293E-21
3.183494E+03	-1.013214E-21	2.458755E-21
3.183891E+03	-1.049255E-21	2.544889E-21
3.184089E+03	-1.089887E-21	2.642752E-21
3.184682E+03	-1.125534E-21	2.727063E-21
3.184881E+03	-1.167594E-21	2.828230E-21
3.185475E+03	-1.205435E-21	2.917614E-21
3.185673E+03	-1.244882E-21	3.012306E-21
3.185871E+03	-1.286192E-21	3.111458E-21
3.186069E+03	-1.331540E-21	3.220324E-21
3.186465E+03	-1.374138E-21	3.321620E-21
3.186663E+03	-1.416670E-21	3.423540E-21
3.187059E+03	-1.461151E-21	3.529200E-21
3.187257E+03	-1.504636E-21	3.633289E-21
3.187653E+03	-1.547107E-21	3.733904E-21
3.187852E+03	-1.595539E-21	3.849795E-21
3.188248E+03	-1.642490E-21	3.961025E-21
3.188446E+03	-1.688604E-21	4.071176E-21
3.188644E+03	-1.734890E-21	4.181685E-21
3.188842E+03	-1.782843E-21	4.296154E-21
3.189238E+03	-1.829772E-21	4.406954E-21
3.189634E+03	-1.876042E-21	4.516052E-21
3.190030E+03	-1.923630E-21	4.628208E-21
3.190427E+03	-1.972404E-21	4.743092E-21
3.190625E+03	-2.022010E-21	4.861120E-21
3.191219E+03	-2.071655E-21	4.976604E-21
3.191417E+03	-2.123463E-21	5.099740E-21
3.192210E+03	-2.169883E-21	5.205832E-21
3.192408E+03	-2.222603E-21	5.330934E-21
3.192804E+03	-2.274344E-21	5.452214E-21
3.193794E+03	-2.323887E-21	5.563786E-21
3.193992E+03	-2.380844E-21	5.698679E-21
3.194190E+03	-2.435868E-21	5.828875E-21
3.194388E+03	-2.491891E-21	5.961393E-21
3.194982E+03	-2.543276E-21	6.079613E-21
3.195180E+03	-2.600693E-21	6.215260E-21
3.196172E+03	-2.650016E-21	6.324963E-21
3.196766E+03	-2.702360E-21	6.444904E-21
3.196963E+03	-2.758903E-21	6.578068E-21
3.197360E+03	-2.815161E-21	6.708736E-21
3.197953E+03	-2.867626E-21	6.828493E-21
3.198151E+03	-2.926312E-21	6.966443E-21
3.198349E+03	-2.986797E-21	7.108604E-21
3.198745E+03	-3.042574E-21	7.237624E-21
3.199538E+03	-3.094751E-21	7.354166E-21
3.199736E+03	-3.155611E-21	7.496861E-21
3.199934E+03	-3.216937E-21	7.640589E-21
3.201320E+03	-3.261142E-21	7.731652E-21
3.201519E+03	-3.323145E-21	7.876616E-21
3.201915E+03	-3.382537E-21	8.013271E-21
3.202113E+03	-3.445540E-21	8.160429E-21
3.202311E+03	-3.509007E-21	8.308610E-21
3.202509E+03	-3.572814E-21	8.457521E-21
3.202707E+03	-3.637083E-21	8.607446E-21
3.202905E+03	-3.714461E-21	8.788313E-21
3.203302E+03	-2.243891E-21	5.306260E-21
3.204688E+03	-2.190145E-21	5.169876E-21
3.205480E+03	-2.075358E-21	4.893898E-21
3.206272E+03	-2.066265E-21	4.867467E-21
3.206668E+03	-2.010380E-21	4.733393E-21
3.206866E+03	-1.976927E-21	4.653437E-21
3.207660E+03	-1.979096E-21	4.653770E-21
3.207858E+03	-1.845218E-21	4.337852E-21
3.209244E+03	-1.797638E-21	4.218442E-21
3.209837E+03	-1.659143E-21	3.890464E-21
3.210035E+03	-1.605868E-21	3.764580E-21
3.210629E+03	-1.627889E-21	3.813282E-21
3.210827E+03	-1.654433E-21	3.874470E-21
3.211224E+03	-1.599891E-21	3.744829E-21
3.211422E+03	-1.520602E-21	3.558330E-21
3.211620E+03	-1.503555E-21	3.517543E-21
3.213205E+03	-1.491793E-21	3.482910E-21
3.213403E+03	-1.473782E-21	3.439981E-21
3.213601E+03	-1.483918E-21	3.462759E-21
3.214195E+03	-1.469305E-21	3.426039E-21
3.214393E+03	-1.478169E-21	3.445830E-21
