#wls	flux	fluxerr
1.584409E+03	1.724701E-16	5.857418E-17
1.624020E+03	1.791879E-16	6.085466E-17
1.663630E+03	1.852336E-16	6.290680E-17
1.703240E+03	1.904945E-16	6.469231E-17
1.742850E+03	1.948344E-16	6.616500E-17
1.782461E+03	1.980694E-16	6.726235E-17
1.822071E+03	1.999497E-16	6.789961E-17
1.861681E+03	2.002420E-16	6.799755E-17
1.901291E+03	1.986992E-16	6.747230E-17
1.940902E+03	1.951224E-16	6.625637E-17
1.980512E+03	1.895231E-16	6.435373E-17
2.020122E+03	1.822252E-16	6.187433E-17
2.059732E+03	1.740473E-16	5.909623E-17
2.099342E+03	1.662722E-16	5.645499E-17
2.138953E+03	1.601440E-16	5.437300E-17
2.178563E+03	1.563050E-16	5.306828E-17
2.218173E+03	1.544187E-16	5.242658E-17
2.257783E+03	1.533789E-16	5.207223E-17
2.297394E+03	1.521389E-16	5.164995E-17
2.337004E+03	1.499326E-16	5.089957E-17
2.376614E+03	1.463655E-16	4.968725E-17
2.416224E+03	1.413587E-16	4.798624E-17
2.455835E+03	1.350403E-16	4.584004E-17
2.495445E+03	1.276344E-16	4.332481E-17
2.535055E+03	1.193931E-16	4.052612E-17
2.574665E+03	1.105782E-16	3.753287E-17
2.614276E+03	1.014329E-16	3.442762E-17
2.653886E+03	9.217516E-17	3.128442E-17
2.693496E+03	8.299644E-17	2.816820E-17
2.733106E+03	7.406574E-17	2.513634E-17
2.772716E+03	6.551377E-17	2.223320E-17
2.812327E+03	5.744918E-17	1.949564E-17
2.851937E+03	4.996055E-17	1.695371E-17
2.891547E+03	4.311146E-17	1.462897E-17
2.931157E+03	3.694343E-17	1.253549E-17
2.970768E+03	3.147004E-17	1.067785E-17
2.980670E+03	3.020894E-17	1.024985E-17
2.990573E+03	2.899001E-17	9.836170E-18
3.000475E+03	2.781319E-17	9.436783E-18
3.010378E+03	2.667764E-17	9.051408E-18
3.020280E+03	2.558256E-17	8.679769E-18
3.030183E+03	2.452761E-17	8.321751E-18
3.040086E+03	2.351162E-17	7.976961E-18
3.049988E+03	2.253556E-17	7.645725E-18
3.059891E+03	2.159866E-17	7.327782E-18
3.069793E+03	2.069985E-17	7.022765E-18
3.079696E+03	1.983768E-17	6.730187E-18
3.089598E+03	1.901118E-17	6.449715E-18
3.099501E+03	1.821899E-17	6.180889E-18
3.109403E+03	1.745987E-17	5.923290E-18
3.119306E+03	1.673295E-17	5.676617E-18
3.129209E+03	1.603675E-17	5.440371E-18
3.139111E+03	1.537077E-17	5.214381E-18
3.149014E+03	1.473362E-17	4.998180E-18
3.158916E+03	1.412453E-17	4.791498E-18
3.168819E+03	1.354245E-17	4.593987E-18
3.178721E+03	1.298641E-17	4.405309E-18
3.188624E+03	1.245562E-17	4.225205E-18
3.198526E+03	1.194914E-17	4.053346E-18
3.208429E+03	1.146581E-17	3.889348E-18
3.218332E+03	1.100530E-17	3.733092E-18
3.228234E+03	1.056615E-17	3.584085E-18
3.238137E+03	1.014800E-17	3.442208E-18
3.248039E+03	9.749677E-18	3.307056E-18
3.257942E+03	9.370494E-18	3.178399E-18
3.267844E+03	9.009780E-18	3.056010E-18
3.277747E+03	8.666464E-18	2.939525E-18
3.287650E+03	8.340055E-18	2.828778E-18
3.297552E+03	8.029792E-18	2.723509E-18
3.307455E+03	7.734840E-18	2.623435E-18
3.317357E+03	7.454514E-18	2.528325E-18
3.327260E+03	7.188157E-18	2.437954E-18
3.337162E+03	6.935225E-18	2.352139E-18
3.347065E+03	6.694918E-18	2.270608E-18
3.356967E+03	6.466834E-18	2.193224E-18
3.366870E+03	6.250235E-18	2.119736E-18
3.376773E+03	6.044596E-18	2.049968E-18
3.386675E+03	5.849484E-18	1.983772E-18
3.396578E+03	5.664195E-18	1.920908E-18
3.406480E+03	5.488417E-18	1.861271E-18
3.416383E+03	5.321645E-18	1.804690E-18
3.426285E+03	5.163279E-18	1.750961E-18
3.436188E+03	5.013066E-18	1.699997E-18
3.446090E+03	4.870463E-18	1.651616E-18
3.455993E+03	4.735139E-18	1.605705E-18
3.465896E+03	4.606724E-18	1.562137E-18
3.475798E+03	4.484720E-18	1.520744E-18
3.485701E+03	4.368866E-18	1.481438E-18
3.495603E+03	4.258771E-18	1.444085E-18
3.505506E+03	4.154079E-18	1.408566E-18
3.515408E+03	4.054500E-18	1.374781E-18
3.525311E+03	3.959684E-18	1.342612E-18
3.535213E+03	3.869348E-18	1.311962E-18
3.545116E+03	3.783192E-18	1.282731E-18
3.555019E+03	3.701012E-18	1.254849E-18
3.564921E+03	3.622579E-18	1.228237E-18
3.574824E+03	3.547646E-18	1.202813E-18
3.584726E+03	3.476049E-18	1.178521E-18
3.594629E+03	3.407632E-18	1.155307E-18
3.604531E+03	3.342185E-18	1.133101E-18
3.614434E+03	3.279660E-18	1.111886E-18
3.624337E+03	3.219860E-18	1.091596E-18
3.634239E+03	3.162714E-18	1.072206E-18
3.644142E+03	3.108122E-18	1.053682E-18
3.654044E+03	3.055985E-18	1.035991E-18
3.663947E+03	3.006232E-18	1.019108E-18
3.673849E+03	2.958819E-18	1.003020E-18
3.683752E+03	2.913597E-18	9.876739E-19
3.693654E+03	2.870572E-18	9.730734E-19
3.703557E+03	2.829624E-18	9.591772E-19
3.713460E+03	2.790704E-18	9.459691E-19
3.723362E+03	2.753769E-18	9.334338E-19
3.733265E+03	2.718702E-18	9.215323E-19
3.743167E+03	2.685503E-18	9.102642E-19
3.753070E+03	2.654083E-18	8.995990E-19
3.762972E+03	2.624396E-18	8.895219E-19
3.772875E+03	2.596380E-18	8.800111E-19
3.782777E+03	2.569993E-18	8.710529E-19
3.792680E+03	2.545176E-18	8.626270E-19
3.802583E+03	2.521890E-18	8.547199E-19
3.812485E+03	2.500079E-18	8.473130E-19
3.822388E+03	2.479729E-18	8.404019E-19
3.832290E+03	2.460786E-18	8.339672E-19
3.842193E+03	2.443198E-18	8.279922E-19
3.852095E+03	2.426938E-18	8.224670E-19
3.861998E+03	2.411954E-18	8.173746E-19
3.871900E+03	2.398238E-18	8.127118E-19
3.881803E+03	2.385744E-18	8.084633E-19
3.891706E+03	2.374443E-18	8.046193E-19
3.901608E+03	2.364294E-18	8.011655E-19
3.911511E+03	2.355253E-18	7.980870E-19
3.921413E+03	2.347331E-18	7.953881E-19
3.931316E+03	2.340451E-18	7.930421E-19
3.941218E+03	2.334609E-18	7.910478E-19
3.951121E+03	2.329765E-18	7.893917E-19
3.961024E+03	2.325898E-18	7.880667E-19
3.970926E+03	2.322989E-18	7.870661E-19
3.980829E+03	2.320983E-18	7.863713E-19
3.990731E+03	2.319878E-18	7.859820E-19
4.000634E+03	2.319643E-18	7.858869E-19
4.010536E+03	2.320255E-18	7.860791E-19
4.020439E+03	2.321685E-18	7.865482E-19
4.030341E+03	2.323900E-18	7.872829E-19
4.040244E+03	2.326902E-18	7.882843E-19
4.050147E+03	2.330644E-18	7.895363E-19
4.060049E+03	2.335113E-18	7.910345E-19
4.069952E+03	2.340299E-18	7.927753E-19
4.079854E+03	2.346158E-18	7.947438E-19
4.089757E+03	2.352697E-18	7.969424E-19
4.099659E+03	2.359871E-18	7.993563E-19
4.109562E+03	2.367677E-18	8.019836E-19
4.119464E+03	2.376103E-18	8.048209E-19
4.129367E+03	2.385107E-18	8.078541E-19
4.139270E+03	2.394703E-18	8.110872E-19
4.149172E+03	2.404829E-18	8.144996E-19
4.159075E+03	2.415517E-18	8.181020E-19
4.168977E+03	2.426704E-18	8.218735E-19
4.178880E+03	2.438387E-18	8.258124E-19
4.188782E+03	2.450546E-18	8.299124E-19
4.198685E+03	2.463174E-18	8.341708E-19
4.208587E+03	2.476214E-18	8.385684E-19
4.218490E+03	2.489684E-18	8.431115E-19
4.228393E+03	2.503542E-18	8.477855E-19
4.238295E+03	2.517749E-18	8.525776E-19
4.248198E+03	2.532305E-18	8.574874E-19
4.258100E+03	2.547189E-18	8.625078E-19
4.268003E+03	2.562343E-18	8.676194E-19
4.277905E+03	2.577745E-18	8.728148E-19
4.287808E+03	2.593374E-18	8.780863E-19
4.297711E+03	2.609206E-18	8.834265E-19
4.307613E+03	2.625219E-18	8.888275E-19
4.317516E+03	2.641412E-18	8.942890E-19
4.327418E+03	2.657759E-18	8.998025E-19
4.337321E+03	2.674235E-18	9.053590E-19
4.347223E+03	2.690880E-18	9.109724E-19
4.357126E+03	2.707667E-18	9.166338E-19
4.367028E+03	2.724593E-18	9.223415E-19
4.376931E+03	2.741673E-18	9.281011E-19
4.386834E+03	2.758908E-18	9.339125E-19
4.396736E+03	2.776267E-18	9.397657E-19
4.406639E+03	2.793771E-18	9.456676E-19
4.416541E+03	2.811396E-18	9.516097E-19
4.426444E+03	2.829138E-18	9.575913E-19
4.436346E+03	2.846999E-18	9.636126E-19
4.446249E+03	2.864932E-18	9.696577E-19
4.456151E+03	2.882961E-18	9.757351E-19
4.466054E+03	2.901068E-18	9.818383E-19
4.475957E+03	2.919235E-18	9.879615E-19
4.485859E+03	2.937467E-18	9.941060E-19
4.495762E+03	2.955725E-18	1.000259E-18
4.505664E+03	2.974016E-18	1.006423E-18
4.515567E+03	2.992353E-18	1.012601E-18
4.525469E+03	3.010724E-18	1.018791E-18
4.535372E+03	3.029092E-18	1.024979E-18
4.545274E+03	3.047473E-18	1.031171E-18
4.555177E+03	3.065856E-18	1.037363E-18
4.565080E+03	3.084234E-18	1.043554E-18
4.574982E+03	3.102627E-18	1.049748E-18
4.584885E+03	3.121002E-18	1.055937E-18
4.594787E+03	3.139382E-18	1.062126E-18
4.604690E+03	3.157764E-18	1.068315E-18
4.614592E+03	3.176145E-18	1.074504E-18
4.624495E+03	3.194522E-18	1.080690E-18
4.634398E+03	3.212895E-18	1.086875E-18
4.644300E+03	3.231265E-18	1.093058E-18
4.654203E+03	3.249685E-18	1.099258E-18
4.664105E+03	3.268159E-18	1.105475E-18
4.674008E+03	3.286691E-18	1.111712E-18
4.683910E+03	3.305339E-18	1.117987E-18
4.693813E+03	3.324079E-18	1.124292E-18
4.703715E+03	3.342916E-18	1.130630E-18
4.713618E+03	3.361885E-18	1.137012E-18
4.723521E+03	3.380995E-18	1.143441E-18
4.733423E+03	3.400221E-18	1.149909E-18
4.743326E+03	3.419602E-18	1.156428E-18
4.753228E+03	3.439147E-18	1.163003E-18
4.763131E+03	3.458834E-18	1.169625E-18
4.773033E+03	3.478705E-18	1.176308E-18
4.782936E+03	3.498769E-18	1.183056E-18
4.792838E+03	3.519041E-18	1.189874E-18
4.802741E+03	3.539531E-18	1.196765E-18
4.812644E+03	3.560221E-18	1.203722E-18
4.822546E+03	3.581188E-18	1.210773E-18
4.832449E+03	3.602383E-18	1.217900E-18
4.842351E+03	3.623820E-18	1.225108E-18
4.852254E+03	3.645548E-18	1.232414E-18
4.862156E+03	3.667581E-18	1.239823E-18
4.872059E+03	3.689939E-18	1.247340E-18
4.881961E+03	3.712570E-18	1.254949E-18
4.891864E+03	3.735558E-18	1.262678E-18
4.901767E+03	3.758887E-18	1.270521E-18
4.911669E+03	3.782571E-18	1.278484E-18
4.921572E+03	3.806629E-18	1.286572E-18
4.931474E+03	3.831077E-18	1.294791E-18
4.941377E+03	3.855894E-18	1.303134E-18
4.951279E+03	3.881090E-18	1.311605E-18
4.961182E+03	3.906719E-18	1.320221E-18
4.971085E+03	3.932751E-18	1.328972E-18
4.980987E+03	3.959159E-18	1.337849E-18
4.990890E+03	3.986026E-18	1.346881E-18
5.000792E+03	4.013243E-18	1.356030E-18
5.010695E+03	4.040891E-18	1.365323E-18
5.020597E+03	4.068974E-18	1.374763E-18
5.030500E+03	4.097383E-18	1.384312E-18
5.040402E+03	4.126232E-18	1.394008E-18
5.050305E+03	4.155447E-18	1.403827E-18
5.060208E+03	4.185026E-18	1.413768E-18
5.070110E+03	4.215015E-18	1.423847E-18
5.080013E+03	4.245329E-18	1.434034E-18
5.089915E+03	4.275966E-18	1.444329E-18
5.099818E+03	4.306967E-18	1.454746E-18
5.109720E+03	4.338288E-18	1.465270E-18
5.119623E+03	4.369924E-18	1.475900E-18
5.129525E+03	4.401831E-18	1.486620E-18
5.139428E+03	4.434049E-18	1.497443E-18
5.149331E+03	4.466481E-18	1.508338E-18
5.159233E+03	4.499212E-18	1.519332E-18
5.169136E+03	4.532192E-18	1.530410E-18
5.179038E+03	4.565365E-18	1.541551E-18
5.188941E+03	4.598723E-18	1.552754E-18
5.198843E+03	4.632301E-18	1.564029E-18
5.208746E+03	4.665992E-18	1.575342E-18
5.218648E+03	4.699825E-18	1.586701E-18
5.228551E+03	4.733833E-18	1.598118E-18
5.238454E+03	4.767854E-18	1.609538E-18
5.248356E+03	4.802006E-18	1.621001E-18
5.258259E+03	4.836125E-18	1.632451E-18
5.268161E+03	4.870323E-18	1.643927E-18
5.278064E+03	4.904428E-18	1.655371E-18
5.287966E+03	4.938508E-18	1.666804E-18
5.297869E+03	4.972527E-18	1.678215E-18
5.307772E+03	5.006409E-18	1.689579E-18
5.317674E+03	5.040218E-18	1.700917E-18
5.327577E+03	5.073774E-18	1.712168E-18
5.337479E+03	5.107199E-18	1.723373E-18
5.347382E+03	5.140413E-18	1.734506E-18
5.357284E+03	5.173385E-18	1.745556E-18
5.367187E+03	5.206094E-18	1.756515E-18
5.377089E+03	5.238509E-18	1.767374E-18
5.386992E+03	5.270558E-18	1.778108E-18
5.396895E+03	5.302210E-18	1.788707E-18
5.406797E+03	5.333444E-18	1.799164E-18
5.416700E+03	5.364232E-18	1.809468E-18
5.426602E+03	5.394493E-18	1.819594E-18
5.436505E+03	5.424142E-18	1.829511E-18
5.446407E+03	5.453201E-18	1.839228E-18
5.456310E+03	5.481582E-18	1.848716E-18
5.466212E+03	5.509194E-18	1.857942E-18
5.476115E+03	5.535942E-18	1.866876E-18
5.486018E+03	5.561846E-18	1.875524E-18
5.495920E+03	5.586751E-18	1.883833E-18
5.505823E+03	5.610675E-18	1.891811E-18
5.515725E+03	5.633463E-18	1.899404E-18
5.525628E+03	5.655071E-18	1.906599E-18
5.535530E+03	5.675515E-18	1.913399E-18
5.545433E+03	5.694639E-18	1.919754E-18
5.555335E+03	5.712455E-18	1.925666E-18
5.565238E+03	5.728923E-18	1.931123E-18
5.575141E+03	5.743942E-18	1.936091E-18
5.585043E+03	5.757470E-18	1.940555E-18
5.594946E+03	5.769529E-18	1.944522E-18
5.604848E+03	5.780083E-18	1.947982E-18
5.614751E+03	5.789039E-18	1.950903E-18
5.624653E+03	5.796431E-18	1.953295E-18
5.634556E+03	5.802292E-18	1.955171E-18
5.644459E+03	5.806485E-18	1.956484E-18
5.654361E+03	5.809053E-18	1.957248E-18
5.664264E+03	5.810045E-18	1.957482E-18
5.674166E+03	5.809457E-18	1.957182E-18
5.684069E+03	5.807288E-18	1.956349E-18
5.693971E+03	5.803537E-18	1.954983E-18
5.703874E+03	5.798209E-18	1.953085E-18
5.713776E+03	5.791372E-18	1.950679E-18
5.723679E+03	5.782976E-18	1.947747E-18
5.733582E+03	5.773157E-18	1.944336E-18
5.743484E+03	5.761872E-18	1.940430E-18
5.753387E+03	5.749135E-18	1.936036E-18
5.763289E+03	5.735099E-18	1.931204E-18
5.773192E+03	5.719663E-18	1.925901E-18
5.783094E+03	5.702919E-18	1.920158E-18
5.792997E+03	5.684970E-18	1.914008E-18
5.802899E+03	5.665791E-18	1.907445E-18
5.812802E+03	5.645494E-18	1.900506E-18
5.822705E+03	5.624067E-18	1.893186E-18
5.832607E+03	5.601698E-18	1.885550E-18
5.842510E+03	5.578391E-18	1.877598E-18
5.852412E+03	5.554212E-18	1.869353E-18
5.862315E+03	5.529299E-18	1.860861E-18
5.872217E+03	5.503665E-18	1.852128E-18
5.882120E+03	5.477448E-18	1.843198E-18
5.892022E+03	5.450658E-18	1.834076E-18
5.901925E+03	5.423432E-18	1.824808E-18
5.911828E+03	5.395841E-18	1.815418E-18
5.921730E+03	5.367956E-18	1.805929E-18
5.931633E+03	5.339781E-18	1.796344E-18
5.941535E+03	5.311446E-18	1.786705E-18
5.951438E+03	5.283012E-18	1.777033E-18
5.961340E+03	5.254479E-18	1.767329E-18
5.971243E+03	5.225969E-18	1.757633E-18
5.981146E+03	5.197473E-18	1.747943E-18
5.991048E+03	5.168985E-18	1.738256E-18
6.000951E+03	5.140681E-18	1.728631E-18
6.010853E+03	5.112483E-18	1.719043E-18
6.020756E+03	5.084499E-18	1.709527E-18
6.030658E+03	5.056651E-18	1.700058E-18
6.040561E+03	5.029042E-18	1.690669E-18
6.050463E+03	5.001646E-18	1.681353E-18
6.060366E+03	4.974501E-18	1.672122E-18
6.070269E+03	4.947640E-18	1.662987E-18
6.080171E+03	4.921032E-18	1.653938E-18
6.090074E+03	4.894707E-18	1.644985E-18
6.099976E+03	4.868692E-18	1.636136E-18
6.109879E+03	4.843009E-18	1.627399E-18
6.119781E+03	4.817679E-18	1.618782E-18
6.129684E+03	4.792662E-18	1.610271E-18
6.139586E+03	4.768037E-18	1.601892E-18
6.149489E+03	4.743821E-18	1.593651E-18
6.159392E+03	4.720023E-18	1.585551E-18
6.169294E+03	4.696722E-18	1.577618E-18
6.179197E+03	4.673986E-18	1.569876E-18
6.189099E+03	4.651887E-18	1.562348E-18
6.199002E+03	4.630493E-18	1.555057E-18
6.208904E+03	4.609872E-18	1.548027E-18
6.218807E+03	4.590156E-18	1.541301E-18
6.228709E+03	4.571286E-18	1.534859E-18
6.238612E+03	4.553516E-18	1.528788E-18
6.248515E+03	4.536786E-18	1.523065E-18
6.258417E+03	4.521228E-18	1.517737E-18
6.268320E+03	4.506904E-18	1.512823E-18
6.278222E+03	4.493886E-18	1.508347E-18
6.288125E+03	4.482176E-18	1.504310E-18
6.298027E+03	4.471841E-18	1.500736E-18
6.307930E+03	4.462952E-18	1.497646E-18
6.317833E+03	4.455513E-18	1.495043E-18
6.327735E+03	4.449533E-18	1.492929E-18
6.337638E+03	4.445080E-18	1.491328E-18
6.347540E+03	4.442037E-18	1.490199E-18
6.357443E+03	4.440405E-18	1.489543E-18
6.367345E+03	4.440128E-18	1.489342E-18
6.377248E+03	4.441078E-18	1.489551E-18
6.387150E+03	4.443329E-18	1.490196E-18
6.397053E+03	4.446751E-18	1.491234E-18
6.406956E+03	4.451415E-18	1.492687E-18
6.416858E+03	4.457328E-18	1.494559E-18
6.426761E+03	4.464426E-18	1.496827E-18
6.436663E+03	4.472714E-18	1.499493E-18
6.446566E+03	4.482197E-18	1.502559E-18
6.456468E+03	4.492880E-18	1.506026E-18
6.466371E+03	4.504770E-18	1.509896E-18
6.476273E+03	4.517940E-18	1.514195E-18
6.486176E+03	4.532329E-18	1.518901E-18
6.496079E+03	4.547871E-18	1.523992E-18
6.505981E+03	4.564716E-18	1.529519E-18
6.515884E+03	4.582724E-18	1.535434E-18
6.525786E+03	4.601975E-18	1.541764E-18
6.535689E+03	4.622477E-18	1.548511E-18
6.545591E+03	4.644237E-18	1.555679E-18
6.555494E+03	4.667263E-18	1.563268E-18
6.565396E+03	4.691485E-18	1.571257E-18
6.575299E+03	4.716987E-18	1.579673E-18
6.585202E+03	4.743698E-18	1.588491E-18
6.595104E+03	4.771706E-18	1.597742E-18
6.605007E+03	4.800939E-18	1.607402E-18
6.614909E+03	4.831402E-18	1.617471E-18
6.624812E+03	4.863188E-18	1.627980E-18
6.634714E+03	4.896306E-18	1.638933E-18
6.644617E+03	4.930597E-18	1.650277E-18
6.654520E+03	4.966240E-18	1.662071E-18
6.664422E+03	5.003073E-18	1.674261E-18
6.674325E+03	5.041276E-18	1.686906E-18
6.684227E+03	5.080775E-18	1.699983E-18
6.694130E+03	5.121490E-18	1.713464E-18
6.704032E+03	5.163611E-18	1.727412E-18
6.713935E+03	5.206967E-18	1.741771E-18
6.723837E+03	5.251660E-18	1.756574E-18
6.733740E+03	5.297701E-18	1.771825E-18
6.743643E+03	5.345104E-18	1.787528E-18
6.753545E+03	5.393781E-18	1.803654E-18
6.763448E+03	5.443839E-18	1.820238E-18
6.773350E+03	5.495193E-18	1.837253E-18
6.783253E+03	5.547952E-18	1.854734E-18
6.793155E+03	5.602024E-18	1.872650E-18
6.803058E+03	5.657419E-18	1.891005E-18
6.812960E+03	5.714249E-18	1.909835E-18
6.822863E+03	5.772314E-18	1.929075E-18
6.832766E+03	5.831836E-18	1.948798E-18
6.842668E+03	5.892713E-18	1.968969E-18
6.852571E+03	5.954956E-18	1.989593E-18
6.862473E+03	6.018570E-18	2.010671E-18
6.872376E+03	6.083563E-18	2.032205E-18
6.882278E+03	6.149827E-18	2.054159E-18
6.892181E+03	6.217480E-18	2.076573E-18
6.902083E+03	6.286529E-18	2.099449E-18
6.911986E+03	6.356982E-18	2.122788E-18
6.921889E+03	6.428595E-18	2.146511E-18
6.931791E+03	6.501740E-18	2.170740E-18
6.941694E+03	6.576047E-18	2.195352E-18
6.951596E+03	6.651769E-18	2.220432E-18
6.961499E+03	6.728777E-18	2.245935E-18
6.971401E+03	6.807073E-18	2.271864E-18
6.981304E+03	6.886651E-18	2.298215E-18
6.991207E+03	6.967512E-18	2.324989E-18
7.001109E+03	7.049512E-18	2.352137E-18
7.011012E+03	7.132783E-18	2.379704E-18
7.020914E+03	7.217322E-18	2.407688E-18
7.030817E+03	7.302978E-18	2.436039E-18
7.040719E+03	7.389886E-18	2.464803E-18
7.050622E+03	7.477892E-18	2.493926E-18
7.060524E+03	7.566982E-18	2.523405E-18
7.070427E+03	7.657140E-18	2.553234E-18
7.080330E+03	7.748512E-18	2.583462E-18
7.090232E+03	7.840765E-18	2.613977E-18
7.100135E+03	7.933874E-18	2.644772E-18
7.110037E+03	8.028146E-18	2.675948E-18
7.119940E+03	8.123234E-18	2.707389E-18
7.129842E+03	8.219108E-18	2.739086E-18
7.139745E+03	8.315915E-18	2.771088E-18
7.149647E+03	8.413453E-18	2.803326E-18
7.159550E+03	8.511693E-18	2.835792E-18
7.169453E+03	8.610602E-18	2.868473E-18
7.179355E+03	8.710143E-18	2.901359E-18
7.189258E+03	8.810474E-18	2.934501E-18
7.199160E+03	8.911180E-18	2.967762E-18
7.209063E+03	9.012604E-18	3.001254E-18
7.218965E+03	9.114517E-18	3.034903E-18
7.228868E+03	9.216879E-18	3.068694E-18
7.238770E+03	9.319852E-18	3.102681E-18
7.248673E+03	9.423191E-18	3.136784E-18
7.258576E+03	9.527064E-18	3.171057E-18
7.268478E+03	9.631434E-18	3.205488E-18
7.278381E+03	9.736478E-18	3.240137E-18
7.288283E+03	9.842169E-18	3.274994E-18
7.298186E+03	9.948699E-18	3.310123E-18
7.308088E+03	1.005582E-17	3.345442E-18
7.317991E+03	1.016420E-17	3.381171E-18
7.327894E+03	1.027383E-17	3.417311E-18
7.337796E+03	1.038448E-17	3.453780E-18
7.347699E+03	1.049686E-17	3.490816E-18
7.357601E+03	1.061073E-17	3.528345E-18
7.367504E+03	1.072637E-17	3.566452E-18
7.377406E+03	1.084354E-17	3.605058E-18
7.387309E+03	1.096249E-17	3.644251E-18
7.397211E+03	1.108247E-17	3.683777E-18
7.407114E+03	1.120399E-17	3.723808E-18
7.417017E+03	1.132625E-17	3.764076E-18
7.426919E+03	1.144949E-17	3.804661E-18
7.436822E+03	1.157342E-17	3.845468E-18
7.446724E+03	1.169773E-17	3.886391E-18
7.456627E+03	1.182265E-17	3.927511E-18
7.466529E+03	1.194729E-17	3.968529E-18
7.476432E+03	1.207216E-17	4.009615E-18
7.486334E+03	1.219692E-17	4.050657E-18
7.496237E+03	1.232151E-17	4.091633E-18
7.506140E+03	1.244555E-17	4.132422E-18
7.516042E+03	1.256930E-17	4.173102E-18
7.525945E+03	1.269236E-17	4.213546E-18
7.535847E+03	1.281465E-17	4.253730E-18
7.545750E+03	1.293643E-17	4.293734E-18
7.555652E+03	1.305730E-17	4.333428E-18
7.565555E+03	1.317750E-17	4.372894E-18
7.575457E+03	1.329631E-17	4.411889E-18
7.585360E+03	1.341430E-17	4.450606E-18
7.595263E+03	1.353106E-17	4.488907E-18
7.605165E+03	1.364686E-17	4.526881E-18
7.615068E+03	1.376126E-17	4.564386E-18
7.624970E+03	1.387419E-17	4.601396E-18
7.634873E+03	1.398556E-17	4.637881E-18
7.644775E+03	1.409602E-17	4.674057E-18
7.654678E+03	1.420440E-17	4.709536E-18
7.664581E+03	1.431171E-17	4.744657E-18
7.674483E+03	1.441715E-17	4.779150E-18
7.684386E+03	1.452102E-17	4.813114E-18
