#wls	flux	fluxerr
1.584409E+03	8.326057E-17	1.647417E-17
1.624020E+03	8.653118E-17	1.712123E-17
1.663630E+03	8.949425E-17	1.770742E-17
1.703240E+03	9.210661E-17	1.822420E-17
1.742850E+03	9.428679E-17	1.865546E-17
1.782461E+03	9.597411E-17	1.898917E-17
1.822071E+03	9.703121E-17	1.919818E-17
1.861681E+03	9.735348E-17	1.926177E-17
1.901291E+03	9.681888E-17	1.915582E-17
1.940902E+03	9.531939E-17	1.885895E-17
1.980512E+03	9.286283E-17	1.837272E-17
2.020122E+03	8.960016E-17	1.772699E-17
2.059732E+03	8.592639E-17	1.699993E-17
2.099342E+03	8.245996E-17	1.631389E-17
2.138953E+03	7.983082E-17	1.579351E-17
2.178563E+03	7.836127E-17	1.550252E-17
2.218173E+03	7.789458E-17	1.540993E-17
2.257783E+03	7.792950E-17	1.541656E-17
2.297394E+03	7.791150E-17	1.541269E-17
2.337004E+03	7.745622E-17	1.532231E-17
2.376614E+03	7.635762E-17	1.510466E-17
2.416224E+03	7.457001E-17	1.475069E-17
2.455835E+03	7.213066E-17	1.426781E-17
2.495445E+03	6.913584E-17	1.367507E-17
2.535055E+03	6.569207E-17	1.299353E-17
2.574665E+03	6.191405E-17	1.224590E-17
2.614276E+03	5.790304E-17	1.145222E-17
2.653886E+03	5.375229E-17	1.063093E-17
2.693496E+03	4.954574E-17	9.798638E-18
2.733106E+03	4.535300E-17	8.969122E-18
2.772716E+03	4.123601E-17	8.154630E-18
2.812327E+03	3.724739E-17	7.365569E-18
2.851937E+03	3.343359E-17	6.611128E-18
2.891547E+03	2.983468E-17	5.899229E-18
2.931157E+03	2.648221E-17	5.236105E-18
2.970768E+03	2.339925E-17	4.626319E-18
2.980670E+03	2.267234E-17	4.482544E-18
2.990573E+03	2.196278E-17	4.342205E-18
3.000475E+03	2.127150E-17	4.205481E-18
3.010378E+03	2.059741E-17	4.072158E-18
3.020280E+03	1.994129E-17	3.942392E-18
3.030183E+03	1.930298E-17	3.816148E-18
3.040086E+03	1.868287E-17	3.693506E-18
3.049988E+03	1.808067E-17	3.574407E-18
3.059891E+03	1.749790E-17	3.459152E-18
3.069793E+03	1.693318E-17	3.347469E-18
3.079696E+03	1.638662E-17	3.239376E-18
3.089598E+03	1.585764E-17	3.134762E-18
3.099501E+03	1.534541E-17	3.033462E-18
3.109403E+03	1.485004E-17	2.935498E-18
3.119306E+03	1.437079E-17	2.840720E-18
3.129209E+03	1.390749E-17	2.749099E-18
3.139111E+03	1.345971E-17	2.660547E-18
3.149014E+03	1.302706E-17	2.574989E-18
3.158916E+03	1.260940E-17	2.492394E-18
3.168819E+03	1.220631E-17	2.412684E-18
3.178721E+03	1.181725E-17	2.335748E-18
3.188624E+03	1.144227E-17	2.261595E-18
3.198526E+03	1.108081E-17	2.190118E-18
3.208429E+03	1.073271E-17	2.121284E-18
3.218332E+03	1.039765E-17	2.055028E-18
3.228234E+03	1.007510E-17	1.991247E-18
3.238137E+03	9.765084E-18	1.929943E-18
3.248039E+03	9.466943E-18	1.870989E-18
3.257942E+03	9.180663E-18	1.814381E-18
3.267844E+03	8.905900E-18	1.760050E-18
3.277747E+03	8.642080E-18	1.707883E-18
3.287650E+03	8.389144E-18	1.657869E-18
3.297552E+03	8.146768E-18	1.609943E-18
3.307455E+03	7.914526E-18	1.564021E-18
3.317357E+03	7.692123E-18	1.520044E-18
3.327260E+03	7.479243E-18	1.477951E-18
3.337162E+03	7.275610E-18	1.437686E-18
3.347065E+03	7.080926E-18	1.399191E-18
3.356967E+03	6.894910E-18	1.362409E-18
3.366870E+03	6.717193E-18	1.327269E-18
3.376773E+03	6.547426E-18	1.293700E-18
3.386675E+03	6.385520E-18	1.261685E-18
3.396578E+03	6.230977E-18	1.231127E-18
3.406480E+03	6.083642E-18	1.201993E-18
3.416383E+03	5.943205E-18	1.174223E-18
3.426285E+03	5.809445E-18	1.147773E-18
3.436188E+03	5.682009E-18	1.122574E-18
3.446090E+03	5.560636E-18	1.098573E-18
3.455993E+03	5.445138E-18	1.075733E-18
3.465896E+03	5.335214E-18	1.053995E-18
3.475798E+03	5.230696E-18	1.033326E-18
3.485701E+03	5.131198E-18	1.013649E-18
3.495603E+03	5.036582E-18	9.949375E-19
3.505506E+03	4.946556E-18	9.771331E-19
3.515408E+03	4.860901E-18	9.601924E-19
3.525311E+03	4.779409E-18	9.440748E-19
3.535213E+03	4.701791E-18	9.287227E-19
3.545116E+03	4.627967E-18	9.141207E-19
3.555019E+03	4.557719E-18	9.002254E-19
3.564921E+03	4.490845E-18	8.869969E-19
3.574824E+03	4.427284E-18	8.744233E-19
3.584726E+03	4.366806E-18	8.624588E-19
3.594629E+03	4.309281E-18	8.510778E-19
3.604531E+03	4.254581E-18	8.402552E-19
3.614434E+03	4.202586E-18	8.299672E-19
3.624337E+03	4.153184E-18	8.201913E-19
3.634239E+03	4.106261E-18	8.109055E-19
3.644142E+03	4.061750E-18	8.020962E-19
3.654044E+03	4.019582E-18	7.937499E-19
3.663947E+03	3.979654E-18	7.858461E-19
3.673849E+03	3.942007E-18	7.783927E-19
3.683752E+03	3.906501E-18	7.713626E-19
3.693654E+03	3.873139E-18	7.647558E-19
3.703557E+03	3.841854E-18	7.585593E-19
3.713460E+03	3.812611E-18	7.527662E-19
3.723362E+03	3.785440E-18	7.473822E-19
3.733265E+03	3.760208E-18	7.423811E-19
3.743167E+03	3.736943E-18	7.377684E-19
3.753070E+03	3.715636E-18	7.335424E-19
3.762972E+03	3.696189E-18	7.296836E-19
3.772875E+03	3.678626E-18	7.261966E-19
3.782777E+03	3.662935E-18	7.230794E-19
3.792680E+03	3.649049E-18	7.203184E-19
3.802583E+03	3.636928E-18	7.179058E-19
3.812485E+03	3.626623E-18	7.158516E-19
3.822388E+03	3.618035E-18	7.141363E-19
3.832290E+03	3.611184E-18	7.127636E-19
3.842193E+03	3.606031E-18	7.117261E-19
3.852095E+03	3.602566E-18	7.110217E-19
3.861998E+03	3.600780E-18	7.106483E-19
3.871900E+03	3.600607E-18	7.105931E-19
3.881803E+03	3.602038E-18	7.108544E-19
3.891706E+03	3.605093E-18	7.114358E-19
3.901608E+03	3.609735E-18	7.123303E-19
3.911511E+03	3.615929E-18	7.135307E-19
3.921413E+03	3.623667E-18	7.150356E-19
3.931316E+03	3.632915E-18	7.168382E-19
3.941218E+03	3.643667E-18	7.189371E-19
3.951121E+03	3.655917E-18	7.213313E-19
3.961024E+03	3.669662E-18	7.240201E-19
3.970926E+03	3.684839E-18	7.269911E-19
3.980829E+03	3.701446E-18	7.302437E-19
3.990731E+03	3.719479E-18	7.337773E-19
4.000634E+03	3.738937E-18	7.375915E-19
4.010536E+03	3.759788E-18	7.416802E-19
4.020439E+03	3.782005E-18	7.460376E-19
4.030341E+03	3.805584E-18	7.506635E-19
4.040244E+03	3.830499E-18	7.555522E-19
4.050147E+03	3.856749E-18	7.607036E-19
4.060049E+03	3.884307E-18	7.661123E-19
4.069952E+03	3.913174E-18	7.717787E-19
4.079854E+03	3.943321E-18	7.776971E-19
4.089757E+03	3.974723E-18	7.838620E-19
4.099659E+03	4.007381E-18	7.902742E-19
4.109562E+03	4.041269E-18	7.969281E-19
4.119464E+03	4.076391E-18	8.038245E-19
4.129367E+03	4.112687E-18	8.109519E-19
4.139270E+03	4.150162E-18	8.183109E-19
4.149172E+03	4.188758E-18	8.258899E-19
4.159075E+03	4.228508E-18	8.336959E-19
4.168977E+03	4.269355E-18	8.417171E-19
4.178880E+03	4.311302E-18	8.499544E-19
4.188782E+03	4.354254E-18	8.583889E-19
4.198685E+03	4.398248E-18	8.670278E-19
4.208587E+03	4.443186E-18	8.758518E-19
4.218490E+03	4.489105E-18	8.848683E-19
4.228393E+03	4.535904E-18	8.940572E-19
4.238295E+03	4.583514E-18	9.034048E-19
4.248198E+03	4.631969E-18	9.129182E-19
4.258100E+03	4.681128E-18	9.225688E-19
4.268003E+03	4.731022E-18	9.323636E-19
4.277905E+03	4.781504E-18	9.422728E-19
4.287808E+03	4.832605E-18	9.523031E-19
4.297711E+03	4.884247E-18	9.624386E-19
4.307613E+03	4.936345E-18	9.726628E-19
4.317516E+03	4.988892E-18	9.829743E-19
4.327418E+03	5.041843E-18	9.933641E-19
4.337321E+03	5.095230E-18	1.003839E-18
4.347223E+03	5.148966E-18	1.014381E-18
4.357126E+03	5.203129E-18	1.025005E-18
4.367028E+03	5.257715E-18	1.035712E-18
4.376931E+03	5.312724E-18	1.046501E-18
4.386834E+03	5.368154E-18	1.057371E-18
4.396736E+03	5.424052E-18	1.068332E-18
4.406639E+03	5.480377E-18	1.079376E-18
4.416541E+03	5.537177E-18	1.090512E-18
4.426444E+03	5.594458E-18	1.101741E-18
4.436346E+03	5.652229E-18	1.113066E-18
4.446249E+03	5.710450E-18	1.124477E-18
4.456151E+03	5.769133E-18	1.135978E-18
4.466054E+03	5.828236E-18	1.147560E-18
4.475957E+03	5.887821E-18	1.159235E-18
4.485859E+03	5.947800E-18	1.170986E-18
4.495762E+03	6.008186E-18	1.182816E-18
4.505664E+03	6.068991E-18	1.194726E-18
4.515567E+03	6.130127E-18	1.206700E-18
4.525469E+03	6.191662E-18	1.218751E-18
4.535372E+03	6.253506E-18	1.230861E-18
4.545274E+03	6.315676E-18	1.243034E-18
4.555177E+03	6.378081E-18	1.255251E-18
4.565080E+03	6.440797E-18	1.267527E-18
4.574982E+03	6.503791E-18	1.279856E-18
4.584885E+03	6.566974E-18	1.292220E-18
4.594787E+03	6.630368E-18	1.304625E-18
4.604690E+03	6.694004E-18	1.317074E-18
4.614592E+03	6.757851E-18	1.329564E-18
4.624495E+03	6.821824E-18	1.342076E-18
4.634398E+03	6.886077E-18	1.354641E-18
4.644300E+03	6.950652E-18	1.367268E-18
4.654203E+03	7.015468E-18	1.379940E-18
4.664105E+03	7.080573E-18	1.392667E-18
4.674008E+03	7.146014E-18	1.405458E-18
4.683910E+03	7.211652E-18	1.418286E-18
4.693813E+03	7.277537E-18	1.431160E-18
4.703715E+03	7.343592E-18	1.444065E-18
4.713618E+03	7.409871E-18	1.457012E-18
4.723521E+03	7.476365E-18	1.469999E-18
4.733423E+03	7.542997E-18	1.483011E-18
4.743326E+03	7.609826E-18	1.496060E-18
4.753228E+03	7.676775E-18	1.509129E-18
4.763131E+03	7.743906E-18	1.522232E-18
4.773033E+03	7.811139E-18	1.535353E-18
4.782936E+03	7.878467E-18	1.548491E-18
4.792838E+03	7.945877E-18	1.561642E-18
4.802741E+03	8.013440E-18	1.574820E-18
4.812644E+03	8.081068E-18	1.588009E-18
4.822546E+03	8.148753E-18	1.601206E-18
4.832449E+03	8.216406E-18	1.614395E-18
4.842351E+03	8.284168E-18	1.627603E-18
4.852254E+03	8.351943E-18	1.640811E-18
4.862156E+03	8.419713E-18	1.654015E-18
4.872059E+03	8.487383E-18	1.667196E-18
4.881961E+03	8.555015E-18	1.680368E-18
4.891864E+03	8.622495E-18	1.693507E-18
4.901767E+03	8.689807E-18	1.706611E-18
4.911669E+03	8.756997E-18	1.719688E-18
4.921572E+03	8.823960E-18	1.732717E-18
4.931474E+03	8.890646E-18	1.745690E-18
4.941377E+03	8.956944E-18	1.758583E-18
4.951279E+03	9.022899E-18	1.771406E-18
4.961182E+03	9.088461E-18	1.784149E-18
4.971085E+03	9.153509E-18	1.796789E-18
4.980987E+03	9.217986E-18	1.809314E-18
4.990890E+03	9.281833E-18	1.821712E-18
5.000792E+03	9.344930E-18	1.833960E-18
5.010695E+03	9.407282E-18	1.846059E-18
5.020597E+03	9.468855E-18	1.858003E-18
5.030500E+03	9.529398E-18	1.869741E-18
5.040402E+03	9.588927E-18	1.881278E-18
5.050305E+03	9.647397E-18	1.892604E-18
5.060208E+03	9.704631E-18	1.903685E-18
5.070110E+03	9.760578E-18	1.914510E-18
5.080013E+03	9.815147E-18	1.925063E-18
5.089915E+03	9.868287E-18	1.935332E-18
5.099818E+03	9.919819E-18	1.945283E-18
5.109720E+03	9.969764E-18	1.954920E-18
5.119623E+03	1.001785E-17	1.964189E-18
5.129525E+03	1.006410E-17	1.973098E-18
5.139428E+03	1.010834E-17	1.981607E-18
5.149331E+03	1.015047E-17	1.989703E-18
5.159233E+03	1.019044E-17	1.997370E-18
5.169136E+03	1.022813E-17	2.004591E-18
5.179038E+03	1.026330E-17	2.011312E-18
5.188941E+03	1.029603E-17	2.017554E-18
5.198843E+03	1.032615E-17	2.023284E-18
5.208746E+03	1.035360E-17	2.028486E-18
5.218648E+03	1.037817E-17	2.033124E-18
5.228551E+03	1.039981E-17	2.037184E-18
5.238454E+03	1.041845E-17	2.040656E-18
5.248356E+03	1.043403E-17	2.043524E-18
5.258259E+03	1.044648E-17	2.045779E-18
5.268161E+03	1.045567E-17	2.047395E-18
5.278064E+03	1.046177E-17	2.048403E-18
5.287966E+03	1.046454E-17	2.048758E-18
5.297869E+03	1.046397E-17	2.048457E-18
5.307772E+03	1.046027E-17	2.047542E-18
5.317674E+03	1.045325E-17	2.045975E-18
5.327577E+03	1.044312E-17	2.043800E-18
5.337479E+03	1.042982E-17	2.041004E-18
5.347382E+03	1.041352E-17	2.037620E-18
5.357284E+03	1.039417E-17	2.033638E-18
5.367187E+03	1.037206E-17	2.029115E-18
5.377089E+03	1.034716E-17	2.024046E-18
5.386992E+03	1.031970E-17	2.018476E-18
5.396895E+03	1.028956E-17	2.012382E-18
5.406797E+03	1.025699E-17	2.005811E-18
5.416700E+03	1.022202E-17	1.998771E-18
5.426602E+03	1.018469E-17	1.991270E-18
5.436505E+03	1.014525E-17	1.983357E-18
5.446407E+03	1.010367E-17	1.975026E-18
5.456310E+03	1.006003E-17	1.966291E-18
5.466212E+03	1.001448E-17	1.957185E-18
5.476115E+03	9.967017E-18	1.947705E-18
5.486018E+03	9.917930E-18	1.937908E-18
5.495920E+03	9.867096E-18	1.927771E-18
5.505823E+03	9.814922E-18	1.917372E-18
5.515725E+03	9.761488E-18	1.906728E-18
5.525628E+03	9.706884E-18	1.895857E-18
5.535530E+03	9.651297E-18	1.884795E-18
5.545433E+03	9.594916E-18	1.873578E-18
5.555335E+03	9.537813E-18	1.862221E-18
5.565238E+03	9.480356E-18	1.850797E-18
5.575141E+03	9.422523E-18	1.839300E-18
5.585043E+03	9.364663E-18	1.827799E-18
5.594946E+03	9.306739E-18	1.816287E-18
5.604848E+03	9.249077E-18	1.804827E-18
5.614751E+03	9.191817E-18	1.793447E-18
5.624653E+03	9.135002E-18	1.782155E-18
5.634556E+03	9.078839E-18	1.770991E-18
5.644459E+03	9.023433E-18	1.759977E-18
5.654361E+03	8.968993E-18	1.749151E-18
5.664264E+03	8.915610E-18	1.738533E-18
5.674166E+03	8.863285E-18	1.728123E-18
5.684069E+03	8.812282E-18	1.717971E-18
5.693971E+03	8.762678E-18	1.708093E-18
5.703874E+03	8.714449E-18	1.698484E-18
5.713776E+03	8.667754E-18	1.689175E-18
5.723679E+03	8.622742E-18	1.680195E-18
5.733582E+03	8.579472E-18	1.671555E-18
5.743484E+03	8.537898E-18	1.663246E-18
5.753387E+03	8.498152E-18	1.655294E-18
5.763289E+03	8.460377E-18	1.647727E-18
5.773192E+03	8.424607E-18	1.640551E-18
5.783094E+03	8.390788E-18	1.633755E-18
5.792997E+03	8.359036E-18	1.627361E-18
5.802899E+03	8.329387E-18	1.621378E-18
5.812802E+03	8.301948E-18	1.615824E-18
5.822705E+03	8.276756E-18	1.610708E-18
5.832607E+03	8.253722E-18	1.606012E-18
5.842510E+03	8.232972E-18	1.601760E-18
5.852412E+03	8.214417E-18	1.597935E-18
5.862315E+03	8.198342E-18	1.594592E-18
5.872217E+03	8.184481E-18	1.591680E-18
5.882120E+03	8.172928E-18	1.589215E-18
5.892022E+03	8.163775E-18	1.587216E-18
5.901925E+03	8.156927E-18	1.585664E-18
5.911828E+03	8.152375E-18	1.584558E-18
5.921730E+03	8.150202E-18	1.583913E-18
5.931633E+03	8.150301E-18	1.583709E-18
5.941535E+03	8.152747E-18	1.583958E-18
5.951438E+03	8.157331E-18	1.584622E-18
5.961340E+03	8.164217E-18	1.585731E-18
5.971243E+03	8.173188E-18	1.587244E-18
5.981146E+03	8.184402E-18	1.589190E-18
5.991048E+03	8.197539E-18	1.591508E-18
6.000951E+03	8.212752E-18	1.594226E-18
6.010853E+03	8.229907E-18	1.597319E-18
6.020756E+03	8.248956E-18	1.600777E-18
6.030658E+03	8.269667E-18	1.604555E-18
6.040561E+03	8.292178E-18	1.608680E-18
6.050463E+03	8.316141E-18	1.613084E-18
6.060366E+03	8.341708E-18	1.617796E-18
6.070269E+03	8.368508E-18	1.622744E-18
6.080171E+03	8.396491E-18	1.627919E-18
6.090074E+03	8.425486E-18	1.633286E-18
6.099976E+03	8.455428E-18	1.638834E-18
6.109879E+03	8.485928E-18	1.644487E-18
6.119781E+03	8.516912E-18	1.650231E-18
6.129684E+03	8.548193E-18	1.656028E-18
6.139586E+03	8.579694E-18	1.661865E-18
6.149489E+03	8.611317E-18	1.667722E-18
6.159392E+03	8.643221E-18	1.673630E-18
6.169294E+03	8.675643E-18	1.679635E-18
6.179197E+03	8.708644E-18	1.685748E-18
6.189099E+03	8.742389E-18	1.692001E-18
6.199002E+03	8.777043E-18	1.698427E-18
6.208904E+03	8.812690E-18	1.705042E-18
6.218807E+03	8.849505E-18	1.711878E-18
6.228709E+03	8.887595E-18	1.718957E-18
6.238612E+03	8.927045E-18	1.726295E-18
6.248515E+03	8.968078E-18	1.733935E-18
6.258417E+03	9.010686E-18	1.741876E-18
6.268320E+03	9.055112E-18	1.750163E-18
6.278222E+03	9.101232E-18	1.758773E-18
6.288125E+03	9.149187E-18	1.767733E-18
6.298027E+03	9.198970E-18	1.777041E-18
6.307930E+03	9.250740E-18	1.786728E-18
6.317833E+03	9.304372E-18	1.796770E-18
6.327735E+03	9.359886E-18	1.807170E-18
6.337638E+03	9.417173E-18	1.817907E-18
6.347540E+03	9.475970E-18	1.828929E-18
6.357443E+03	9.536153E-18	1.840213E-18
6.367345E+03	9.597707E-18	1.851756E-18
6.377248E+03	9.660664E-18	1.863563E-18
6.387150E+03	9.725009E-18	1.875632E-18
6.397053E+03	9.790917E-18	1.887997E-18
6.406956E+03	9.858531E-18	1.900683E-18
6.416858E+03	9.927883E-18	1.913699E-18
6.426761E+03	9.998842E-18	1.927017E-18
6.436663E+03	1.007174E-17	1.940702E-18
6.446566E+03	1.014659E-17	1.954756E-18
6.456468E+03	1.022329E-17	1.969159E-18
6.466371E+03	1.030199E-17	1.983942E-18
6.476273E+03	1.038277E-17	1.999115E-18
6.486176E+03	1.046546E-17	2.014650E-18
6.496079E+03	1.055011E-17	2.030553E-18
6.505981E+03	1.063708E-17	2.046894E-18
6.515884E+03	1.072589E-17	2.063582E-18
6.525786E+03	1.081693E-17	2.080690E-18
6.535689E+03	1.091024E-17	2.098224E-18
6.545591E+03	1.100546E-17	2.116120E-18
6.555494E+03	1.110303E-17	2.134455E-18
6.565396E+03	1.120258E-17	2.153163E-18
6.575299E+03	1.130453E-17	2.172323E-18
6.585202E+03	1.140853E-17	2.191867E-18
6.595104E+03	1.151481E-17	2.211837E-18
6.605007E+03	1.162338E-17	2.232240E-18
6.614909E+03	1.173410E-17	2.253044E-18
6.624812E+03	1.184698E-17	2.274250E-18
6.634714E+03	1.196225E-17	2.295906E-18
6.644617E+03	1.207974E-17	2.317977E-18
6.654520E+03	1.219947E-17	2.340466E-18
6.664422E+03	1.232147E-17	2.363378E-18
6.674325E+03	1.244577E-17	2.386720E-18
6.684227E+03	1.257238E-17	2.410492E-18
6.694130E+03	1.270133E-17	2.434701E-18
6.704032E+03	1.283243E-17	2.459310E-18
6.713935E+03	1.296591E-17	2.484362E-18
6.723837E+03	1.310180E-17	2.509863E-18
6.733740E+03	1.323990E-17	2.535773E-18
6.743643E+03	1.338044E-17	2.562138E-18
6.753545E+03	1.352321E-17	2.588917E-18
6.763448E+03	1.366824E-17	2.616112E-18
6.773350E+03	1.381553E-17	2.643727E-18
6.783253E+03	1.396509E-17	2.671761E-18
6.793155E+03	1.411719E-17	2.700266E-18
6.803058E+03	1.427133E-17	2.729147E-18
6.812960E+03	1.442778E-17	2.758454E-18
6.822863E+03	1.458654E-17	2.788188E-18
6.832766E+03	1.474736E-17	2.818298E-18
6.842668E+03	1.491050E-17	2.848838E-18
6.852571E+03	1.507599E-17	2.879808E-18
6.862473E+03	1.524353E-17	2.911154E-18
6.872376E+03	1.541312E-17	2.942876E-18
6.882278E+03	1.558505E-17	2.975027E-18
6.892181E+03	1.575903E-17	3.007551E-18
6.902083E+03	1.593504E-17	3.040446E-18
6.911986E+03	1.611309E-17	3.073712E-18
6.921889E+03	1.629315E-17	3.107345E-18
6.931791E+03	1.647491E-17	3.141282E-18
6.941694E+03	1.665898E-17	3.175641E-18
6.951596E+03	1.684471E-17	3.210299E-18
6.961499E+03	1.703240E-17	3.245311E-18
6.971401E+03	1.722170E-17	3.280612E-18
6.981304E+03	1.741259E-17	3.316196E-18
6.991207E+03	1.760539E-17	3.352123E-18
7.001109E+03	1.779971E-17	3.388322E-18
7.011012E+03	1.799519E-17	3.424719E-18
7.020914E+03	1.819249E-17	3.461445E-18
7.030817E+03	1.839123E-17	3.498424E-18
7.040719E+03	1.859101E-17	3.535580E-18
7.050622E+03	1.879216E-17	3.572977E-18
7.060524E+03	1.899425E-17	3.610532E-18
7.070427E+03	1.919763E-17	3.648310E-18
7.080330E+03	1.940187E-17	3.686231E-18
7.090232E+03	1.960732E-17	3.724361E-18
7.100135E+03	1.981312E-17	3.762538E-18
7.110037E+03	2.001961E-17	3.800823E-18
7.119940E+03	2.022718E-17	3.839293E-18
7.129842E+03	2.043492E-17	3.877772E-18
7.139745E+03	2.064275E-17	3.916248E-18
7.149647E+03	2.085105E-17	3.954791E-18
7.159550E+03	2.105975E-17	3.993389E-18
7.169453E+03	2.126834E-17	4.031944E-18
7.179355E+03	2.147720E-17	4.070530E-18
7.189258E+03	2.168582E-17	4.109047E-18
7.199160E+03	2.189409E-17	4.147477E-18
7.209063E+03	2.210243E-17	4.185897E-18
7.218965E+03	2.231027E-17	4.224203E-18
7.228868E+03	2.251802E-17	4.262470E-18
7.238770E+03	2.272514E-17	4.300596E-18
7.248673E+03	2.293153E-17	4.338561E-18
7.258576E+03	2.313812E-17	4.376544E-18
7.268478E+03	2.334385E-17	4.414342E-18
7.278381E+03	2.354967E-17	4.452137E-18
7.288283E+03	2.375502E-17	4.489822E-18
7.298186E+03	2.396038E-17	4.527487E-18
7.308088E+03	2.416628E-17	4.565231E-18
7.317991E+03	2.437213E-17	4.602947E-18
7.327894E+03	2.457904E-17	4.640840E-18
7.337796E+03	2.478702E-17	4.678916E-18
7.347699E+03	2.499669E-17	4.717288E-18
7.357601E+03	2.520809E-17	4.755965E-18
7.367504E+03	2.542128E-17	4.794958E-18
7.377406E+03	2.563692E-17	4.834392E-18
7.387309E+03	2.585390E-17	4.874056E-18
7.397211E+03	2.607227E-17	4.913961E-18
7.407114E+03	2.629148E-17	4.954001E-18
7.417017E+03	2.651217E-17	4.994300E-18
7.426919E+03	2.673380E-17	5.034751E-18
7.436822E+03	2.695575E-17	5.075242E-18
7.446724E+03	2.717805E-17	5.115776E-18
7.456627E+03	2.740070E-17	5.156354E-18
7.466529E+03	2.762308E-17	5.196859E-18
7.476432E+03	2.784583E-17	5.237413E-18
7.486334E+03	2.806760E-17	5.277759E-18
7.496237E+03	2.828973E-17	5.318152E-18
7.506140E+03	2.851150E-17	5.358457E-18
7.516042E+03	2.873290E-17	5.398669E-18
7.525945E+03	2.895315E-17	5.438646E-18
7.535847E+03	2.917291E-17	5.478507E-18
7.545750E+03	2.939208E-17	5.518238E-18
7.555652E+03	2.961060E-17	5.557828E-18
7.565555E+03	2.982763E-17	5.597114E-18
7.575457E+03	3.004376E-17	5.636213E-18
7.585360E+03	3.025812E-17	5.674960E-18
7.595263E+03	3.047206E-17	5.713609E-18
7.605165E+03	3.068313E-17	5.751699E-18
7.615068E+03	3.089343E-17	5.789627E-18
7.624970E+03	3.110201E-17	5.827212E-18
7.634873E+03	3.130785E-17	5.864266E-18
7.644775E+03	3.151151E-17	5.900893E-18
7.654678E+03	3.171275E-17	5.937048E-18
7.664581E+03	3.191130E-17	5.972685E-18
7.674483E+03	3.210692E-17	6.007752E-18
7.684386E+03	3.230015E-17	6.042358E-18
