#wls	flux	fluxerr
1.584409E+03	7.571079E-17	3.524166E-17
1.624020E+03	7.889447E-17	3.671714E-17
1.663630E+03	8.187733E-17	3.809823E-17
1.703240E+03	8.462396E-17	3.936843E-17
1.742850E+03	8.707087E-17	4.049823E-17
1.782461E+03	8.914536E-17	4.145385E-17
1.822071E+03	9.073288E-17	4.218210E-17
1.861681E+03	9.171860E-17	4.262973E-17
1.901291E+03	9.197356E-17	4.273698E-17
1.940902E+03	9.138883E-17	4.245352E-17
1.980512E+03	8.991577E-17	4.175707E-17
2.020122E+03	8.767881E-17	4.070578E-17
2.059732E+03	8.503816E-17	3.946717E-17
2.099342E+03	8.257663E-17	3.831187E-17
2.138953E+03	8.093175E-17	3.753552E-17
2.178563E+03	8.046451E-17	3.730509E-17
2.218173E+03	8.106699E-17	3.756999E-17
2.257783E+03	8.226513E-17	3.810998E-17
2.297394E+03	8.347175E-17	3.865280E-17
2.337004E+03	8.424513E-17	3.899394E-17
2.376614E+03	8.432417E-17	3.901283E-17
2.416224E+03	8.360936E-17	3.866389E-17
2.455835E+03	8.211881E-17	3.795600E-17
2.495445E+03	7.991926E-17	3.692055E-17
2.535055E+03	7.709935E-17	3.559902E-17
2.574665E+03	7.376735E-17	3.404188E-17
2.614276E+03	7.001759E-17	3.229311E-17
2.653886E+03	6.594841E-17	3.039846E-17
2.693496E+03	6.164547E-17	2.839776E-17
2.733106E+03	5.719782E-17	2.633230E-17
2.772716E+03	5.268243E-17	2.423775E-17
2.812327E+03	4.817555E-17	2.214936E-17
2.851937E+03	4.374808E-17	2.009980E-17
2.891547E+03	3.946448E-17	1.811873E-17
2.931157E+03	3.538152E-17	1.623218E-17
2.970768E+03	3.154595E-17	1.446149E-17
2.980670E+03	3.062980E-17	1.403878E-17
2.990573E+03	2.973209E-17	1.362466E-17
3.000475E+03	2.885238E-17	1.321893E-17
3.010378E+03	2.799216E-17	1.282227E-17
3.020280E+03	2.715093E-17	1.243445E-17
3.030183E+03	2.632882E-17	1.205551E-17
3.040086E+03	2.552625E-17	1.168566E-17
3.049988E+03	2.474531E-17	1.132584E-17
3.059891E+03	2.398578E-17	1.097595E-17
3.069793E+03	2.324814E-17	1.063620E-17
3.079696E+03	2.253137E-17	1.030612E-17
3.089598E+03	2.183548E-17	9.985713E-18
3.099501E+03	2.116003E-17	9.674772E-18
3.109403E+03	2.050461E-17	9.373105E-18
3.119306E+03	1.986886E-17	9.080542E-18
3.129209E+03	1.925280E-17	8.797086E-18
3.139111E+03	1.865570E-17	8.522404E-18
3.149014E+03	1.807760E-17	8.256502E-18
3.158916E+03	1.751813E-17	7.999218E-18
3.168819E+03	1.697699E-17	7.750396E-18
3.178721E+03	1.645411E-17	7.510012E-18
3.188624E+03	1.594860E-17	7.277647E-18
3.198526E+03	1.546095E-17	7.053524E-18
3.208429E+03	1.499001E-17	6.837117E-18
3.218332E+03	1.453622E-17	6.628615E-18
3.228234E+03	1.409872E-17	6.427627E-18
3.238137E+03	1.367740E-17	6.234097E-18
3.248039E+03	1.327189E-17	6.047852E-18
3.257942E+03	1.288163E-17	5.868634E-18
3.267844E+03	1.250667E-17	5.696457E-18
3.277747E+03	1.214623E-17	5.530968E-18
3.287650E+03	1.179998E-17	5.372005E-18
3.297552E+03	1.146789E-17	5.219560E-18
3.307455E+03	1.114925E-17	5.073300E-18
3.317357E+03	1.084372E-17	4.933063E-18
3.327260E+03	1.055093E-17	4.798685E-18
3.337162E+03	1.027067E-17	4.670065E-18
3.347065E+03	1.000232E-17	4.546911E-18
3.356967E+03	9.745526E-18	4.429066E-18
3.366870E+03	9.500095E-18	4.316435E-18
3.376773E+03	9.265564E-18	4.208806E-18
3.386675E+03	9.041604E-18	4.106026E-18
3.396578E+03	8.827670E-18	4.007843E-18
3.406480E+03	8.623589E-18	3.914177E-18
3.416383E+03	8.429058E-18	3.824887E-18
3.426285E+03	8.243581E-18	3.739744E-18
3.436188E+03	8.066898E-18	3.658629E-18
3.446090E+03	7.898648E-18	3.581374E-18
3.455993E+03	7.738679E-18	3.507908E-18
3.465896E+03	7.586474E-18	3.437995E-18
3.475798E+03	7.441910E-18	3.371574E-18
3.485701E+03	7.304591E-18	3.308466E-18
3.495603E+03	7.174240E-18	3.248542E-18
3.505506E+03	7.050588E-18	3.191678E-18
3.515408E+03	6.933304E-18	3.137723E-18
3.525311E+03	6.822235E-18	3.086603E-18
3.535213E+03	6.717006E-18	3.038149E-18
3.545116E+03	6.617405E-18	2.992262E-18
3.555019E+03	6.523310E-18	2.948884E-18
3.564921E+03	6.434461E-18	2.907897E-18
3.574824E+03	6.350678E-18	2.869218E-18
3.584726E+03	6.271730E-18	2.832740E-18
3.594629E+03	6.197394E-18	2.798361E-18
3.604531E+03	6.127524E-18	2.766013E-18
3.614434E+03	6.061863E-18	2.735579E-18
3.624337E+03	6.000335E-18	2.707023E-18
3.634239E+03	5.942701E-18	2.680236E-18
3.644142E+03	5.888849E-18	2.655165E-18
3.654044E+03	5.838721E-18	2.631784E-18
3.663947E+03	5.792095E-18	2.609990E-18
3.673849E+03	5.748872E-18	2.589738E-18
3.683752E+03	5.709054E-18	2.571028E-18
3.693654E+03	5.672490E-18	2.553790E-18
3.703557E+03	5.639078E-18	2.537977E-18
3.713460E+03	5.608834E-18	2.523595E-18
3.723362E+03	5.581605E-18	2.510574E-18
3.733265E+03	5.557344E-18	2.498892E-18
3.743167E+03	5.536064E-18	2.488553E-18
3.753070E+03	5.517667E-18	2.479512E-18
3.762972E+03	5.502111E-18	2.471750E-18
3.772875E+03	5.489353E-18	2.465244E-18
3.782777E+03	5.479345E-18	2.459974E-18
3.792680E+03	5.472095E-18	2.455942E-18
3.802583E+03	5.467510E-18	2.453104E-18
3.812485E+03	5.465593E-18	2.451460E-18
3.822388E+03	5.466347E-18	2.451012E-18
3.832290E+03	5.469677E-18	2.451715E-18
3.842193E+03	5.475548E-18	2.453552E-18
3.852095E+03	5.484002E-18	2.456541E-18
3.861998E+03	5.494990E-18	2.460660E-18
3.871900E+03	5.508432E-18	2.465871E-18
3.881803E+03	5.524367E-18	2.472190E-18
3.891706E+03	5.542793E-18	2.479616E-18
3.901608E+03	5.563583E-18	2.488091E-18
3.911511E+03	5.586771E-18	2.497628E-18
3.921413E+03	5.612358E-18	2.508227E-18
3.931316E+03	5.640298E-18	2.519868E-18
3.941218E+03	5.670491E-18	2.532502E-18
3.951121E+03	5.703034E-18	2.546174E-18
3.961024E+03	5.737825E-18	2.560836E-18
3.970926E+03	5.774812E-18	2.576464E-18
3.980829E+03	5.814039E-18	2.593077E-18
3.990731E+03	5.855410E-18	2.610631E-18
4.000634E+03	5.898962E-18	2.629141E-18
4.010536E+03	5.944548E-18	2.648541E-18
4.020439E+03	5.992259E-18	2.668870E-18
4.030341E+03	6.041997E-18	2.690084E-18
4.040244E+03	6.093701E-18	2.712155E-18
4.050147E+03	6.147422E-18	2.735104E-18
4.060049E+03	6.203010E-18	2.758863E-18
4.069952E+03	6.260553E-18	2.783471E-18
4.079854E+03	6.319907E-18	2.808863E-18
4.089757E+03	6.381068E-18	2.835036E-18
4.099659E+03	6.444036E-18	2.861989E-18
4.109562E+03	6.508706E-18	2.889674E-18
4.119464E+03	6.575078E-18	2.918092E-18
4.129367E+03	6.643109E-18	2.947221E-18
4.139270E+03	6.712691E-18	2.977013E-18
4.149172E+03	6.783884E-18	3.007494E-18
4.159075E+03	6.856527E-18	3.038592E-18
4.168977E+03	6.930683E-18	3.070334E-18
4.178880E+03	7.006197E-18	3.102649E-18
4.188782E+03	7.083071E-18	3.135540E-18
4.198685E+03	7.161258E-18	3.168984E-18
4.208587E+03	7.240597E-18	3.202909E-18
4.218490E+03	7.321150E-18	3.237341E-18
4.228393E+03	7.402814E-18	3.272235E-18
4.238295E+03	7.485477E-18	3.307541E-18
4.248198E+03	7.569027E-18	3.343209E-18
4.258100E+03	7.653476E-18	3.379243E-18
4.268003E+03	7.738770E-18	3.415619E-18
4.277905E+03	7.824672E-18	3.452232E-18
4.287808E+03	7.911255E-18	3.489115E-18
4.297711E+03	7.998266E-18	3.526153E-18
4.307613E+03	8.085776E-18	3.563381E-18
4.317516E+03	8.173599E-18	3.600713E-18
4.327418E+03	8.261738E-18	3.638153E-18
4.337321E+03	8.350206E-18	3.675706E-18
4.347223E+03	8.439000E-18	3.713369E-18
4.357126E+03	8.528139E-18	3.751151E-18
4.367028E+03	8.617686E-18	3.789080E-18
4.376931E+03	8.707729E-18	3.827193E-18
4.386834E+03	8.798281E-18	3.865497E-18
4.396736E+03	8.889421E-18	3.904026E-18
4.406639E+03	8.981101E-18	3.942759E-18
4.416541E+03	9.073487E-18	3.981767E-18
4.426444E+03	9.166532E-18	4.021031E-18
4.436346E+03	9.260260E-18	4.060559E-18
4.446249E+03	9.354700E-18	4.100365E-18
4.456151E+03	9.449880E-18	4.140461E-18
4.466054E+03	9.545845E-18	4.180865E-18
4.475957E+03	9.642618E-18	4.221587E-18
4.485859E+03	9.740082E-18	4.262575E-18
4.495762E+03	9.838433E-18	4.303916E-18
4.505664E+03	9.937546E-18	4.345552E-18
4.515567E+03	1.003746E-17	4.387503E-18
4.525469E+03	1.013814E-17	4.429749E-18
4.535372E+03	1.023972E-17	4.472347E-18
4.545274E+03	1.034214E-17	4.515278E-18
4.555177E+03	1.044529E-17	4.558488E-18
4.565080E+03	1.054940E-17	4.602073E-18
4.574982E+03	1.065434E-17	4.645981E-18
4.584885E+03	1.076007E-17	4.690193E-18
4.594787E+03	1.086674E-17	4.734774E-18
4.604690E+03	1.097442E-17	4.779757E-18
4.614592E+03	1.108290E-17	4.825039E-18
4.624495E+03	1.119243E-17	4.870740E-18
4.634398E+03	1.130300E-17	4.916847E-18
4.644300E+03	1.141459E-17	4.963357E-18
4.654203E+03	1.152730E-17	5.010304E-18
4.664105E+03	1.164110E-17	5.057683E-18
4.674008E+03	1.175611E-17	5.105540E-18
4.683910E+03	1.187210E-17	5.153778E-18
4.693813E+03	1.198919E-17	5.202444E-18
4.703715E+03	1.210749E-17	5.251587E-18
4.713618E+03	1.222666E-17	5.301060E-18
4.723521E+03	1.234695E-17	5.350965E-18
4.733423E+03	1.246823E-17	5.401253E-18
4.743326E+03	1.259041E-17	5.451877E-18
4.753228E+03	1.271371E-17	5.502939E-18
4.763131E+03	1.283780E-17	5.554290E-18
4.773033E+03	1.296304E-17	5.606083E-18
4.782936E+03	1.308907E-17	5.658166E-18
4.792838E+03	1.321614E-17	5.710643E-18
4.802741E+03	1.334400E-17	5.763407E-18
4.812644E+03	1.347289E-17	5.816565E-18
4.822546E+03	1.360257E-17	5.870004E-18
4.832449E+03	1.373315E-17	5.923776E-18
4.842351E+03	1.386463E-17	5.977878E-18
4.852254E+03	1.399686E-17	6.032244E-18
4.862156E+03	1.412982E-17	6.086866E-18
4.872059E+03	1.426348E-17	6.141735E-18
4.881961E+03	1.439797E-17	6.196896E-18
4.891864E+03	1.453296E-17	6.252216E-18
4.901767E+03	1.466871E-17	6.307800E-18
4.911669E+03	1.480489E-17	6.363504E-18
4.921572E+03	1.494158E-17	6.419367E-18
4.931474E+03	1.507857E-17	6.475299E-18
4.941377E+03	1.521580E-17	6.531267E-18
4.951279E+03	1.535318E-17	6.587236E-18
4.961182E+03	1.549077E-17	6.643229E-18
4.971085E+03	1.562816E-17	6.699074E-18
4.980987E+03	1.576537E-17	6.754779E-18
4.990890E+03	1.590214E-17	6.810226E-18
5.000792E+03	1.603846E-17	6.865417E-18
5.010695E+03	1.617402E-17	6.920215E-18
5.020597E+03	1.630848E-17	6.974478E-18
5.030500E+03	1.644181E-17	7.028190E-18
5.040402E+03	1.657381E-17	7.081268E-18
5.050305E+03	1.670408E-17	7.133545E-18
5.060208E+03	1.683224E-17	7.184852E-18
5.070110E+03	1.695836E-17	7.235224E-18
5.080013E+03	1.708185E-17	7.284410E-18
5.089915E+03	1.720243E-17	7.332294E-18
5.099818E+03	1.731982E-17	7.378754E-18
5.109720E+03	1.743372E-17	7.423663E-18
5.119623E+03	1.754365E-17	7.466824E-18
5.129525E+03	1.764947E-17	7.508176E-18
5.139428E+03	1.775050E-17	7.547437E-18
5.149331E+03	1.784661E-17	7.584547E-18
5.159233E+03	1.793710E-17	7.619212E-18
5.169136E+03	1.802199E-17	7.651449E-18
5.179038E+03	1.810059E-17	7.680965E-18
5.188941E+03	1.817275E-17	7.707700E-18
5.198843E+03	1.823777E-17	7.731365E-18
5.208746E+03	1.829552E-17	7.751906E-18
5.218648E+03	1.834569E-17	7.769195E-18
5.228551E+03	1.838762E-17	7.782958E-18
5.238454E+03	1.842102E-17	7.793083E-18
5.248356E+03	1.844584E-17	7.799547E-18
5.258259E+03	1.846168E-17	7.802186E-18
5.268161E+03	1.846815E-17	7.800848E-18
5.278064E+03	1.846511E-17	7.795476E-18
5.287966E+03	1.845247E-17	7.786037E-18
5.297869E+03	1.843016E-17	7.772515E-18
5.307772E+03	1.839804E-17	7.754845E-18
5.317674E+03	1.835634E-17	7.733141E-18
5.327577E+03	1.830502E-17	7.707389E-18
5.337479E+03	1.824449E-17	7.677765E-18
5.347382E+03	1.817483E-17	7.644315E-18
5.357284E+03	1.809676E-17	7.607348E-18
5.367187E+03	1.801091E-17	7.567127E-18
5.377089E+03	1.791757E-17	7.523791E-18
5.386992E+03	1.781787E-17	7.477808E-18
5.396895E+03	1.771243E-17	7.429448E-18
5.406797E+03	1.760124E-17	7.378711E-18
5.416700E+03	1.748558E-17	7.326138E-18
5.426602E+03	1.736591E-17	7.271923E-18
5.436505E+03	1.724271E-17	7.216273E-18
5.446407E+03	1.711671E-17	7.159495E-18
5.456310E+03	1.698847E-17	7.101823E-18
5.466212E+03	1.685857E-17	7.043506E-18
5.476115E+03	1.672798E-17	6.984944E-18
5.486018E+03	1.659727E-17	6.926382E-18
5.495920E+03	1.646755E-17	6.868283E-18
5.505823E+03	1.633974E-17	6.811024E-18
5.515725E+03	1.621453E-17	6.754898E-18
5.525628E+03	1.609295E-17	6.700327E-18
5.535530E+03	1.597577E-17	6.647634E-18
5.545433E+03	1.586375E-17	6.597129E-18
5.555335E+03	1.575773E-17	6.549160E-18
5.565238E+03	1.565834E-17	6.503982E-18
5.575141E+03	1.556614E-17	6.461822E-18
5.585043E+03	1.548178E-17	6.422949E-18
5.594946E+03	1.540569E-17	6.387532E-18
5.604848E+03	1.533841E-17	6.355785E-18
5.614751E+03	1.528021E-17	6.327822E-18
5.624653E+03	1.523134E-17	6.303739E-18
5.634556E+03	1.519215E-17	6.283667E-18
5.644459E+03	1.516277E-17	6.267655E-18
5.654361E+03	1.514328E-17	6.255731E-18
5.664264E+03	1.513389E-17	6.247972E-18
5.674166E+03	1.513461E-17	6.244376E-18
5.684069E+03	1.514558E-17	6.244993E-18
5.693971E+03	1.516662E-17	6.249741E-18
5.703874E+03	1.519800E-17	6.258718E-18
5.713776E+03	1.523949E-17	6.271832E-18
5.723679E+03	1.529104E-17	6.289044E-18
5.733582E+03	1.535292E-17	6.310461E-18
5.743484E+03	1.542473E-17	6.335914E-18
5.753387E+03	1.550677E-17	6.365510E-18
5.763289E+03	1.559897E-17	6.399219E-18
5.773192E+03	1.570131E-17	6.437023E-18
5.783094E+03	1.581359E-17	6.478828E-18
5.792997E+03	1.593611E-17	6.524755E-18
5.802899E+03	1.606869E-17	6.574717E-18
5.812802E+03	1.621149E-17	6.628773E-18
5.822705E+03	1.636449E-17	6.686905E-18
5.832607E+03	1.652749E-17	6.749025E-18
5.842510E+03	1.670066E-17	6.815192E-18
5.852412E+03	1.688415E-17	6.885458E-18
5.862315E+03	1.707755E-17	6.959646E-18
5.872217E+03	1.728100E-17	7.037808E-18
5.882120E+03	1.749443E-17	7.119905E-18
5.892022E+03	1.771795E-17	7.205973E-18
5.901925E+03	1.795107E-17	7.295807E-18
5.911828E+03	1.819407E-17	7.389506E-18
5.921730E+03	1.844639E-17	7.486840E-18
5.931633E+03	1.870807E-17	7.587812E-18
5.941535E+03	1.897889E-17	7.692328E-18
5.951438E+03	1.925842E-17	7.800206E-18
5.961340E+03	1.954660E-17	7.911415E-18
5.971243E+03	1.984271E-17	8.025649E-18
5.981146E+03	2.014686E-17	8.142952E-18
5.991048E+03	2.045800E-17	8.262887E-18
6.000951E+03	2.077618E-17	8.385476E-18
6.010853E+03	2.110051E-17	8.510343E-18
6.020756E+03	2.143075E-17	8.637395E-18
6.030658E+03	2.176591E-17	8.766221E-18
6.040561E+03	2.210543E-17	8.896596E-18
6.050463E+03	2.244850E-17	9.028184E-18
6.060366E+03	2.279449E-17	9.160738E-18
6.070269E+03	2.314225E-17	9.293783E-18
6.080171E+03	2.349084E-17	9.426942E-18
6.090074E+03	2.383956E-17	9.559938E-18
6.099976E+03	2.418746E-17	9.692382E-18
6.109879E+03	2.453292E-17	9.823634E-18
6.119781E+03	2.487520E-17	9.953399E-18
6.129684E+03	2.521330E-17	1.008127E-17
6.139586E+03	2.554647E-17	1.020696E-17
6.149489E+03	2.587433E-17	1.033032E-17
6.159392E+03	2.619656E-17	1.045123E-17
6.169294E+03	2.651323E-17	1.056971E-17
6.179197E+03	2.682516E-17	1.068611E-17
6.189099E+03	2.713228E-17	1.080039E-17
6.199002E+03	2.743420E-17	1.091240E-17
6.208904E+03	2.773203E-17	1.102260E-17
6.218807E+03	2.802591E-17	1.113104E-17
6.228709E+03	2.831529E-17	1.123750E-17
6.238612E+03	2.860151E-17	1.134252E-17
6.248515E+03	2.888374E-17	1.144578E-17
6.258417E+03	2.916310E-17	1.154772E-17
6.268320E+03	2.943918E-17	1.164818E-17
6.278222E+03	2.971241E-17	1.174734E-17
6.288125E+03	2.998284E-17	1.184521E-17
6.298027E+03	3.025056E-17	1.194183E-17
6.307930E+03	3.051563E-17	1.203724E-17
6.317833E+03	3.077773E-17	1.213130E-17
6.327735E+03	3.103652E-17	1.222388E-17
6.337638E+03	3.129252E-17	1.231520E-17
6.347540E+03	3.154495E-17	1.240494E-17
6.357443E+03	3.179434E-17	1.249332E-17
6.367345E+03	3.204035E-17	1.258021E-17
6.377248E+03	3.228306E-17	1.266564E-17
6.387150E+03	3.252305E-17	1.274984E-17
6.397053E+03	3.276140E-17	1.283324E-17
6.406956E+03	3.299830E-17	1.291592E-17
6.416858E+03	3.323440E-17	1.299812E-17
6.426761E+03	3.347040E-17	1.308012E-17
6.436663E+03	3.370599E-17	1.316181E-17
6.446566E+03	3.394239E-17	1.324366E-17
6.456468E+03	3.417985E-17	1.332576E-17
6.466371E+03	3.441804E-17	1.340798E-17
6.476273E+03	3.465825E-17	1.349084E-17
6.486176E+03	3.490017E-17	1.357419E-17
6.496079E+03	3.514345E-17	1.365791E-17
6.505981E+03	3.538939E-17	1.374251E-17
6.515884E+03	3.563765E-17	1.382784E-17
6.525786E+03	3.588841E-17	1.391398E-17
6.535689E+03	3.614243E-17	1.400121E-17
6.545591E+03	3.639871E-17	1.408914E-17
6.555494E+03	3.665738E-17	1.417784E-17
6.565396E+03	3.691977E-17	1.426779E-17
6.575299E+03	3.718480E-17	1.435860E-17
6.585202E+03	3.745256E-17	1.445028E-17
6.595104E+03	3.772375E-17	1.454312E-17
6.605007E+03	3.799781E-17	1.463688E-17
6.614909E+03	3.827480E-17	1.473158E-17
6.624812E+03	3.855538E-17	1.482749E-17
6.634714E+03	3.883827E-17	1.492410E-17
6.644617E+03	3.912343E-17	1.502140E-17
6.654520E+03	3.941219E-17	1.511990E-17
6.664422E+03	3.970316E-17	1.521906E-17
6.674325E+03	3.999626E-17	1.531885E-17
6.684227E+03	4.029211E-17	1.541950E-17
6.694130E+03	4.058992E-17	1.552071E-17
6.704032E+03	4.088957E-17	1.562244E-17
6.713935E+03	4.119095E-17	1.572464E-17
6.723837E+03	4.149391E-17	1.582725E-17
6.733740E+03	4.179757E-17	1.592994E-17
6.743643E+03	4.210249E-17	1.603292E-17
6.753545E+03	4.240852E-17	1.613613E-17
6.763448E+03	4.271471E-17	1.623921E-17
6.773350E+03	4.302166E-17	1.634239E-17
6.783253E+03	4.332839E-17	1.644530E-17
6.793155E+03	4.363469E-17	1.654786E-17
6.803058E+03	4.394036E-17	1.665000E-17
6.812960E+03	4.424437E-17	1.675133E-17
6.822863E+03	4.454815E-17	1.685238E-17
6.832766E+03	4.485068E-17	1.695279E-17
6.842668E+03	4.515092E-17	1.705215E-17
6.852571E+03	4.544949E-17	1.715071E-17
6.862473E+03	4.574535E-17	1.724807E-17
6.872376E+03	4.603829E-17	1.734416E-17
6.882278E+03	4.632898E-17	1.743924E-17
6.892181E+03	4.661637E-17	1.753292E-17
6.902083E+03	4.690029E-17	1.762513E-17
6.911986E+03	4.718056E-17	1.771582E-17
6.921889E+03	4.745704E-17	1.780493E-17
6.931791E+03	4.772866E-17	1.789208E-17
6.941694E+03	4.799715E-17	1.797791E-17
6.951596E+03	4.826054E-17	1.806169E-17
6.961499E+03	4.851876E-17	1.814341E-17
6.971401E+03	4.877266E-17	1.822338E-17
6.981304E+03	4.902126E-17	1.830125E-17
6.991207E+03	4.926453E-17	1.837702E-17
7.001109E+03	4.950247E-17	1.845069E-17
7.011012E+03	4.973511E-17	1.852227E-17
7.020914E+03	4.996351E-17	1.859218E-17
7.030817E+03	5.018574E-17	1.865970E-17
7.040719E+03	5.040192E-17	1.872487E-17
7.050622E+03	5.061318E-17	1.878814E-17
7.060524E+03	5.081967E-17	1.884956E-17
7.070427E+03	5.102057E-17	1.890883E-17
7.080330E+03	5.121709E-17	1.896641E-17
7.090232E+03	5.140737E-17	1.902162E-17
7.100135E+03	5.159372E-17	1.907532E-17
7.110037E+03	5.177534E-17	1.912722E-17
7.119940E+03	5.195247E-17	1.917742E-17
7.129842E+03	5.212428E-17	1.922562E-17
7.139745E+03	5.229317E-17	1.927270E-17
7.149647E+03	5.245720E-17	1.931796E-17
7.159550E+03	5.261769E-17	1.936190E-17
7.169453E+03	5.277374E-17	1.940418E-17
7.179355E+03	5.292664E-17	1.944529E-17
7.189258E+03	5.307543E-17	1.948489E-17
7.199160E+03	5.322025E-17	1.952302E-17
7.209063E+03	5.336231E-17	1.956014E-17
7.218965E+03	5.350058E-17	1.959588E-17
7.228868E+03	5.363624E-17	1.963067E-17
7.238770E+03	5.376703E-17	1.966370E-17
7.248673E+03	5.389409E-17	1.969538E-17
7.258576E+03	5.401857E-17	1.972615E-17
7.268478E+03	5.413812E-17	1.975516E-17
7.278381E+03	5.425388E-17	1.978281E-17
7.288283E+03	5.436463E-17	1.980868E-17
7.298186E+03	5.447152E-17	1.983319E-17
7.308088E+03	5.457337E-17	1.985593E-17
7.317991E+03	5.467016E-17	1.987688E-17
7.327894E+03	5.476194E-17	1.989608E-17
7.337796E+03	5.484755E-17	1.991310E-17
7.347699E+03	5.492708E-17	1.992800E-17
7.357601E+03	5.500063E-17	1.994082E-17
7.367504E+03	5.506837E-17	1.995161E-17
7.377406E+03	5.513170E-17	1.996091E-17
7.387309E+03	5.518963E-17	1.996835E-17
7.397211E+03	5.524486E-17	1.997493E-17
7.407114E+03	5.529771E-17	1.998076E-17
7.417017E+03	5.534843E-17	1.998594E-17
7.426919E+03	5.539732E-17	1.999057E-17
7.436822E+03	5.544463E-17	1.999476E-17
7.446724E+03	5.549304E-17	1.999948E-17
7.456627E+03	5.554001E-17	2.000381E-17
7.466529E+03	5.558677E-17	2.000819E-17
7.476432E+03	5.563326E-17	2.001261E-17
7.486334E+03	5.568069E-17	2.001749E-17
7.496237E+03	5.572639E-17	2.002188E-17
7.506140E+03	5.577155E-17	2.002620E-17
7.516042E+03	5.581610E-17	2.003044E-17
7.525945E+03	5.586127E-17	2.003502E-17
7.535847E+03	5.590436E-17	2.003898E-17
7.545750E+03	5.594795E-17	2.004324E-17
7.555652E+03	5.599070E-17	2.004733E-17
7.565555E+03	5.603120E-17	2.005074E-17
7.575457E+03	5.607211E-17	2.005442E-17
7.585360E+03	5.611208E-17	2.005789E-17
7.595263E+03	5.615108E-17	2.006113E-17
7.605165E+03	5.618911E-17	2.006415E-17
7.615068E+03	5.622614E-17	2.006693E-17
7.624970E+03	5.626214E-17	2.006947E-17
7.634873E+03	5.629846E-17	2.007225E-17
7.644775E+03	5.633230E-17	2.007426E-17
7.654678E+03	5.636636E-17	2.007647E-17
7.664581E+03	5.639919E-17	2.007836E-17
7.674483E+03	5.643069E-17	2.007990E-17
7.684386E+03	5.646076E-17	2.008105E-17
