#wls	flux	fluxerr
1.584409E+03	1.652039E-16	5.421847E-17
1.624020E+03	1.715057E-16	5.628578E-17
1.663630E+03	1.771456E-16	5.813575E-17
1.703240E+03	1.820163E-16	5.973319E-17
1.742850E+03	1.859888E-16	6.103581E-17
1.782461E+03	1.888895E-16	6.198661E-17
1.822071E+03	1.904833E-16	6.250848E-17
1.861681E+03	1.905520E-16	6.252982E-17
1.901291E+03	1.888658E-16	6.197527E-17
1.940902E+03	1.852428E-16	6.078514E-17
1.980512E+03	1.797017E-16	5.896568E-17
2.020122E+03	1.725580E-16	5.662036E-17
2.059732E+03	1.645936E-16	5.400585E-17
2.099342E+03	1.570254E-16	5.152142E-17
2.138953E+03	1.510268E-16	4.955204E-17
2.178563E+03	1.471980E-16	4.829462E-17
2.218173E+03	1.452151E-16	4.764283E-17
2.257783E+03	1.440332E-16	4.725384E-17
2.297394E+03	1.426700E-16	4.680534E-17
2.337004E+03	1.404106E-16	4.606285E-17
2.376614E+03	1.368928E-16	4.490751E-17
2.416224E+03	1.320499E-16	4.331754E-17
2.455835E+03	1.260086E-16	4.133450E-17
2.495445E+03	1.189834E-16	3.902881E-17
2.535055E+03	1.112125E-16	3.647864E-17
2.574665E+03	1.029414E-16	3.376453E-17
2.614276E+03	9.439561E-17	3.096048E-17
2.653886E+03	8.577564E-17	2.813226E-17
2.693496E+03	7.725535E-17	2.533690E-17
2.733106E+03	6.898679E-17	2.262428E-17
2.772716E+03	6.108560E-17	2.003231E-17
2.812327E+03	5.364664E-17	1.759209E-17
2.851937E+03	4.674641E-17	1.532871E-17
2.891547E+03	4.043898E-17	1.325987E-17
2.931157E+03	3.475901E-17	1.139693E-17
2.970768E+03	2.971660E-17	9.743172E-18
2.980670E+03	2.855424E-17	9.361965E-18
2.990573E+03	2.743049E-17	8.993422E-18
3.000475E+03	2.634529E-17	8.637529E-18
3.010378E+03	2.529787E-17	8.294025E-18
3.020280E+03	2.428745E-17	7.962662E-18
3.030183E+03	2.331377E-17	7.643351E-18
3.040086E+03	2.237573E-17	7.335730E-18
3.049988E+03	2.147427E-17	7.040112E-18
3.059891E+03	2.060871E-17	6.756264E-18
3.069793E+03	1.977806E-17	6.483871E-18
3.079696E+03	1.898100E-17	6.222492E-18
3.089598E+03	1.821661E-17	5.971834E-18
3.099501E+03	1.748364E-17	5.731479E-18
3.109403E+03	1.678093E-17	5.501046E-18
3.119306E+03	1.610766E-17	5.280275E-18
3.129209E+03	1.546245E-17	5.068703E-18
3.139111E+03	1.484483E-17	4.866182E-18
3.149014E+03	1.425351E-17	4.672283E-18
3.158916E+03	1.368774E-17	4.486768E-18
3.168819E+03	1.314659E-17	4.309326E-18
3.178721E+03	1.262913E-17	4.139654E-18
3.188624E+03	1.213465E-17	3.977519E-18
3.198526E+03	1.166229E-17	3.822636E-18
3.208429E+03	1.121098E-17	3.674658E-18
3.218332E+03	1.078046E-17	3.533499E-18
3.228234E+03	1.036937E-17	3.398710E-18
3.238137E+03	9.977432E-18	3.270203E-18
3.248039E+03	9.603551E-18	3.147616E-18
3.257942E+03	9.247143E-18	3.030760E-18
3.267844E+03	8.907620E-18	2.919441E-18
3.277747E+03	8.584010E-18	2.813339E-18
3.287650E+03	8.275902E-18	2.712321E-18
3.297552E+03	7.982627E-18	2.616167E-18
3.307455E+03	7.703432E-18	2.524630E-18
3.317357E+03	7.437714E-18	2.437512E-18
3.327260E+03	7.184894E-18	2.354623E-18
3.337162E+03	6.944503E-18	2.275809E-18
3.347065E+03	6.715812E-18	2.200832E-18
3.356967E+03	6.498485E-18	2.129580E-18
3.366870E+03	6.291853E-18	2.061835E-18
3.376773E+03	6.095446E-18	1.997443E-18
3.386675E+03	5.908891E-18	1.936281E-18
3.396578E+03	5.731537E-18	1.878135E-18
3.406480E+03	5.563126E-18	1.822922E-18
3.416383E+03	5.403197E-18	1.770489E-18
3.426285E+03	5.251193E-18	1.720654E-18
3.436188E+03	5.106903E-18	1.673349E-18
3.446090E+03	4.969823E-18	1.628407E-18
3.455993E+03	4.839654E-18	1.585731E-18
3.465896E+03	4.716056E-18	1.545209E-18
3.475798E+03	4.598561E-18	1.506688E-18
3.485701E+03	4.486932E-18	1.470089E-18
3.495603E+03	4.380804E-18	1.435294E-18
3.505506E+03	4.279837E-18	1.402191E-18
3.515408E+03	4.183764E-18	1.370693E-18
3.525311E+03	4.092248E-18	1.340688E-18
3.535213E+03	4.005022E-18	1.312089E-18
3.545116E+03	3.921800E-18	1.284803E-18
3.555019E+03	3.842390E-18	1.258766E-18
3.564921E+03	3.766575E-18	1.233908E-18
3.574824E+03	3.694116E-18	1.210151E-18
3.584726E+03	3.624862E-18	1.187443E-18
3.594629E+03	3.558665E-18	1.165738E-18
3.604531E+03	3.495320E-18	1.144967E-18
3.614434E+03	3.434794E-18	1.125121E-18
3.624337E+03	3.376892E-18	1.106134E-18
3.634239E+03	3.321551E-18	1.087988E-18
3.644142E+03	3.268680E-18	1.070650E-18
3.654044E+03	3.218187E-18	1.054092E-18
3.663947E+03	3.170009E-18	1.038293E-18
3.673849E+03	3.124109E-18	1.023240E-18
3.683752E+03	3.080345E-18	1.008887E-18
3.693654E+03	3.038733E-18	9.952396E-19
3.703557E+03	2.999157E-18	9.822592E-19
3.713460E+03	2.961581E-18	9.699342E-19
3.723362E+03	2.925966E-18	9.582519E-19
3.733265E+03	2.892202E-18	9.471762E-19
3.743167E+03	2.860301E-18	9.367107E-19
3.753070E+03	2.830177E-18	9.268274E-19
3.762972E+03	2.801794E-18	9.175145E-19
3.772875E+03	2.775093E-18	9.087527E-19
3.782777E+03	2.750037E-18	9.005300E-19
3.792680E+03	2.726574E-18	8.928287E-19
3.802583E+03	2.704665E-18	8.856367E-19
3.812485E+03	2.684257E-18	8.789366E-19
3.822388E+03	2.665342E-18	8.727250E-19
3.832290E+03	2.647865E-18	8.669848E-19
3.842193E+03	2.631777E-18	8.616994E-19
3.852095E+03	2.617049E-18	8.568591E-19
3.861998E+03	2.603631E-18	8.524481E-19
3.871900E+03	2.591518E-18	8.484644E-19
3.881803E+03	2.580665E-18	8.448931E-19
3.891706E+03	2.571045E-18	8.417256E-19
3.901608E+03	2.562615E-18	8.389478E-19
3.911511E+03	2.555333E-18	8.365457E-19
3.921413E+03	2.549216E-18	8.345249E-19
3.931316E+03	2.544185E-18	8.328596E-19
3.941218E+03	2.540238E-18	8.315491E-19
3.951121E+03	2.537337E-18	8.305811E-19
3.961024E+03	2.535464E-18	8.299494E-19
3.970926E+03	2.534602E-18	8.296484E-19
3.980829E+03	2.534694E-18	8.296597E-19
3.990731E+03	2.535744E-18	8.299847E-19
4.000634E+03	2.537720E-18	8.306122E-19
4.010536E+03	2.540605E-18	8.315373E-19
4.020439E+03	2.544368E-18	8.327495E-19
4.030341E+03	2.548977E-18	8.342384E-19
4.040244E+03	2.554440E-18	8.360065E-19
4.050147E+03	2.560706E-18	8.380375E-19
4.060049E+03	2.567765E-18	8.403277E-19
4.069952E+03	2.575608E-18	8.428740E-19
4.079854E+03	2.584187E-18	8.456610E-19
4.089757E+03	2.593514E-18	8.486924E-19
4.099659E+03	2.603541E-18	8.519528E-19
4.109562E+03	2.614261E-18	8.554394E-19
4.119464E+03	2.625670E-18	8.591512E-19
4.129367E+03	2.637718E-18	8.630720E-19
4.139270E+03	2.650424E-18	8.672077E-19
4.149172E+03	2.663723E-18	8.715368E-19
4.159075E+03	2.677648E-18	8.760706E-19
4.168977E+03	2.692135E-18	8.807879E-19
4.178880E+03	2.707183E-18	8.856882E-19
4.188782E+03	2.722767E-18	8.907634E-19
4.198685E+03	2.738883E-18	8.960125E-19
4.208587E+03	2.755469E-18	9.014147E-19
4.218490E+03	2.772540E-18	9.069752E-19
4.228393E+03	2.790055E-18	9.126803E-19
4.238295E+03	2.807966E-18	9.185146E-19
4.248198E+03	2.826272E-18	9.244777E-19
4.258100E+03	2.844950E-18	9.305618E-19
4.268003E+03	2.863929E-18	9.367443E-19
4.277905E+03	2.883186E-18	9.430167E-19
4.287808E+03	2.902694E-18	9.493710E-19
4.297711E+03	2.922426E-18	9.557980E-19
4.307613E+03	2.942356E-18	9.622892E-19
4.317516E+03	2.962479E-18	9.688427E-19
4.327418E+03	2.982768E-18	9.754504E-19
4.337321E+03	3.003197E-18	9.821029E-19
4.347223E+03	3.023806E-18	9.888141E-19
4.357126E+03	3.044571E-18	9.955755E-19
4.367028E+03	3.065489E-18	1.002386E-18
4.376931E+03	3.086583E-18	1.009254E-18
4.386834E+03	3.107852E-18	1.016179E-18
4.396736E+03	3.129272E-18	1.023152E-18
4.406639E+03	3.150866E-18	1.030181E-18
4.416541E+03	3.172614E-18	1.037261E-18
4.426444E+03	3.194518E-18	1.044390E-18
4.436346E+03	3.216579E-18	1.051570E-18
4.446249E+03	3.238751E-18	1.058786E-18
4.456151E+03	3.261065E-18	1.066048E-18
4.466054E+03	3.283501E-18	1.073349E-18
4.475957E+03	3.306040E-18	1.080683E-18
4.485859E+03	3.328689E-18	1.088052E-18
4.495762E+03	3.351403E-18	1.095442E-18
4.505664E+03	3.374192E-18	1.102855E-18
4.515567E+03	3.397069E-18	1.110297E-18
4.525469E+03	3.420019E-18	1.117762E-18
4.535372E+03	3.442998E-18	1.125235E-18
4.545274E+03	3.466023E-18	1.132723E-18
4.555177E+03	3.489080E-18	1.140221E-18
4.565080E+03	3.512156E-18	1.147724E-18
4.574982E+03	3.535274E-18	1.155240E-18
4.584885E+03	3.558391E-18	1.162755E-18
4.594787E+03	3.581532E-18	1.170277E-18
4.604690E+03	3.604686E-18	1.177802E-18
4.614592E+03	3.627850E-18	1.185330E-18
4.624495E+03	3.651015E-18	1.192858E-18
4.634398E+03	3.674176E-18	1.200383E-18
4.644300E+03	3.697332E-18	1.207906E-18
4.654203E+03	3.720543E-18	1.215446E-18
4.664105E+03	3.743808E-18	1.223003E-18
4.674008E+03	3.767127E-18	1.230577E-18
4.683910E+03	3.790569E-18	1.238190E-18
4.693813E+03	3.814101E-18	1.245832E-18
4.703715E+03	3.837730E-18	1.253505E-18
4.713618E+03	3.861491E-18	1.261219E-18
4.723521E+03	3.885390E-18	1.268979E-18
4.733423E+03	3.909399E-18	1.276773E-18
4.743326E+03	3.933560E-18	1.284616E-18
4.753228E+03	3.957879E-18	1.292509E-18
4.763131E+03	3.982329E-18	1.300444E-18
4.773033E+03	4.006955E-18	1.308436E-18
4.782936E+03	4.031766E-18	1.316488E-18
4.792838E+03	4.056771E-18	1.324602E-18
4.802741E+03	4.081982E-18	1.332782E-18
4.812644E+03	4.107372E-18	1.341019E-18
4.822546E+03	4.133029E-18	1.349343E-18
4.832449E+03	4.158886E-18	1.357731E-18
4.842351E+03	4.184959E-18	1.366189E-18
4.852254E+03	4.211296E-18	1.374731E-18
4.862156E+03	4.237908E-18	1.383363E-18
4.872059E+03	4.264812E-18	1.392089E-18
4.881961E+03	4.291937E-18	1.400886E-18
4.891864E+03	4.319380E-18	1.409785E-18
4.901767E+03	4.347106E-18	1.418776E-18
4.911669E+03	4.375132E-18	1.427863E-18
4.921572E+03	4.403468E-18	1.437051E-18
4.931474E+03	4.432121E-18	1.446341E-18
4.941377E+03	4.461065E-18	1.455724E-18
4.951279E+03	4.490303E-18	1.465203E-18
4.961182E+03	4.519890E-18	1.474794E-18
4.971085E+03	4.549788E-18	1.484485E-18
4.980987E+03	4.579963E-18	1.494265E-18
4.990890E+03	4.610503E-18	1.504164E-18
5.000792E+03	4.641283E-18	1.514139E-18
5.010695E+03	4.672394E-18	1.524221E-18
5.020597E+03	4.703839E-18	1.534410E-18
5.030500E+03	4.735483E-18	1.544663E-18
5.040402E+03	4.767460E-18	1.555023E-18
5.050305E+03	4.799681E-18	1.565462E-18
5.060208E+03	4.832139E-18	1.575976E-18
5.070110E+03	4.864881E-18	1.586582E-18
5.080013E+03	4.897806E-18	1.597246E-18
5.089915E+03	4.930908E-18	1.607966E-18
5.099818E+03	4.964227E-18	1.618755E-18
5.109720E+03	4.997707E-18	1.629596E-18
5.119623E+03	5.031339E-18	1.640484E-18
5.129525E+03	5.065061E-18	1.651400E-18
5.139428E+03	5.098913E-18	1.662357E-18
5.149331E+03	5.132778E-18	1.673317E-18
5.159233E+03	5.166744E-18	1.684308E-18
5.169136E+03	5.200744E-18	1.695309E-18
5.179038E+03	5.234708E-18	1.706296E-18
5.188941E+03	5.268620E-18	1.717265E-18
5.198843E+03	5.302507E-18	1.728224E-18
5.208746E+03	5.336247E-18	1.739133E-18
5.218648E+03	5.369867E-18	1.750002E-18
5.228551E+03	5.403394E-18	1.760838E-18
5.238454E+03	5.436649E-18	1.771585E-18
5.248356E+03	5.469759E-18	1.782282E-18
5.258259E+03	5.502538E-18	1.792870E-18
5.268161E+03	5.535122E-18	1.803393E-18
5.278064E+03	5.567316E-18	1.813787E-18
5.287966E+03	5.599199E-18	1.824078E-18
5.297869E+03	5.630744E-18	1.834257E-18
5.307772E+03	5.661865E-18	1.844296E-18
5.317674E+03	5.692644E-18	1.854222E-18
5.327577E+03	5.722882E-18	1.863971E-18
5.337479E+03	5.752721E-18	1.873588E-18
5.347382E+03	5.782073E-18	1.883044E-18
5.357284E+03	5.810913E-18	1.892332E-18
5.367187E+03	5.839211E-18	1.901442E-18
5.377089E+03	5.866943E-18	1.910366E-18
5.386992E+03	5.894019E-18	1.919075E-18
5.396895E+03	5.920416E-18	1.927561E-18
5.406797E+03	5.946106E-18	1.935815E-18
5.416700E+03	5.971061E-18	1.943829E-18
5.426602E+03	5.995200E-18	1.951575E-18
5.436505E+03	6.018432E-18	1.959024E-18
5.446407E+03	6.040796E-18	1.966190E-18
5.456310E+03	6.062203E-18	1.973042E-18
5.466212E+03	6.082567E-18	1.979553E-18
5.476115E+03	6.101802E-18	1.985696E-18
5.486018E+03	6.119945E-18	1.991481E-18
5.495920E+03	6.136846E-18	1.996861E-18
5.505823E+03	6.152544E-18	2.001849E-18
5.515725E+03	6.166893E-18	2.006396E-18
5.525628E+03	6.179866E-18	2.010494E-18
5.535530E+03	6.191506E-18	2.014158E-18
5.545433E+03	6.201668E-18	2.017339E-18
5.555335E+03	6.210393E-18	2.020052E-18
5.565238E+03	6.217666E-18	2.022292E-18
5.575141E+03	6.223407E-18	2.024032E-18
5.585043E+03	6.227603E-18	2.025269E-18
5.594946E+03	6.230307E-18	2.026020E-18
5.604848E+03	6.231510E-18	2.026281E-18
5.614751E+03	6.231143E-18	2.026032E-18
5.624653E+03	6.229264E-18	2.025290E-18
5.634556E+03	6.225940E-18	2.024078E-18
5.644459E+03	6.221044E-18	2.022354E-18
5.654361E+03	6.214645E-18	2.020141E-18
5.664264E+03	6.206819E-18	2.017464E-18
5.674166E+03	6.197576E-18	2.014326E-18
5.684069E+03	6.186931E-18	2.010732E-18
5.693971E+03	6.174905E-18	2.006689E-18
5.703874E+03	6.161518E-18	2.002203E-18
5.713776E+03	6.146859E-18	1.997303E-18
5.723679E+03	6.130891E-18	1.991979E-18
5.733582E+03	6.113775E-18	1.986281E-18
5.743484E+03	6.095482E-18	1.980201E-18
5.753387E+03	6.076046E-18	1.973750E-18
5.763289E+03	6.055638E-18	1.966983E-18
5.773192E+03	6.034169E-18	1.959872E-18
5.783094E+03	6.011751E-18	1.952453E-18
5.792997E+03	5.988498E-18	1.944762E-18
5.802899E+03	5.964394E-18	1.936796E-18
5.812802E+03	5.939556E-18	1.928592E-18
5.822705E+03	5.913975E-18	1.920147E-18
5.832607E+03	5.887837E-18	1.911522E-18
5.842510E+03	5.861138E-18	1.902715E-18
5.852412E+03	5.833934E-18	1.893745E-18
5.862315E+03	5.806353E-18	1.884652E-18
5.872217E+03	5.778389E-18	1.875436E-18
5.882120E+03	5.750169E-18	1.866138E-18
5.892022E+03	5.721690E-18	1.856756E-18
5.901925E+03	5.693077E-18	1.847332E-18
5.911828E+03	5.664391E-18	1.837884E-18
5.921730E+03	5.635690E-18	1.828432E-18
5.931633E+03	5.606966E-18	1.818973E-18
5.941535E+03	5.578341E-18	1.809548E-18
5.951438E+03	5.549869E-18	1.800172E-18
5.961340E+03	5.521538E-18	1.790843E-18
5.971243E+03	5.493462E-18	1.781597E-18
5.981146E+03	5.465625E-18	1.772430E-18
5.991048E+03	5.438010E-18	1.763335E-18
6.000951E+03	5.410789E-18	1.754369E-18
6.010853E+03	5.383876E-18	1.745503E-18
6.020756E+03	5.357373E-18	1.736771E-18
6.030658E+03	5.331188E-18	1.728143E-18
6.040561E+03	5.305421E-18	1.719651E-18
6.050463E+03	5.280039E-18	1.711284E-18
6.060366E+03	5.255071E-18	1.703052E-18
6.070269E+03	5.230546E-18	1.694965E-18
6.080171E+03	5.206423E-18	1.687008E-18
6.090074E+03	5.182726E-18	1.679189E-18
6.099976E+03	5.159474E-18	1.671516E-18
6.109879E+03	5.136686E-18	1.663993E-18
6.119781E+03	5.114379E-18	1.656627E-18
6.129684E+03	5.092501E-18	1.649400E-18
6.139586E+03	5.071128E-18	1.642338E-18
6.149489E+03	5.050270E-18	1.635442E-18
6.159392E+03	5.029935E-18	1.628717E-18
6.169294E+03	5.010195E-18	1.622184E-18
6.179197E+03	4.991121E-18	1.615868E-18
6.189099E+03	4.972781E-18	1.609789E-18
6.199002E+03	4.955242E-18	1.603971E-18
6.208904E+03	4.938578E-18	1.598435E-18
6.218807E+03	4.922917E-18	1.593225E-18
6.228709E+03	4.908197E-18	1.588319E-18
6.238612E+03	4.894684E-18	1.583805E-18
6.248515E+03	4.882317E-18	1.579661E-18
6.258417E+03	4.871227E-18	1.575930E-18
6.268320E+03	4.861486E-18	1.572636E-18
6.278222E+03	4.853166E-18	1.569801E-18
6.288125E+03	4.846271E-18	1.567427E-18
6.298027E+03	4.840874E-18	1.565537E-18
6.307930E+03	4.837048E-18	1.564155E-18
6.317833E+03	4.834801E-18	1.563283E-18
6.327735E+03	4.834140E-18	1.562923E-18
6.337638E+03	4.835147E-18	1.563102E-18
6.347540E+03	4.837683E-18	1.563774E-18
6.357443E+03	4.841763E-18	1.564944E-18
6.367345E+03	4.847318E-18	1.566591E-18
6.377248E+03	4.854213E-18	1.568669E-18
6.387150E+03	4.862529E-18	1.571206E-18
6.397053E+03	4.872121E-18	1.574153E-18
6.406956E+03	4.883071E-18	1.577538E-18
6.416858E+03	4.895382E-18	1.581362E-18
6.426761E+03	4.908987E-18	1.585602E-18
6.436663E+03	4.923892E-18	1.590260E-18
6.446566E+03	4.940102E-18	1.595338E-18
6.456468E+03	4.957623E-18	1.600837E-18
6.466371E+03	4.976459E-18	1.606760E-18
6.476273E+03	4.996699E-18	1.613134E-18
6.486176E+03	5.018270E-18	1.619935E-18
6.496079E+03	5.041100E-18	1.627141E-18
6.505981E+03	5.065357E-18	1.634805E-18
6.515884E+03	5.090887E-18	1.642878E-18
6.525786E+03	5.117778E-18	1.651388E-18
6.535689E+03	5.146042E-18	1.660338E-18
6.545591E+03	5.175685E-18	1.669730E-18
6.555494E+03	5.206718E-18	1.679568E-18
6.565396E+03	5.239066E-18	1.689828E-18
6.575299E+03	5.272822E-18	1.700539E-18
6.585202E+03	5.307909E-18	1.711676E-18
6.595104E+03	5.344426E-18	1.723271E-18
6.605007E+03	5.382294E-18	1.735298E-18
6.614909E+03	5.421520E-18	1.747760E-18
6.624812E+03	5.462209E-18	1.760691E-18
6.634714E+03	5.504375E-18	1.774093E-18
6.644617E+03	5.547837E-18	1.787910E-18
6.654520E+03	5.592799E-18	1.802207E-18
6.664422E+03	5.639078E-18	1.816924E-18
6.674325E+03	5.686880E-18	1.832127E-18
6.684227E+03	5.736119E-18	1.847790E-18
6.694130E+03	5.786709E-18	1.863884E-18
6.704032E+03	5.838861E-18	1.880476E-18
6.713935E+03	5.892384E-18	1.897505E-18
6.723837E+03	5.947392E-18	1.915009E-18
6.733740E+03	6.003897E-18	1.932989E-18
6.743643E+03	6.061915E-18	1.951452E-18
6.753545E+03	6.121348E-18	1.970365E-18
6.763448E+03	6.182318E-18	1.989768E-18
6.773350E+03	6.244726E-18	2.009628E-18
6.783253E+03	6.308694E-18	2.029986E-18
6.793155E+03	6.374121E-18	2.050807E-18
6.803058E+03	6.441016E-18	2.072095E-18
6.812960E+03	6.509510E-18	2.093892E-18
6.822863E+03	6.579372E-18	2.116123E-18
6.832766E+03	6.650855E-18	2.138869E-18
6.842668E+03	6.723846E-18	2.162094E-18
6.852571E+03	6.798355E-18	2.185801E-18
6.862473E+03	6.874389E-18	2.209992E-18
6.872376E+03	6.951960E-18	2.234671E-18
6.882278E+03	7.030941E-18	2.259796E-18
6.892181E+03	7.111469E-18	2.285412E-18
6.902083E+03	7.193553E-18	2.311521E-18
6.911986E+03	7.277202E-18	2.338126E-18
6.921889E+03	7.362135E-18	2.365136E-18
6.931791E+03	7.448785E-18	2.392691E-18
6.941694E+03	7.536719E-18	2.420650E-18
6.951596E+03	7.626231E-18	2.449109E-18
6.961499E+03	7.717176E-18	2.478020E-18
6.971401E+03	7.809552E-18	2.507383E-18
6.981304E+03	7.903356E-18	2.537197E-18
6.991207E+03	7.998587E-18	2.567460E-18
7.001109E+03	8.095077E-18	2.598120E-18
7.011012E+03	8.192981E-18	2.629225E-18
7.020914E+03	8.292295E-18	2.660774E-18
7.030817E+03	8.392840E-18	2.692710E-18
7.040719E+03	8.494779E-18	2.725084E-18
7.050622E+03	8.597926E-18	2.757836E-18
7.060524E+03	8.702267E-18	2.790963E-18
7.070427E+03	8.807784E-18	2.824458E-18
7.080330E+03	8.914642E-18	2.858374E-18
7.090232E+03	9.022457E-18	2.892587E-18
7.100135E+03	9.131201E-18	2.927089E-18
7.110037E+03	9.241229E-18	2.961993E-18
7.119940E+03	9.352134E-18	2.997169E-18
7.129842E+03	9.463885E-18	3.032606E-18
7.139745E+03	9.576646E-18	3.068357E-18
7.149647E+03	9.690188E-18	3.104349E-18
7.159550E+03	9.804473E-18	3.140568E-18
7.169453E+03	9.919462E-18	3.177003E-18
7.179355E+03	1.003511E-17	3.213641E-18
7.189258E+03	1.015161E-17	3.250538E-18
7.199160E+03	1.026846E-17	3.287540E-18
7.209063E+03	1.038607E-17	3.324775E-18
7.218965E+03	1.050418E-17	3.362159E-18
7.228868E+03	1.062273E-17	3.399673E-18
7.238770E+03	1.074192E-17	3.437381E-18
7.248673E+03	1.086146E-17	3.475191E-18
7.258576E+03	1.098154E-17	3.513165E-18
7.268478E+03	1.110213E-17	3.551290E-18
7.278381E+03	1.122343E-17	3.589632E-18
7.288283E+03	1.134540E-17	3.628180E-18
7.298186E+03	1.146828E-17	3.667007E-18
7.308088E+03	1.159179E-17	3.706021E-18
7.317991E+03	1.171667E-17	3.745468E-18
7.327894E+03	1.184295E-17	3.785349E-18
7.337796E+03	1.197034E-17	3.825574E-18
7.347699E+03	1.209968E-17	3.866409E-18
7.357601E+03	1.223069E-17	3.907770E-18
7.367504E+03	1.236369E-17	3.949754E-18
7.377406E+03	1.249841E-17	3.992276E-18
7.387309E+03	1.263516E-17	4.035434E-18
7.397211E+03	1.277306E-17	4.078947E-18
7.407114E+03	1.291270E-17	4.123007E-18
7.417017E+03	1.305318E-17	4.167320E-18
7.426919E+03	1.319477E-17	4.211976E-18
7.436822E+03	1.333713E-17	4.256869E-18
7.446724E+03	1.347993E-17	4.301886E-18
7.456627E+03	1.362343E-17	4.347117E-18
7.466529E+03	1.376661E-17	4.392233E-18
7.476432E+03	1.391007E-17	4.437425E-18
7.486334E+03	1.405341E-17	4.482568E-18
7.496237E+03	1.419657E-17	4.527642E-18
7.506140E+03	1.433913E-17	4.572513E-18
7.516042E+03	1.448137E-17	4.617268E-18
7.525945E+03	1.462285E-17	4.661770E-18
7.535847E+03	1.476348E-17	4.705990E-18
7.545750E+03	1.490355E-17	4.750021E-18
7.555652E+03	1.504261E-17	4.793716E-18
7.565555E+03	1.518095E-17	4.837170E-18
7.575457E+03	1.531770E-17	4.880109E-18
7.585360E+03	1.545355E-17	4.922749E-18
7.595263E+03	1.558801E-17	4.964936E-18
7.605165E+03	1.572140E-17	5.006769E-18
7.615068E+03	1.585320E-17	5.048089E-18
7.624970E+03	1.598333E-17	5.088864E-18
7.634873E+03	1.611168E-17	5.129062E-18
7.644775E+03	1.623899E-17	5.168918E-18
7.654678E+03	1.636390E-17	5.208003E-18
7.664581E+03	1.648759E-17	5.246689E-18
7.674483E+03	1.660911E-17	5.284676E-18
7.684386E+03	1.672880E-17	5.322070E-18
