#wls	flux	fluxerr
1.584409E+03	8.727676E-17	1.423872E-17
1.624020E+03	9.106076E-17	1.485582E-17
1.663630E+03	9.458331E-17	1.543023E-17
1.703240E+03	9.778175E-17	1.595175E-17
1.742850E+03	1.005992E-16	1.641110E-17
1.782461E+03	1.029318E-16	1.679131E-17
1.822071E+03	1.046570E-16	1.707242E-17
1.861681E+03	1.056358E-16	1.723176E-17
1.901291E+03	1.057153E-16	1.724439E-17
1.940902E+03	1.047789E-16	1.709130E-17
1.980512E+03	1.027971E-16	1.676769E-17
2.020122E+03	9.992259E-17	1.629847E-17
2.059732E+03	9.657444E-17	1.575200E-17
2.099342E+03	9.344301E-17	1.524090E-17
2.138953E+03	9.125110E-17	1.488305E-17
2.178563E+03	9.041358E-17	1.474610E-17
2.218173E+03	9.079257E-17	1.480756E-17
2.257783E+03	9.182371E-17	1.497536E-17
2.297394E+03	9.287504E-17	1.514643E-17
2.337004E+03	9.345403E-17	1.524045E-17
2.376614E+03	9.326659E-17	1.520948E-17
2.416224E+03	9.219381E-17	1.503412E-17
2.455835E+03	9.023622E-17	1.471448E-17
2.495445E+03	8.746792E-17	1.426265E-17
2.535055E+03	8.398771E-17	1.369475E-17
2.574665E+03	7.991487E-17	1.303025E-17
2.614276E+03	7.536363E-17	1.228778E-17
2.653886E+03	7.044190E-17	1.148493E-17
2.693496E+03	6.526079E-17	1.063985E-17
2.733106E+03	5.992031E-17	9.768827E-18
2.772716E+03	5.451538E-17	8.887349E-18
2.812327E+03	4.913386E-17	8.009743E-18
2.851937E+03	4.385915E-17	7.149603E-18
2.891547E+03	3.877375E-17	6.320381E-18
2.931157E+03	3.395628E-17	5.534888E-18
2.970768E+03	2.946809E-17	4.803120E-18
2.980670E+03	2.840263E-17	4.629410E-18
2.990573E+03	2.736199E-17	4.459749E-18
3.000475E+03	2.634508E-17	4.293959E-18
3.010378E+03	2.535276E-17	4.132179E-18
3.020280E+03	2.438632E-17	3.974620E-18
3.030183E+03	2.344473E-17	3.821114E-18
3.040086E+03	2.252939E-17	3.671890E-18
3.049988E+03	2.164117E-17	3.527089E-18
3.059891E+03	2.078073E-17	3.386819E-18
3.069793E+03	1.994757E-17	3.250997E-18
3.079696E+03	1.914202E-17	3.119677E-18
3.089598E+03	1.836316E-17	2.992710E-18
3.099501E+03	1.761094E-17	2.870087E-18
3.109403E+03	1.688491E-17	2.751734E-18
3.119306E+03	1.618464E-17	2.637583E-18
3.129209E+03	1.551002E-17	2.527612E-18
3.139111E+03	1.486083E-17	2.421790E-18
3.149014E+03	1.423604E-17	2.319945E-18
3.158916E+03	1.363597E-17	2.222130E-18
3.168819E+03	1.305978E-17	2.128210E-18
3.178721E+03	1.250716E-17	2.038132E-18
3.188624E+03	1.197750E-17	1.951797E-18
3.198526E+03	1.147000E-17	1.869077E-18
3.208429E+03	1.098464E-17	1.789964E-18
3.218332E+03	1.052019E-17	1.714261E-18
3.228234E+03	1.007655E-17	1.641951E-18
3.238137E+03	9.653024E-18	1.572920E-18
3.248039E+03	9.248625E-18	1.507006E-18
3.257942E+03	8.863126E-18	1.444174E-18
3.267844E+03	8.495554E-18	1.384265E-18
3.277747E+03	8.145382E-18	1.327192E-18
3.287650E+03	7.811938E-18	1.272845E-18
3.297552E+03	7.494659E-18	1.221134E-18
3.307455E+03	7.192781E-18	1.171934E-18
3.317357E+03	6.905666E-18	1.125139E-18
3.327260E+03	6.632692E-18	1.080650E-18
3.337162E+03	6.373340E-18	1.038381E-18
3.347065E+03	6.126923E-18	9.982209E-19
3.356967E+03	5.892870E-18	9.600759E-19
3.366870E+03	5.670627E-18	9.238557E-19
3.376773E+03	5.459589E-18	8.894620E-19
3.386675E+03	5.259252E-18	8.568124E-19
3.396578E+03	5.069126E-18	8.258271E-19
3.406480E+03	4.888684E-18	7.964202E-19
3.416383E+03	4.717482E-18	7.685193E-19
3.426285E+03	4.555042E-18	7.420465E-19
3.436188E+03	4.400912E-18	7.169280E-19
3.446090E+03	4.254666E-18	6.930945E-19
3.455993E+03	4.115858E-18	6.704732E-19
3.465896E+03	3.984158E-18	6.490104E-19
3.475798E+03	3.859166E-18	6.286408E-19
3.485701E+03	3.740471E-18	6.092975E-19
3.495603E+03	3.627655E-18	5.909121E-19
3.505506E+03	3.520442E-18	5.734402E-19
3.515408E+03	3.418471E-18	5.568222E-19
3.525311E+03	3.321337E-18	5.409927E-19
3.535213E+03	3.228772E-18	5.259079E-19
3.545116E+03	3.140495E-18	5.115218E-19
3.555019E+03	3.056215E-18	4.977871E-19
3.564921E+03	2.975638E-18	4.846558E-19
3.574824E+03	2.898599E-18	4.721012E-19
3.584726E+03	2.824890E-18	4.600893E-19
3.594629E+03	2.754314E-18	4.485879E-19
3.604531E+03	2.686809E-18	4.375870E-19
3.614434E+03	2.622234E-18	4.270636E-19
3.624337E+03	2.560476E-18	4.169992E-19
3.634239E+03	2.501446E-18	4.073792E-19
3.644142E+03	2.445051E-18	3.981888E-19
3.654044E+03	2.391179E-18	3.894094E-19
3.663947E+03	2.339782E-18	3.810334E-19
3.673849E+03	2.290727E-18	3.730390E-19
3.683752E+03	2.243945E-18	3.654148E-19
3.693654E+03	2.199385E-18	3.581528E-19
3.703557E+03	2.156901E-18	3.512291E-19
3.713460E+03	2.116483E-18	3.446419E-19
3.723362E+03	2.077991E-18	3.383685E-19
3.733265E+03	2.041396E-18	3.324042E-19
3.743167E+03	2.006618E-18	3.267359E-19
3.753070E+03	1.973578E-18	3.213507E-19
3.762972E+03	1.942217E-18	3.162390E-19
3.772875E+03	1.912463E-18	3.113892E-19
3.782777E+03	1.884261E-18	3.067922E-19
3.792680E+03	1.857558E-18	3.024394E-19
3.802583E+03	1.832291E-18	2.983205E-19
3.812485E+03	1.808411E-18	2.944275E-19
3.822388E+03	1.785872E-18	2.907529E-19
3.832290E+03	1.764617E-18	2.872875E-19
3.842193E+03	1.744604E-18	2.840243E-19
3.852095E+03	1.725794E-18	2.809571E-19
3.861998E+03	1.708136E-18	2.780774E-19
3.871900E+03	1.691593E-18	2.753795E-19
3.881803E+03	1.676119E-18	2.728556E-19
3.891706E+03	1.661695E-18	2.705026E-19
3.901608E+03	1.648274E-18	2.683131E-19
3.911511E+03	1.635829E-18	2.662824E-19
3.921413E+03	1.624305E-18	2.644017E-19
3.931316E+03	1.613700E-18	2.626706E-19
3.941218E+03	1.603963E-18	2.610808E-19
3.951121E+03	1.595068E-18	2.596280E-19
3.961024E+03	1.586978E-18	2.583064E-19
3.970926E+03	1.579685E-18	2.571145E-19
3.980829E+03	1.573140E-18	2.560445E-19
3.990731E+03	1.567336E-18	2.550949E-19
4.000634E+03	1.562228E-18	2.542587E-19
4.010536E+03	1.557810E-18	2.535347E-19
4.020439E+03	1.554039E-18	2.529160E-19
4.030341E+03	1.550897E-18	2.523999E-19
4.040244E+03	1.548369E-18	2.519835E-19
4.050147E+03	1.546440E-18	2.516646E-19
4.060049E+03	1.545071E-18	2.514368E-19
4.069952E+03	1.544248E-18	2.512977E-19
4.079854E+03	1.543946E-18	2.512436E-19
4.089757E+03	1.544153E-18	2.512723E-19
4.099659E+03	1.544859E-18	2.513819E-19
4.109562E+03	1.546028E-18	2.515670E-19
4.119464E+03	1.547662E-18	2.518277E-19
4.129367E+03	1.549728E-18	2.521587E-19
4.139270E+03	1.552218E-18	2.525586E-19
4.149172E+03	1.555125E-18	2.530262E-19
4.159075E+03	1.558416E-18	2.535563E-19
4.168977E+03	1.562086E-18	2.541480E-19
4.178880E+03	1.566115E-18	2.547981E-19
4.188782E+03	1.570512E-18	2.555079E-19
4.198685E+03	1.575235E-18	2.562708E-19
4.208587E+03	1.580292E-18	2.570879E-19
4.218490E+03	1.585655E-18	2.579547E-19
4.228393E+03	1.591332E-18	2.588725E-19
4.238295E+03	1.597285E-18	2.598352E-19
4.248198E+03	1.603509E-18	2.608418E-19
4.258100E+03	1.610003E-18	2.618924E-19
4.268003E+03	1.616726E-18	2.629801E-19
4.277905E+03	1.623691E-18	2.641071E-19
4.287808E+03	1.630844E-18	2.652645E-19
4.297711E+03	1.638196E-18	2.664542E-19
4.307613E+03	1.645681E-18	2.676654E-19
4.317516E+03	1.653295E-18	2.688976E-19
4.327418E+03	1.661077E-18	2.701570E-19
4.337321E+03	1.669023E-18	2.714430E-19
4.347223E+03	1.677149E-18	2.727581E-19
4.357126E+03	1.685453E-18	2.741020E-19
4.367028E+03	1.693908E-18	2.754704E-19
4.376931E+03	1.702543E-18	2.768679E-19
4.386834E+03	1.711332E-18	2.782905E-19
4.396736E+03	1.720276E-18	2.797381E-19
4.406639E+03	1.729365E-18	2.812092E-19
4.416541E+03	1.738600E-18	2.827040E-19
4.426444E+03	1.747959E-18	2.842187E-19
4.436346E+03	1.757458E-18	2.857561E-19
4.446249E+03	1.767074E-18	2.873124E-19
4.456151E+03	1.776798E-18	2.888863E-19
4.466054E+03	1.786654E-18	2.904812E-19
4.475957E+03	1.796602E-18	2.920913E-19
4.485859E+03	1.806654E-18	2.937178E-19
4.495762E+03	1.816817E-18	2.953625E-19
4.505664E+03	1.827072E-18	2.970221E-19
4.515567E+03	1.837434E-18	2.986987E-19
4.525469E+03	1.847884E-18	3.003895E-19
4.535372E+03	1.858435E-18	3.020966E-19
4.545274E+03	1.869087E-18	3.038201E-19
4.555177E+03	1.879840E-18	3.055598E-19
4.565080E+03	1.890679E-18	3.073134E-19
4.574982E+03	1.901637E-18	3.090862E-19
4.584885E+03	1.912684E-18	3.108732E-19
4.594787E+03	1.923837E-18	3.126773E-19
4.604690E+03	1.935099E-18	3.144990E-19
4.614592E+03	1.946455E-18	3.163359E-19
4.624495E+03	1.957942E-18	3.181938E-19
4.634398E+03	1.969528E-18	3.200678E-19
4.644300E+03	1.981235E-18	3.219611E-19
4.654203E+03	1.993099E-18	3.238799E-19
4.664105E+03	2.005109E-18	3.258222E-19
4.674008E+03	2.017285E-18	3.277913E-19
4.683910E+03	2.029649E-18	3.297908E-19
4.693813E+03	2.042209E-18	3.318220E-19
4.703715E+03	2.054969E-18	3.338854E-19
4.713618E+03	2.067973E-18	3.359884E-19
4.723521E+03	2.081189E-18	3.381256E-19
4.733423E+03	2.094662E-18	3.403043E-19
4.743326E+03	2.108399E-18	3.425258E-19
4.753228E+03	2.122390E-18	3.447884E-19
4.763131E+03	2.136681E-18	3.470994E-19
4.773033E+03	2.151262E-18	3.494574E-19
4.782936E+03	2.166140E-18	3.518635E-19
4.792838E+03	2.181327E-18	3.543195E-19
4.802741E+03	2.196834E-18	3.568271E-19
4.812644E+03	2.212708E-18	3.593943E-19
4.822546E+03	2.228902E-18	3.620132E-19
4.832449E+03	2.245468E-18	3.646922E-19
4.842351E+03	2.262395E-18	3.674297E-19
4.852254E+03	2.279719E-18	3.702314E-19
4.862156E+03	2.297428E-18	3.730954E-19
4.872059E+03	2.315537E-18	3.760240E-19
4.881961E+03	2.334077E-18	3.790225E-19
4.891864E+03	2.353019E-18	3.820858E-19
4.901767E+03	2.372396E-18	3.852195E-19
4.911669E+03	2.392218E-18	3.884253E-19
4.921572E+03	2.412499E-18	3.917052E-19
4.931474E+03	2.433227E-18	3.950575E-19
4.941377E+03	2.454413E-18	3.984838E-19
4.951279E+03	2.476090E-18	4.019894E-19
4.961182E+03	2.498222E-18	4.055685E-19
4.971085E+03	2.520864E-18	4.092304E-19
4.980987E+03	2.543979E-18	4.129685E-19
4.990890E+03	2.567577E-18	4.167847E-19
5.000792E+03	2.591687E-18	4.206836E-19
5.010695E+03	2.616294E-18	4.246629E-19
5.020597E+03	2.641406E-18	4.287237E-19
5.030500E+03	2.667001E-18	4.328626E-19
5.040402E+03	2.693113E-18	4.370850E-19
5.050305E+03	2.719745E-18	4.413914E-19
5.060208E+03	2.746853E-18	4.457747E-19
5.070110E+03	2.774466E-18	4.502394E-19
5.080013E+03	2.802588E-18	4.547864E-19
5.089915E+03	2.831223E-18	4.594162E-19
5.099818E+03	2.860348E-18	4.641250E-19
5.109720E+03	2.889968E-18	4.689136E-19
5.119623E+03	2.920055E-18	4.737776E-19
5.129525E+03	2.950669E-18	4.787267E-19
5.139428E+03	2.981759E-18	4.837524E-19
5.149331E+03	3.013325E-18	4.888549E-19
5.159233E+03	3.045369E-18	4.940345E-19
5.169136E+03	3.077924E-18	4.992964E-19
5.179038E+03	3.110931E-18	5.046311E-19
5.188941E+03	3.144390E-18	5.100387E-19
5.198843E+03	3.178362E-18	5.155289E-19
5.208746E+03	3.212755E-18	5.210868E-19
5.218648E+03	3.247629E-18	5.267221E-19
5.228551E+03	3.282947E-18	5.324290E-19
5.238454E+03	3.318707E-18	5.382069E-19
5.248356E+03	3.354936E-18	5.440602E-19
5.258259E+03	3.391560E-18	5.499771E-19
5.268161E+03	3.428603E-18	5.559612E-19
5.278064E+03	3.466055E-18	5.620111E-19
5.287966E+03	3.503904E-18	5.681248E-19
5.297869E+03	3.542170E-18	5.743053E-19
5.307772E+03	3.580766E-18	5.805388E-19
5.317674E+03	3.619709E-18	5.868278E-19
5.327577E+03	3.658977E-18	5.931687E-19
5.337479E+03	3.698507E-18	5.995516E-19
5.347382E+03	3.738348E-18	6.059841E-19
5.357284E+03	3.778431E-18	6.124551E-19
5.367187E+03	3.818685E-18	6.189532E-19
5.377089E+03	3.859074E-18	6.254725E-19
5.386992E+03	3.899596E-18	6.320124E-19
5.396895E+03	3.940128E-18	6.385535E-19
5.406797E+03	3.980665E-18	6.450945E-19
5.416700E+03	4.021155E-18	6.516271E-19
5.426602E+03	4.061464E-18	6.581298E-19
5.436505E+03	4.101533E-18	6.645927E-19
5.446407E+03	4.141342E-18	6.710127E-19
5.456310E+03	4.180783E-18	6.773725E-19
5.466212E+03	4.219746E-18	6.836539E-19
5.476115E+03	4.258113E-18	6.898381E-19
5.486018E+03	4.295895E-18	6.959269E-19
5.495920E+03	4.332881E-18	7.018859E-19
5.505823E+03	4.369030E-18	7.077086E-19
5.515725E+03	4.404214E-18	7.133741E-19
5.525628E+03	4.438341E-18	7.188679E-19
5.535530E+03	4.471323E-18	7.241755E-19
5.545433E+03	4.503023E-18	7.292746E-19
5.555335E+03	4.533394E-18	7.341581E-19
5.565238E+03	4.562301E-18	7.388036E-19
5.575141E+03	4.589603E-18	7.431887E-19
5.585043E+03	4.615309E-18	7.473147E-19
5.594946E+03	4.639286E-18	7.511602E-19
5.604848E+03	4.661405E-18	7.547043E-19
5.614751E+03	4.681638E-18	7.579424E-19
5.624653E+03	4.699963E-18	7.608711E-19
5.634556E+03	4.716217E-18	7.634641E-19
5.644459E+03	4.730390E-18	7.657198E-19
5.654361E+03	4.742483E-18	7.676384E-19
5.664264E+03	4.752402E-18	7.692046E-19
5.674166E+03	4.760160E-18	7.704208E-19
5.684069E+03	4.765679E-18	7.712743E-19
5.693971E+03	4.768989E-18	7.717700E-19
5.703874E+03	4.770078E-18	7.719059E-19
5.713776E+03	4.768990E-18	7.716895E-19
5.723679E+03	4.765625E-18	7.711044E-19
5.733582E+03	4.760149E-18	7.701775E-19
5.743484E+03	4.752474E-18	7.688947E-19
5.753387E+03	4.742676E-18	7.672685E-19
5.763289E+03	4.730788E-18	7.653041E-19
5.773192E+03	4.716849E-18	7.630080E-19
5.783094E+03	4.700959E-18	7.603963E-19
5.792997E+03	4.683171E-18	7.574776E-19
5.802899E+03	4.663546E-18	7.542620E-19
5.812802E+03	4.642101E-18	7.507522E-19
5.822705E+03	4.619013E-18	7.469767E-19
5.832607E+03	4.594310E-18	7.429404E-19
5.842510E+03	4.568127E-18	7.386650E-19
5.852412E+03	4.540500E-18	7.341564E-19
5.862315E+03	4.511574E-18	7.294381E-19
5.872217E+03	4.481440E-18	7.245247E-19
5.882120E+03	4.450192E-18	7.194316E-19
5.892022E+03	4.417927E-18	7.141745E-19
5.901925E+03	4.384736E-18	7.087681E-19
5.911828E+03	4.350765E-18	7.032361E-19
5.921730E+03	4.316005E-18	6.975769E-19
5.931633E+03	4.280644E-18	6.918212E-19
5.941535E+03	4.244721E-18	6.859750E-19
5.951438E+03	4.208319E-18	6.800520E-19
5.961340E+03	4.171571E-18	6.740733E-19
5.971243E+03	4.134454E-18	6.680358E-19
5.981146E+03	4.097142E-18	6.619673E-19
5.991048E+03	4.059610E-18	6.558637E-19
6.000951E+03	4.021976E-18	6.497441E-19
6.010853E+03	3.984304E-18	6.436190E-19
6.020756E+03	3.946606E-18	6.374903E-19
6.030658E+03	3.908943E-18	6.313678E-19
6.040561E+03	3.871369E-18	6.252602E-19
6.050463E+03	3.833937E-18	6.191760E-19
6.060366E+03	3.796693E-18	6.131229E-19
6.070269E+03	3.759686E-18	6.071085E-19
6.080171E+03	3.722955E-18	6.011395E-19
6.090074E+03	3.686541E-18	5.952220E-19
6.099976E+03	3.650526E-18	5.893696E-19
6.109879E+03	3.614989E-18	5.835949E-19
6.119781E+03	3.580006E-18	5.779102E-19
6.129684E+03	3.545603E-18	5.723196E-19
6.139586E+03	3.511803E-18	5.668270E-19
6.149489E+03	3.478582E-18	5.614284E-19
6.159392E+03	3.445960E-18	5.561270E-19
6.169294E+03	3.413956E-18	5.509256E-19
6.179197E+03	3.382537E-18	5.458193E-19
6.189099E+03	3.351764E-18	5.408178E-19
6.199002E+03	3.321738E-18	5.359373E-19
6.208904E+03	3.292423E-18	5.311720E-19
6.218807E+03	3.263872E-18	5.265304E-19
6.228709E+03	3.236181E-18	5.220279E-19
6.238612E+03	3.209309E-18	5.176581E-19
6.248515E+03	3.183393E-18	5.134429E-19
6.258417E+03	3.158480E-18	5.093898E-19
6.268320E+03	3.134526E-18	5.054918E-19
6.278222E+03	3.111663E-18	5.017701E-19
6.288125E+03	3.089935E-18	4.982317E-19
6.298027E+03	3.069341E-18	4.948767E-19
6.307930E+03	3.049924E-18	4.917116E-19
6.317833E+03	3.031815E-18	4.887577E-19
6.327735E+03	3.014968E-18	4.860074E-19
6.337638E+03	2.999426E-18	4.834679E-19
6.347540E+03	2.985277E-18	4.811529E-19
6.357443E+03	2.972388E-18	4.790412E-19
6.367345E+03	2.960669E-18	4.771182E-19
6.377248E+03	2.950076E-18	4.753768E-19
6.387150E+03	2.940564E-18	4.738098E-19
6.397053E+03	2.932044E-18	4.724027E-19
6.406956E+03	2.924518E-18	4.711555E-19
6.416858E+03	2.917938E-18	4.700610E-19
6.426761E+03	2.912305E-18	4.691191E-19
6.436663E+03	2.907574E-18	4.683224E-19
6.446566E+03	2.903747E-18	4.676712E-19
6.456468E+03	2.900820E-18	4.671649E-19
6.466371E+03	2.898751E-18	4.667968E-19
6.476273E+03	2.897584E-18	4.665738E-19
6.486176E+03	2.897319E-18	4.664960E-19
6.496079E+03	2.897912E-18	4.665561E-19
6.505981E+03	2.899410E-18	4.667617E-19
6.515884E+03	2.901765E-18	4.671052E-19
6.525786E+03	2.904981E-18	4.675870E-19
6.535689E+03	2.909103E-18	4.682145E-19
6.545591E+03	2.914040E-18	4.689729E-19
6.555494E+03	2.919936E-18	4.698853E-19
6.565396E+03	2.926648E-18	4.709287E-19
6.575299E+03	2.934275E-18	4.721191E-19
6.585202E+03	2.942771E-18	4.734489E-19
6.595104E+03	2.952137E-18	4.749184E-19
6.605007E+03	2.962425E-18	4.765359E-19
6.614909E+03	2.973592E-18	4.782942E-19
6.624812E+03	2.985637E-18	4.801934E-19
6.634714E+03	2.998564E-18	4.822340E-19
6.644617E+03	3.012429E-18	4.844250E-19
6.654520E+03	3.027132E-18	4.867501E-19
6.664422E+03	3.042780E-18	4.892267E-19
6.674325E+03	3.059325E-18	4.918471E-19
6.684227E+03	3.076773E-18	4.946119E-19
6.694130E+03	3.095126E-18	4.975217E-19
6.704032E+03	3.114390E-18	5.005773E-19
6.713935E+03	3.134625E-18	5.037883E-19
6.723837E+03	3.155725E-18	5.071376E-19
6.733740E+03	3.177751E-18	5.106350E-19
6.743643E+03	3.200707E-18	5.142811E-19
6.753545E+03	3.224598E-18	5.180767E-19
6.763448E+03	3.249432E-18	5.220229E-19
6.773350E+03	3.275210E-18	5.261202E-19
6.783253E+03	3.301943E-18	5.303698E-19
6.793155E+03	3.329570E-18	5.347623E-19
6.803058E+03	3.358160E-18	5.393085E-19
6.812960E+03	3.387718E-18	5.440092E-19
6.822863E+03	3.418185E-18	5.488548E-19
6.832766E+03	3.449629E-18	5.538564E-19
6.842668E+03	3.482055E-18	5.590147E-19
6.852571E+03	3.515402E-18	5.643198E-19
6.862473E+03	3.549674E-18	5.697722E-19
6.872376E+03	3.584942E-18	5.753835E-19
6.882278E+03	3.621141E-18	5.811429E-19
6.892181E+03	3.658275E-18	5.870513E-19
6.902083E+03	3.696415E-18	5.931200E-19
6.911986E+03	3.735497E-18	5.993387E-19
6.921889E+03	3.775523E-18	6.057074E-19
6.931791E+03	3.816421E-18	6.122149E-19
6.941694E+03	3.858341E-18	6.188848E-19
6.951596E+03	3.901212E-18	6.257061E-19
6.961499E+03	3.945036E-18	6.326788E-19
6.971401E+03	3.989737E-18	6.397908E-19
6.981304E+03	4.035394E-18	6.470545E-19
6.991207E+03	4.081929E-18	6.544576E-19
7.001109E+03	4.129502E-18	6.620257E-19
7.011012E+03	4.177870E-18	6.697197E-19
7.020914E+03	4.227198E-18	6.775660E-19
7.030817E+03	4.277401E-18	6.855509E-19
7.040719E+03	4.328562E-18	6.936879E-19
7.050622E+03	4.380508E-18	7.019489E-19
7.060524E+03	4.433411E-18	7.103617E-19
7.070427E+03	4.487089E-18	7.188969E-19
7.080330E+03	4.541629E-18	7.275684E-19
7.090232E+03	4.597025E-18	7.363755E-19
7.100135E+03	4.653276E-18	7.453176E-19
7.110037E+03	4.710278E-18	7.543783E-19
7.119940E+03	4.768022E-18	7.635559E-19
7.129842E+03	4.826600E-18	7.728652E-19
7.139745E+03	4.885903E-18	7.822889E-19
7.149647E+03	4.946029E-18	7.918422E-19
7.159550E+03	5.006754E-18	8.014896E-19
7.169453E+03	5.068279E-18	8.112632E-19
7.179355E+03	5.130489E-18	8.211442E-19
7.189258E+03	5.193369E-18	8.311306E-19
7.199160E+03	5.256905E-18	8.412200E-19
7.209063E+03	5.321083E-18	8.514101E-19
7.218965E+03	5.385888E-18	8.616983E-19
7.228868E+03	5.451424E-18	8.721014E-19
7.238770E+03	5.517434E-18	8.825784E-19
7.248673E+03	5.584269E-18	8.931851E-19
7.258576E+03	5.651794E-18	9.039001E-19
7.268478E+03	5.719868E-18	9.147006E-19
7.278381E+03	5.788860E-18	9.256458E-19
7.288283E+03	5.858505E-18	9.366931E-19
7.298186E+03	5.929189E-18	9.479044E-19
7.308088E+03	6.000781E-18	9.592585E-19
7.317991E+03	6.073415E-18	9.707770E-19
7.327894E+03	6.147236E-18	9.824827E-19
7.337796E+03	6.222254E-18	9.943776E-19
7.347699E+03	6.298773E-18	1.006510E-18
7.357601E+03	6.376968E-18	1.018907E-18
7.367504E+03	6.456719E-18	1.031551E-18
7.377406E+03	6.538050E-18	1.044445E-18
7.387309E+03	6.620989E-18	1.057592E-18
7.397211E+03	6.705401E-18	1.070973E-18
7.407114E+03	6.791143E-18	1.084563E-18
7.417017E+03	6.878061E-18	1.098339E-18
7.426919E+03	6.966156E-18	1.112299E-18
7.436822E+03	7.055262E-18	1.126418E-18
7.446724E+03	7.145199E-18	1.140667E-18
7.456627E+03	7.236128E-18	1.155072E-18
7.466529E+03	7.327683E-18	1.169574E-18
7.476432E+03	7.419841E-18	1.184169E-18
7.486334E+03	7.512575E-18	1.198853E-18
7.496237E+03	7.605859E-18	1.213622E-18
7.506140E+03	7.699666E-18	1.228471E-18
7.516042E+03	7.793771E-18	1.243365E-18
7.525945E+03	7.888134E-18	1.258298E-18
7.535847E+03	7.982913E-18	1.273294E-18
7.545750E+03	8.077870E-18	1.288315E-18
7.555652E+03	8.173164E-18	1.303388E-18
7.565555E+03	8.268335E-18	1.318437E-18
7.575457E+03	8.363746E-18	1.333522E-18
7.585360E+03	8.459136E-18	1.348601E-18
7.595263E+03	8.554443E-18	1.363664E-18
7.605165E+03	8.649607E-18	1.378701E-18
7.615068E+03	8.744787E-18	1.393738E-18
7.624970E+03	8.839694E-18	1.408729E-18
7.634873E+03	8.934256E-18	1.423661E-18
7.644775E+03	9.028633E-18	1.438562E-18
7.654678E+03	9.122758E-18	1.453419E-18
7.664581E+03	9.216314E-18	1.468184E-18
7.674483E+03	9.309463E-18	1.482880E-18
7.684386E+03	9.402129E-18	1.497497E-18
