#wls	flux	fluxerr
1.584409E+03	1.092361E-16	3.553372E-17
1.624020E+03	1.134326E-16	3.683883E-17
1.663630E+03	1.173210E-16	3.803743E-17
1.703240E+03	1.208555E-16	3.911491E-17
1.742850E+03	1.239507E-16	4.004406E-17
1.782461E+03	1.265092E-16	4.079397E-17
1.822071E+03	1.283752E-16	4.131529E-17
1.861681E+03	1.293939E-16	4.155943E-17
1.901291E+03	1.293923E-16	4.147244E-17
1.940902E+03	1.282264E-16	4.101025E-17
1.980512E+03	1.258374E-16	4.015656E-17
2.020122E+03	1.224079E-16	3.897217E-17
2.059732E+03	1.184462E-16	3.762104E-17
2.099342E+03	1.147648E-16	3.636201E-17
2.138953E+03	1.122446E-16	3.547305E-17
2.178563E+03	1.113770E-16	3.510637E-17
2.218173E+03	1.120028E-16	3.520778E-17
2.257783E+03	1.134593E-16	3.556569E-17
2.297394E+03	1.149335E-16	3.592359E-17
2.337004E+03	1.158178E-16	3.609190E-17
2.376614E+03	1.157556E-16	3.596143E-17
2.416224E+03	1.146136E-16	3.549352E-17
2.455835E+03	1.124196E-16	3.470002E-17
2.495445E+03	1.092671E-16	3.361305E-17
2.535055E+03	1.052791E-16	3.227352E-17
2.574665E+03	1.006045E-16	3.072990E-17
2.614276E+03	9.537260E-17	2.902419E-17
2.653886E+03	8.971794E-17	2.719947E-17
2.693496E+03	8.375752E-17	2.529303E-17
2.733106E+03	7.761283E-17	2.334300E-17
2.772716E+03	7.138890E-17	2.138204E-17
2.812327E+03	6.518958E-17	1.944197E-17
2.851937E+03	5.911129E-17	1.755189E-17
2.891547E+03	5.324134E-17	1.573767E-17
2.931157E+03	4.765584E-17	1.402140E-17
2.970768E+03	4.241672E-17	1.242057E-17
2.980670E+03	4.116638E-17	1.203984E-17
2.990573E+03	3.994154E-17	1.166737E-17
3.000475E+03	3.874162E-17	1.130297E-17
3.010378E+03	3.756855E-17	1.094718E-17
3.020280E+03	3.642165E-17	1.059978E-17
3.030183E+03	3.530105E-17	1.026080E-17
3.040086E+03	3.420730E-17	9.930354E-18
3.049988E+03	3.314315E-17	9.609233E-18
3.059891E+03	3.210829E-17	9.297315E-18
3.069793E+03	3.110330E-17	8.994742E-18
3.079696E+03	3.012684E-17	8.701098E-18
3.089598E+03	2.917888E-17	8.416352E-18
3.099501E+03	2.825885E-17	8.140307E-18
3.109403E+03	2.736622E-17	7.872792E-18
3.119306E+03	2.650054E-17	7.613645E-18
3.129209E+03	2.566185E-17	7.362854E-18
3.139111E+03	2.484924E-17	7.120131E-18
3.149014E+03	2.406276E-17	6.885465E-18
3.158916E+03	2.330195E-17	6.658703E-18
3.168819E+03	2.256641E-17	6.439699E-18
3.178721E+03	2.185607E-17	6.228414E-18
3.188624E+03	2.116973E-17	6.024475E-18
3.198526E+03	2.050805E-17	5.828046E-18
3.208429E+03	1.986948E-17	5.638667E-18
3.218332E+03	1.925459E-17	5.456470E-18
3.228234E+03	1.866222E-17	5.281104E-18
3.238137E+03	1.809220E-17	5.112495E-18
3.248039E+03	1.754401E-17	4.950478E-18
3.257942E+03	1.701688E-17	4.794807E-18
3.267844E+03	1.651084E-17	4.645467E-18
3.277747E+03	1.602481E-17	4.502138E-18
3.287650E+03	1.555832E-17	4.364660E-18
3.297552E+03	1.511131E-17	4.232998E-18
3.307455E+03	1.468280E-17	4.106855E-18
3.317357E+03	1.427228E-17	3.986067E-18
3.327260E+03	1.387924E-17	3.870476E-18
3.337162E+03	1.350339E-17	3.759974E-18
3.347065E+03	1.314383E-17	3.654297E-18
3.356967E+03	1.280009E-17	3.553294E-18
3.366870E+03	1.247186E-17	3.456860E-18
3.376773E+03	1.215848E-17	3.364798E-18
3.386675E+03	1.185950E-17	3.276960E-18
3.396578E+03	1.157414E-17	3.193119E-18
3.406480E+03	1.130213E-17	3.113182E-18
3.416383E+03	1.104303E-17	3.037015E-18
3.426285E+03	1.079616E-17	2.964413E-18
3.436188E+03	1.056113E-17	2.895256E-18
3.446090E+03	1.033745E-17	2.829394E-18
3.455993E+03	1.012488E-17	2.766748E-18
3.465896E+03	9.922718E-18	2.707116E-18
3.475798E+03	9.730776E-18	2.650430E-18
3.485701E+03	9.548524E-18	2.596536E-18
3.495603E+03	9.375581E-18	2.545317E-18
3.505506E+03	9.211582E-18	2.496664E-18
3.515408E+03	9.056074E-18	2.450442E-18
3.525311E+03	8.908846E-18	2.406584E-18
3.535213E+03	8.769388E-18	2.364942E-18
3.545116E+03	8.637424E-18	2.325431E-18
3.555019E+03	8.512770E-18	2.287994E-18
3.564921E+03	8.395077E-18	2.252526E-18
3.574824E+03	8.284094E-18	2.218953E-18
3.584726E+03	8.179513E-18	2.187182E-18
3.594629E+03	8.081027E-18	2.157125E-18
3.604531E+03	7.988438E-18	2.128719E-18
3.614434E+03	7.901399E-18	2.101865E-18
3.624337E+03	7.819813E-18	2.076531E-18
3.634239E+03	7.743367E-18	2.052626E-18
3.644142E+03	7.671901E-18	2.030100E-18
3.654044E+03	7.605347E-18	2.008931E-18
3.663947E+03	7.543415E-18	1.989034E-18
3.673849E+03	7.485972E-18	1.970369E-18
3.683752E+03	7.433034E-18	1.952934E-18
3.693654E+03	7.384392E-18	1.936667E-18
3.703557E+03	7.339925E-18	1.921533E-18
3.713460E+03	7.299638E-18	1.907526E-18
3.723362E+03	7.263330E-18	1.894588E-18
3.733265E+03	7.230951E-18	1.882701E-18
3.743167E+03	7.202489E-18	1.871857E-18
3.753070E+03	7.177826E-18	1.862019E-18
3.762972E+03	7.156897E-18	1.853166E-18
3.772875E+03	7.139636E-18	1.845276E-18
3.782777E+03	7.125986E-18	1.838329E-18
3.792680E+03	7.115946E-18	1.832319E-18
3.802583E+03	7.109393E-18	1.827211E-18
3.812485E+03	7.106340E-18	1.823003E-18
3.822388E+03	7.106782E-18	1.819688E-18
3.832290E+03	7.110614E-18	1.817235E-18
3.842193E+03	7.117772E-18	1.815623E-18
3.852095E+03	7.128324E-18	1.814866E-18
3.861998E+03	7.142218E-18	1.814944E-18
3.871900E+03	7.159339E-18	1.815824E-18
3.881803E+03	7.179749E-18	1.817519E-18
3.891706E+03	7.203451E-18	1.820022E-18
3.901608E+03	7.230261E-18	1.823285E-18
3.911511E+03	7.260237E-18	1.827317E-18
3.921413E+03	7.293377E-18	1.832114E-18
3.931316E+03	7.329600E-18	1.837650E-18
3.941218E+03	7.368783E-18	1.843892E-18
3.951121E+03	7.411033E-18	1.850861E-18
3.961024E+03	7.456199E-18	1.858516E-18
3.970926E+03	7.504208E-18	1.866834E-18
3.980829E+03	7.555092E-18	1.875821E-18
3.990731E+03	7.608707E-18	1.885436E-18
4.000634E+03	7.665083E-18	1.895684E-18
4.010536E+03	7.724012E-18	1.906509E-18
4.020439E+03	7.785581E-18	1.917930E-18
4.030341E+03	7.849644E-18	1.929907E-18
4.040244E+03	7.916112E-18	1.942416E-18
4.050147E+03	7.985020E-18	1.955461E-18
4.060049E+03	8.056158E-18	1.968989E-18
4.069952E+03	8.129624E-18	1.983022E-18
4.079854E+03	8.205209E-18	1.997504E-18
4.089757E+03	8.282891E-18	2.012429E-18
4.099659E+03	8.362646E-18	2.027788E-18
4.109562E+03	8.444335E-18	2.043545E-18
4.119464E+03	8.527940E-18	2.059695E-18
4.129367E+03	8.613381E-18	2.076215E-18
4.139270E+03	8.700514E-18	2.093069E-18
4.149172E+03	8.789402E-18	2.110270E-18
4.159075E+03	8.879820E-18	2.127764E-18
4.168977E+03	8.971844E-18	2.145566E-18
4.178880E+03	9.065255E-18	2.163624E-18
4.188782E+03	9.160041E-18	2.181933E-18
4.198685E+03	9.256124E-18	2.200473E-18
4.208587E+03	9.353279E-18	2.219191E-18
4.218490E+03	9.451572E-18	2.238102E-18
4.228393E+03	9.550841E-18	2.257167E-18
4.238295E+03	9.650927E-18	2.276348E-18
4.248198E+03	9.751665E-18	2.295607E-18
4.258100E+03	9.853045E-18	2.314940E-18
4.268003E+03	9.954977E-18	2.334328E-18
4.277905E+03	1.005714E-17	2.353696E-18
4.287808E+03	1.015960E-17	2.373060E-18
4.297711E+03	1.026203E-17	2.392346E-18
4.307613E+03	1.036450E-17	2.411571E-18
4.317516E+03	1.046678E-17	2.430681E-18
4.327418E+03	1.056887E-17	2.449679E-18
4.337321E+03	1.067078E-17	2.468570E-18
4.347223E+03	1.077255E-17	2.487365E-18
4.357126E+03	1.087420E-17	2.506068E-18
4.367028E+03	1.097583E-17	2.524707E-18
4.376931E+03	1.107757E-17	2.543309E-18
4.386834E+03	1.117945E-17	2.561886E-18
4.396736E+03	1.128161E-17	2.580472E-18
4.406639E+03	1.138402E-17	2.599059E-18
4.416541E+03	1.148693E-17	2.617706E-18
4.426444E+03	1.159031E-17	2.636408E-18
4.436346E+03	1.169423E-17	2.655183E-18
4.446249E+03	1.179876E-17	2.674045E-18
4.456151E+03	1.190397E-17	2.693012E-18
4.466054E+03	1.200994E-17	2.712102E-18
4.475957E+03	1.211673E-17	2.731329E-18
4.485859E+03	1.222419E-17	2.750660E-18
4.495762E+03	1.233262E-17	2.770159E-18
4.505664E+03	1.244189E-17	2.789796E-18
4.515567E+03	1.255205E-17	2.809586E-18
4.525469E+03	1.266308E-17	2.829520E-18
4.535372E+03	1.277516E-17	2.849639E-18
4.545274E+03	1.288826E-17	2.869936E-18
4.555177E+03	1.300222E-17	2.890376E-18
4.565080E+03	1.311736E-17	2.911025E-18
4.574982E+03	1.323350E-17	2.931848E-18
4.584885E+03	1.335061E-17	2.952834E-18
4.594787E+03	1.346888E-17	2.974024E-18
4.604690E+03	1.358838E-17	2.995435E-18
4.614592E+03	1.370882E-17	3.017001E-18
4.624495E+03	1.383052E-17	3.038792E-18
4.634398E+03	1.395342E-17	3.060796E-18
4.644300E+03	1.407751E-17	3.083005E-18
4.654203E+03	1.420285E-17	3.105436E-18
4.664105E+03	1.432943E-17	3.128083E-18
4.674008E+03	1.445735E-17	3.150970E-18
4.683910E+03	1.458636E-17	3.174038E-18
4.693813E+03	1.471659E-17	3.197319E-18
4.703715E+03	1.484824E-17	3.220850E-18
4.713618E+03	1.498092E-17	3.244551E-18
4.723521E+03	1.511496E-17	3.268489E-18
4.733423E+03	1.525027E-17	3.292645E-18
4.743326E+03	1.538673E-17	3.316995E-18
4.753228E+03	1.552470E-17	3.341610E-18
4.763131E+03	1.566373E-17	3.366397E-18
4.773033E+03	1.580431E-17	3.391459E-18
4.782936E+03	1.594599E-17	3.416698E-18
4.792838E+03	1.608907E-17	3.442179E-18
4.802741E+03	1.623326E-17	3.467837E-18
4.812644E+03	1.637884E-17	3.493735E-18
4.822546E+03	1.652551E-17	3.519803E-18
4.832449E+03	1.667340E-17	3.546072E-18
4.842351E+03	1.682250E-17	3.572538E-18
4.852254E+03	1.697264E-17	3.599164E-18
4.862156E+03	1.712380E-17	3.625945E-18
4.872059E+03	1.727598E-17	3.652880E-18
4.881961E+03	1.742932E-17	3.680000E-18
4.891864E+03	1.758348E-17	3.707231E-18
4.901767E+03	1.773879E-17	3.734644E-18
4.911669E+03	1.789489E-17	3.762162E-18
4.921572E+03	1.805196E-17	3.789822E-18
4.931474E+03	1.820978E-17	3.817578E-18
4.941377E+03	1.836834E-17	3.845427E-18
4.951279E+03	1.852758E-17	3.873357E-18
4.961182E+03	1.868762E-17	3.901393E-18
4.971085E+03	1.884800E-17	3.929441E-18
4.980987E+03	1.900882E-17	3.957517E-18
4.990890E+03	1.916975E-17	3.985558E-18
5.000792E+03	1.933084E-17	4.013571E-18
5.010695E+03	1.949172E-17	4.041483E-18
5.020597E+03	1.965203E-17	4.069216E-18
5.030500E+03	1.981171E-17	4.096765E-18
5.040402E+03	1.997056E-17	4.124085E-18
5.050305E+03	2.012811E-17	4.151080E-18
5.060208E+03	2.028389E-17	4.177657E-18
5.070110E+03	2.043797E-17	4.203833E-18
5.080013E+03	2.058964E-17	4.229466E-18
5.089915E+03	2.073857E-17	4.254485E-18
5.099818E+03	2.088439E-17	4.278823E-18
5.109720E+03	2.102676E-17	4.302410E-18
5.119623E+03	2.116511E-17	4.325133E-18
5.129525E+03	2.129927E-17	4.346965E-18
5.139428E+03	2.142849E-17	4.367753E-18
5.149331E+03	2.155259E-17	4.387468E-18
5.159233E+03	2.167078E-17	4.405954E-18
5.169136E+03	2.178313E-17	4.423227E-18
5.179038E+03	2.188880E-17	4.439124E-18
5.188941E+03	2.198759E-17	4.453612E-18
5.198843E+03	2.207864E-17	4.466522E-18
5.208746E+03	2.216170E-17	4.477811E-18
5.218648E+03	2.223632E-17	4.487390E-18
5.228551E+03	2.230154E-17	4.495078E-18
5.238454E+03	2.235686E-17	4.500780E-18
5.248356E+03	2.240201E-17	4.504448E-18
5.258259E+03	2.243624E-17	4.505943E-18
5.268161E+03	2.245885E-17	4.505130E-18
5.278064E+03	2.246936E-17	4.501923E-18
5.287966E+03	2.246733E-17	4.496242E-18
5.297869E+03	2.245238E-17	4.488022E-18
5.307772E+03	2.242395E-17	4.477159E-18
5.317674E+03	2.238200E-17	4.463656E-18
5.327577E+03	2.232614E-17	4.447444E-18
5.337479E+03	2.225653E-17	4.428563E-18
5.347382E+03	2.217300E-17	4.406994E-18
5.357284E+03	2.207620E-17	4.382869E-18
5.367187E+03	2.196669E-17	4.356312E-18
5.377089E+03	2.184477E-17	4.327389E-18
5.386992E+03	2.171175E-17	4.296368E-18
5.396895E+03	2.156846E-17	4.263420E-18
5.406797E+03	2.141503E-17	4.228576E-18
5.416700E+03	2.125323E-17	4.192192E-18
5.426602E+03	2.108388E-17	4.154434E-18
5.436505E+03	2.090793E-17	4.115494E-18
5.446407E+03	2.072661E-17	4.075616E-18
5.456310E+03	2.054098E-17	4.035011E-18
5.466212E+03	2.035213E-17	3.993898E-18
5.476115E+03	2.016164E-17	3.952582E-18
5.486018E+03	1.997065E-17	3.911288E-18
5.495920E+03	1.978096E-17	3.870364E-18
5.505823E+03	1.959413E-17	3.830113E-18
5.515725E+03	1.941151E-17	3.790793E-18
5.525628E+03	1.923479E-17	3.752729E-18
5.535530E+03	1.906538E-17	3.716192E-18
5.545433E+03	1.890465E-17	3.681439E-18
5.555335E+03	1.875401E-17	3.648742E-18
5.565238E+03	1.861457E-17	3.618306E-18
5.575141E+03	1.848729E-17	3.590309E-18
5.585043E+03	1.837312E-17	3.564931E-18
5.594946E+03	1.827271E-17	3.542286E-18
5.604848E+03	1.818667E-17	3.522483E-18
5.614751E+03	1.811526E-17	3.505565E-18
5.624653E+03	1.805856E-17	3.491539E-18
5.634556E+03	1.801669E-17	3.480420E-18
5.644459E+03	1.798946E-17	3.472158E-18
5.654361E+03	1.797651E-17	3.466682E-18
5.664264E+03	1.797762E-17	3.463934E-18
5.674166E+03	1.799228E-17	3.463814E-18
5.684069E+03	1.802013E-17	3.466243E-18
5.693971E+03	1.806047E-17	3.471077E-18
5.703874E+03	1.811312E-17	3.478278E-18
5.713776E+03	1.817745E-17	3.487715E-18
5.723679E+03	1.825305E-17	3.499305E-18
5.733582E+03	1.833998E-17	3.513053E-18
5.743484E+03	1.843764E-17	3.528837E-18
5.753387E+03	1.854626E-17	3.546699E-18
5.763289E+03	1.866577E-17	3.566615E-18
5.773192E+03	1.879616E-17	3.588577E-18
5.783094E+03	1.893721E-17	3.612542E-18
5.792997E+03	1.908941E-17	3.638594E-18
5.802899E+03	1.925260E-17	3.666696E-18
5.812802E+03	1.942706E-17	3.696899E-18
5.822705E+03	1.961287E-17	3.729211E-18
5.832607E+03	1.980990E-17	3.763599E-18
5.842510E+03	2.001841E-17	3.800110E-18
5.852412E+03	2.023869E-17	3.838790E-18
5.862315E+03	2.047032E-17	3.879555E-18
5.872217E+03	2.071352E-17	3.922440E-18
5.882120E+03	2.096827E-17	3.967437E-18
5.892022E+03	2.123473E-17	4.014570E-18
5.901925E+03	2.151235E-17	4.063726E-18
5.911828E+03	2.180146E-17	4.114965E-18
5.921730E+03	2.210142E-17	4.168158E-18
5.931633E+03	2.241226E-17	4.223305E-18
5.941535E+03	2.273374E-17	4.280359E-18
5.951438E+03	2.306534E-17	4.339211E-18
5.961340E+03	2.340700E-17	4.399848E-18
5.971243E+03	2.375783E-17	4.462097E-18
5.981146E+03	2.411798E-17	4.525981E-18
5.991048E+03	2.448620E-17	4.591260E-18
6.000951E+03	2.486254E-17	4.657941E-18
6.010853E+03	2.524593E-17	4.725816E-18
6.020756E+03	2.563607E-17	4.794829E-18
6.030658E+03	2.603175E-17	4.864747E-18
6.040561E+03	2.643227E-17	4.935438E-18
6.050463E+03	2.683658E-17	5.006704E-18
6.060366E+03	2.724390E-17	5.078394E-18
6.070269E+03	2.765270E-17	5.150223E-18
6.080171E+03	2.806173E-17	5.221959E-18
6.090074E+03	2.847002E-17	5.293421E-18
6.099976E+03	2.887626E-17	5.364362E-18
6.109879E+03	2.927836E-17	5.434398E-18
6.119781E+03	2.967529E-17	5.503340E-18
6.129684E+03	3.006572E-17	5.570942E-18
6.139586E+03	3.044876E-17	5.637043E-18
6.149489E+03	3.082402E-17	5.701576E-18
6.159392E+03	3.119125E-17	5.764496E-18
6.169294E+03	3.155071E-17	5.825858E-18
6.179197E+03	3.190360E-17	5.885882E-18
6.189099E+03	3.225004E-17	5.944599E-18
6.199002E+03	3.258980E-17	6.001969E-18
6.208904E+03	3.292441E-17	6.058275E-18
6.218807E+03	3.325423E-17	6.113587E-18
6.228709E+03	3.357877E-17	6.167820E-18
6.238612E+03	3.389981E-17	6.221300E-18
6.248515E+03	3.421650E-17	6.273873E-18
6.258417E+03	3.453027E-17	6.325801E-18
6.268320E+03	3.484076E-17	6.377019E-18
6.278222E+03	3.514854E-17	6.427631E-18
6.288125E+03	3.545372E-17	6.477658E-18
6.298027E+03	3.575644E-17	6.527121E-18
6.307930E+03	3.605680E-17	6.576042E-18
6.317833E+03	3.635441E-17	6.624349E-18
6.327735E+03	3.664885E-17	6.671963E-18
6.337638E+03	3.694070E-17	6.718990E-18
6.347540E+03	3.722897E-17	6.765254E-18
6.357443E+03	3.751424E-17	6.810854E-18
6.367345E+03	3.779600E-17	6.855703E-18
6.377248E+03	3.807429E-17	6.899807E-18
6.387150E+03	3.834971E-17	6.943274E-18
6.397053E+03	3.862346E-17	6.986324E-18
6.406956E+03	3.889569E-17	7.028979E-18
6.416858E+03	3.916712E-17	7.071374E-18
6.426761E+03	3.943852E-17	7.113645E-18
6.436663E+03	3.970951E-17	7.155720E-18
6.446566E+03	3.998149E-17	7.197854E-18
6.456468E+03	4.025470E-17	7.240087E-18
6.466371E+03	4.052876E-17	7.282349E-18
6.476273E+03	4.080512E-17	7.324902E-18
6.486176E+03	4.108341E-17	7.367672E-18
6.496079E+03	4.136317E-17	7.410582E-18
6.505981E+03	4.164593E-17	7.453898E-18
6.515884E+03	4.193123E-17	7.497540E-18
6.525786E+03	4.221927E-17	7.541542E-18
6.535689E+03	4.251094E-17	7.586059E-18
6.545591E+03	4.280504E-17	7.630876E-18
6.555494E+03	4.310171E-17	7.676016E-18
6.565396E+03	4.340249E-17	7.721752E-18
6.575299E+03	4.370606E-17	7.767850E-18
6.585202E+03	4.401252E-17	7.814322E-18
6.595104E+03	4.432263E-17	7.861303E-18
6.605007E+03	4.463566E-17	7.908665E-18
6.614909E+03	4.495162E-17	7.956404E-18
6.624812E+03	4.527121E-17	8.004647E-18
6.634714E+03	4.559285E-17	8.053113E-18
6.644617E+03	4.591642E-17	8.101780E-18
6.654520E+03	4.624338E-17	8.150905E-18
6.664422E+03	4.657202E-17	8.200187E-18
6.674325E+03	4.690215E-17	8.249595E-18
6.684227E+03	4.723443E-17	8.299243E-18
6.694130E+03	4.756782E-17	8.348951E-18
6.704032E+03	4.790209E-17	8.398678E-18
6.713935E+03	4.823700E-17	8.448386E-18
6.723837E+03	4.857230E-17	8.498032E-18
6.733740E+03	4.890683E-17	8.547417E-18
6.743643E+03	4.924119E-17	8.596648E-18
6.753545E+03	4.957510E-17	8.645678E-18
6.763448E+03	4.990735E-17	8.694303E-18
6.773350E+03	5.023856E-17	8.742632E-18
6.783253E+03	5.056750E-17	8.790458E-18
6.793155E+03	5.089388E-17	8.837733E-18
6.803058E+03	5.121739E-17	8.884411E-18
6.812960E+03	5.153678E-17	8.930280E-18
6.822863E+03	5.185368E-17	8.975631E-18
6.832766E+03	5.216690E-17	9.020262E-18
6.842668E+03	5.247519E-17	9.063965E-18
6.852571E+03	5.277928E-17	9.106876E-18
6.862473E+03	5.307796E-17	9.148790E-18
6.872376E+03	5.337096E-17	9.189671E-18
6.882278E+03	5.365907E-17	9.229666E-18
6.892181E+03	5.394105E-17	9.268568E-18
6.902083E+03	5.421666E-17	9.306348E-18
6.911986E+03	5.448571E-17	9.342979E-18
6.921889E+03	5.474799E-17	9.378441E-18
6.931791E+03	5.500228E-17	9.412531E-18
6.941694E+03	5.525054E-17	9.445601E-18
6.951596E+03	5.549055E-17	9.477275E-18
6.961499E+03	5.572217E-17	9.507548E-18
6.971401E+03	5.594646E-17	9.536609E-18
6.981304E+03	5.616231E-17	9.564280E-18
6.991207E+03	5.636970E-17	9.590574E-18
7.001109E+03	5.656870E-17	9.615513E-18
7.011012E+03	5.675943E-17	9.639129E-18
7.020914E+03	5.694317E-17	9.661654E-18
7.030817E+03	5.711788E-17	9.682752E-18
7.040719E+03	5.728381E-17	9.702480E-18
7.050622E+03	5.744245E-17	9.721104E-18
7.060524E+03	5.759417E-17	9.738700E-18
7.070427E+03	5.773830E-17	9.755163E-18
7.080330E+03	5.787647E-17	9.770787E-18
7.090232E+03	5.800689E-17	9.785278E-18
7.100135E+03	5.813250E-17	9.799145E-18
7.110037E+03	5.825275E-17	9.812308E-18
7.119940E+03	5.836829E-17	9.824890E-18
7.129842E+03	5.847858E-17	9.836812E-18
7.139745E+03	5.858676E-17	9.848613E-18
7.149647E+03	5.869108E-17	9.860010E-18
7.159550E+03	5.879343E-17	9.871333E-18
7.169453E+03	5.889320E-17	9.882491E-18
7.179355E+03	5.899220E-17	9.893800E-18
7.189258E+03	5.908966E-17	9.905141E-18
7.199160E+03	5.918593E-17	9.916586E-18
7.209063E+03	5.928254E-17	9.928401E-18
7.218965E+03	5.937833E-17	9.940405E-18
7.228868E+03	5.947457E-17	9.952822E-18
7.238770E+03	5.956858E-17	9.965215E-18
7.248673E+03	5.966140E-17	9.977769E-18
7.258576E+03	5.975395E-17	9.990652E-18
7.268478E+03	5.984325E-17	1.000338E-17
7.278381E+03	5.993014E-17	1.001610E-17
7.288283E+03	6.001284E-17	1.002853E-17
7.298186E+03	6.009216E-17	1.004082E-17
7.308088E+03	6.016638E-17	1.005268E-17
7.317991E+03	6.023509E-17	1.006408E-17
7.327894E+03	6.029798E-17	1.007496E-17
7.337796E+03	6.035352E-17	1.008509E-17
7.347699E+03	6.040158E-17	1.009444E-17
7.357601E+03	6.044215E-17	1.010304E-17
7.367504E+03	6.047535E-17	1.011091E-17
7.377406E+03	6.050277E-17	1.011833E-17
7.387309E+03	6.052340E-17	1.012513E-17
7.397211E+03	6.054042E-17	1.013187E-17
7.407114E+03	6.055438E-17	1.013864E-17
7.417017E+03	6.056588E-17	1.014556E-17
7.426919E+03	6.057555E-17	1.015273E-17
7.436822E+03	6.058401E-17	1.016027E-17
7.446724E+03	6.059437E-17	1.016872E-17
7.456627E+03	6.060384E-17	1.017760E-17
7.466529E+03	6.061371E-17	1.018711E-17
7.476432E+03	6.062381E-17	1.019724E-17
7.486334E+03	6.063540E-17	1.020817E-17
7.496237E+03	6.064549E-17	1.021939E-17
7.506140E+03	6.065537E-17	1.023113E-17
7.516042E+03	6.066497E-17	1.024334E-17
7.525945E+03	6.067570E-17	1.025628E-17
7.535847E+03	6.068473E-17	1.026944E-17
7.545750E+03	6.069501E-17	1.028331E-17
7.555652E+03	6.070522E-17	1.029768E-17
7.565555E+03	6.071408E-17	1.031230E-17
7.575457E+03	6.072467E-17	1.032770E-17
7.585360E+03	6.073578E-17	1.034365E-17
7.595263E+03	6.074763E-17	1.036020E-17
7.605165E+03	6.076047E-17	1.037737E-17
7.615068E+03	6.077453E-17	1.039519E-17
7.624970E+03	6.079000E-17	1.041370E-17
7.634873E+03	6.080851E-17	1.043315E-17
7.644775E+03	6.082721E-17	1.045306E-17
7.654678E+03	6.084911E-17	1.047394E-17
7.664581E+03	6.087273E-17	1.049552E-17
7.674483E+03	6.089797E-17	1.051778E-17
7.684386E+03	6.092473E-17	1.054070E-17
