#wls	flux	fluxerr
1.584409E+03	5.745366E-17	4.272846E-18
1.624020E+03	5.987769E-17	4.453051E-18
1.663630E+03	6.212545E-17	4.620140E-18
1.703240E+03	6.414850E-17	4.770510E-18
1.742850E+03	6.592039E-17	4.902196E-18
1.782461E+03	6.736623E-17	5.009630E-18
1.822071E+03	6.840533E-17	5.086811E-18
1.861681E+03	6.895853E-17	5.127856E-18
1.901291E+03	6.892116E-17	5.124982E-18
1.940902E+03	6.822391E-17	5.073038E-18
1.980512E+03	6.684443E-17	4.970366E-18
2.020122E+03	6.488975E-17	4.824925E-18
2.059732E+03	6.262622E-17	4.656525E-18
2.099342E+03	6.049713E-17	4.498126E-18
2.138953E+03	5.897098E-17	4.384560E-18
2.178563E+03	5.829745E-17	4.334389E-18
2.218173E+03	5.838283E-17	4.340642E-18
2.257783E+03	5.887346E-17	4.377021E-18
2.297394E+03	5.935033E-17	4.412374E-18
2.337004E+03	5.951161E-17	4.424261E-18
2.376614E+03	5.918716E-17	4.400037E-18
2.416224E+03	5.832354E-17	4.335729E-18
2.455835E+03	5.694949E-17	4.233479E-18
2.495445E+03	5.511834E-17	4.097254E-18
2.535055E+03	5.290586E-17	3.932687E-18
2.574665E+03	5.038737E-17	3.745381E-18
2.614276E+03	4.763806E-17	3.540927E-18
2.653886E+03	4.472297E-17	3.324158E-18
2.693496E+03	4.170250E-17	3.099568E-18
2.733106E+03	3.863066E-17	2.871172E-18
2.772716E+03	3.555548E-17	2.642538E-18
2.812327E+03	3.252019E-17	2.416881E-18
2.851937E+03	2.956444E-17	2.197147E-18
2.891547E+03	2.672278E-17	1.985903E-18
2.931157E+03	2.402490E-17	1.785357E-18
2.970768E+03	2.149398E-17	1.597228E-18
2.980670E+03	2.088994E-17	1.552330E-18
2.990573E+03	2.029708E-17	1.508263E-18
3.000475E+03	1.971638E-17	1.465100E-18
3.010378E+03	1.914743E-17	1.422811E-18
3.020280E+03	1.859067E-17	1.381428E-18
3.030183E+03	1.804647E-17	1.340979E-18
3.040086E+03	1.751426E-17	1.301422E-18
3.049988E+03	1.699579E-17	1.262886E-18
3.059891E+03	1.649085E-17	1.225357E-18
3.069793E+03	1.599973E-17	1.188854E-18
3.079696E+03	1.552172E-17	1.153326E-18
3.089598E+03	1.505650E-17	1.118750E-18
3.099501E+03	1.460438E-17	1.085147E-18
3.109403E+03	1.416453E-17	1.052456E-18
3.119306E+03	1.373752E-17	1.020720E-18
3.129209E+03	1.332236E-17	9.898653E-19
3.139111E+03	1.291961E-17	9.599326E-19
3.149014E+03	1.252860E-17	9.308724E-19
3.158916E+03	1.214962E-17	9.027070E-19
3.168819E+03	1.178228E-17	8.754065E-19
3.178721E+03	1.142661E-17	8.489741E-19
3.188624E+03	1.108245E-17	8.233966E-19
3.198526E+03	1.074963E-17	7.986622E-19
3.208429E+03	1.042779E-17	7.747440E-19
3.218332E+03	1.011713E-17	7.516570E-19
3.228234E+03	9.817283E-18	7.293736E-19
3.238137E+03	9.528220E-18	7.078917E-19
3.248039E+03	9.249598E-18	6.871859E-19
3.257942E+03	8.981213E-18	6.672409E-19
3.267844E+03	8.723008E-18	6.480526E-19
3.277747E+03	8.474625E-18	6.295942E-19
3.287650E+03	8.235976E-18	6.118594E-19
3.297552E+03	8.006827E-18	5.948305E-19
3.307455E+03	7.786716E-18	5.784734E-19
3.317357E+03	7.575643E-18	5.627880E-19
3.327260E+03	7.373269E-18	5.477490E-19
3.337162E+03	7.179358E-18	5.333390E-19
3.347065E+03	6.993675E-18	5.195405E-19
3.356967E+03	6.815805E-18	5.063226E-19
3.366870E+03	6.645715E-18	4.936828E-19
3.376773E+03	6.483088E-18	4.815977E-19
3.386675E+03	6.327617E-18	4.700444E-19
3.396578E+03	6.179103E-18	4.590080E-19
3.406480E+03	6.037327E-18	4.484724E-19
3.416383E+03	5.901950E-18	4.384122E-19
3.426285E+03	5.772855E-18	4.288189E-19
3.436188E+03	5.649713E-18	4.196679E-19
3.446090E+03	5.532355E-18	4.109467E-19
3.455993E+03	5.420550E-18	4.026381E-19
3.465896E+03	5.314077E-18	3.947258E-19
3.475798E+03	5.212731E-18	3.871943E-19
3.485701E+03	5.116313E-18	3.800291E-19
3.495603E+03	5.024581E-18	3.732120E-19
3.505506E+03	4.937309E-18	3.667264E-19
3.515408E+03	4.854337E-18	3.605603E-19
3.525311E+03	4.775465E-18	3.546987E-19
3.535213E+03	4.700550E-18	3.491312E-19
3.545116E+03	4.629364E-18	3.438407E-19
3.555019E+03	4.561785E-18	3.388182E-19
3.564921E+03	4.497652E-18	3.340518E-19
3.574824E+03	4.436903E-18	3.295368E-19
3.584726E+03	4.379342E-18	3.252586E-19
3.594629E+03	4.324876E-18	3.212103E-19
3.604531E+03	4.273285E-18	3.173757E-19
3.614434E+03	4.224490E-18	3.137488E-19
3.624337E+03	4.178371E-18	3.103207E-19
3.634239E+03	4.134815E-18	3.070830E-19
3.644142E+03	4.093752E-18	3.040305E-19
3.654044E+03	4.055113E-18	3.011581E-19
3.663947E+03	4.018795E-18	2.984580E-19
3.673849E+03	3.984767E-18	2.959282E-19
3.683752E+03	3.952930E-18	2.935611E-19
3.693654E+03	3.923293E-18	2.913573E-19
3.703557E+03	3.895790E-18	2.893121E-19
3.713460E+03	3.870357E-18	2.874207E-19
3.723362E+03	3.846967E-18	2.856809E-19
3.733265E+03	3.825623E-18	2.840932E-19
3.743167E+03	3.806262E-18	2.826528E-19
3.753070E+03	3.788887E-18	2.813598E-19
3.762972E+03	3.773435E-18	2.802097E-19
3.772875E+03	3.759877E-18	2.792002E-19
3.782777E+03	3.748215E-18	2.783316E-19
3.792680E+03	3.738453E-18	2.776040E-19
3.802583E+03	3.730527E-18	2.770128E-19
3.812485E+03	3.724472E-18	2.765605E-19
3.822388E+03	3.720196E-18	2.762403E-19
3.832290E+03	3.717763E-18	2.760570E-19
3.842193E+03	3.717084E-18	2.760039E-19
3.852095E+03	3.718219E-18	2.760856E-19
3.861998E+03	3.721111E-18	2.762976E-19
3.871900E+03	3.725761E-18	2.766402E-19
3.881803E+03	3.732140E-18	2.771112E-19
3.891706E+03	3.740249E-18	2.777106E-19
3.901608E+03	3.750059E-18	2.784363E-19
3.911511E+03	3.761602E-18	2.792906E-19
3.921413E+03	3.774819E-18	2.802692E-19
3.931316E+03	3.789711E-18	2.813722E-19
3.941218E+03	3.806249E-18	2.825973E-19
3.951121E+03	3.824466E-18	2.839471E-19
3.961024E+03	3.844333E-18	2.854193E-19
3.970926E+03	3.865822E-18	2.870120E-19
3.980829E+03	3.888904E-18	2.887229E-19
3.990731E+03	3.913614E-18	2.905546E-19
4.000634E+03	3.939893E-18	2.925027E-19
4.010536E+03	3.967776E-18	2.945699E-19
4.020439E+03	3.997206E-18	2.967519E-19
4.030341E+03	4.028187E-18	2.990490E-19
4.040244E+03	4.060727E-18	3.014618E-19
4.050147E+03	4.094798E-18	3.039882E-19
4.060049E+03	4.130377E-18	3.066265E-19
4.069952E+03	4.167439E-18	3.093748E-19
4.079854E+03	4.206024E-18	3.122362E-19
4.089757E+03	4.246075E-18	3.152064E-19
4.099659E+03	4.287604E-18	3.182861E-19
4.109562E+03	4.330552E-18	3.214712E-19
4.119464E+03	4.374927E-18	3.247622E-19
4.129367E+03	4.420742E-18	3.281599E-19
4.139270E+03	4.467938E-18	3.316601E-19
4.149172E+03	4.516526E-18	3.352636E-19
4.159075E+03	4.566445E-18	3.389658E-19
4.168977E+03	4.617708E-18	3.427677E-19
4.178880E+03	4.670252E-18	3.466646E-19
4.188782E+03	4.724087E-18	3.506573E-19
4.198685E+03	4.779150E-18	3.547410E-19
4.208587E+03	4.835412E-18	3.589137E-19
4.218490E+03	4.892805E-18	3.631702E-19
4.228393E+03	4.951334E-18	3.675110E-19
4.238295E+03	5.010928E-18	3.719307E-19
4.248198E+03	5.071551E-18	3.764268E-19
4.258100E+03	5.133124E-18	3.809932E-19
4.268003E+03	5.195564E-18	3.856239E-19
4.277905E+03	5.258825E-18	3.903155E-19
4.287808E+03	5.322857E-18	3.950643E-19
4.297711E+03	5.387567E-18	3.998632E-19
4.307613E+03	5.452897E-18	4.047081E-19
4.317516E+03	5.518745E-18	4.095913E-19
4.327418E+03	5.585089E-18	4.145113E-19
4.337321E+03	5.651865E-18	4.194633E-19
4.347223E+03	5.719144E-18	4.244524E-19
4.357126E+03	5.786858E-18	4.294738E-19
4.367028E+03	5.855039E-18	4.345298E-19
4.376931E+03	5.923667E-18	4.396188E-19
4.386834E+03	5.992827E-18	4.447472E-19
4.396736E+03	6.062455E-18	4.499102E-19
4.406639E+03	6.132540E-18	4.551072E-19
4.416541E+03	6.203125E-18	4.603411E-19
4.426444E+03	6.274191E-18	4.656106E-19
4.436346E+03	6.345753E-18	4.709168E-19
4.446249E+03	6.417730E-18	4.762538E-19
4.456151E+03	6.490189E-18	4.816264E-19
4.466054E+03	6.563064E-18	4.870298E-19
4.475957E+03	6.636352E-18	4.924638E-19
4.485859E+03	6.710061E-18	4.979289E-19
4.495762E+03	6.784078E-18	5.034167E-19
4.505664E+03	6.858458E-18	5.089315E-19
4.515567E+03	6.933151E-18	5.144693E-19
4.525469E+03	7.008168E-18	5.200312E-19
4.535372E+03	7.083397E-18	5.256086E-19
4.545274E+03	7.158906E-18	5.312067E-19
4.555177E+03	7.234592E-18	5.368179E-19
4.565080E+03	7.310537E-18	5.424482E-19
4.574982E+03	7.386632E-18	5.480895E-19
4.584885E+03	7.462908E-18	5.537442E-19
4.594787E+03	7.539326E-18	5.594093E-19
4.604690E+03	7.615985E-18	5.650922E-19
4.614592E+03	7.692797E-18	5.707863E-19
4.624495E+03	7.769872E-18	5.764999E-19
4.634398E+03	7.847185E-18	5.822310E-19
4.644300E+03	7.924729E-18	5.879792E-19
4.654203E+03	8.002635E-18	5.937541E-19
4.664105E+03	8.080820E-18	5.995497E-19
4.674008E+03	8.159353E-18	6.053709E-19
4.683910E+03	8.238164E-18	6.112127E-19
4.693813E+03	8.317315E-18	6.170795E-19
4.703715E+03	8.396671E-18	6.229615E-19
4.713618E+03	8.476301E-18	6.288638E-19
4.723521E+03	8.556135E-18	6.347811E-19
4.733423E+03	8.636254E-18	6.407194E-19
4.743326E+03	8.716580E-18	6.466729E-19
4.753228E+03	8.797119E-18	6.526422E-19
4.763131E+03	8.877876E-18	6.586275E-19
4.773033E+03	8.958862E-18	6.646297E-19
4.782936E+03	9.040064E-18	6.706478E-19
4.792838E+03	9.121422E-18	6.766774E-19
4.802741E+03	9.203007E-18	6.827236E-19
4.812644E+03	9.284836E-18	6.887879E-19
4.822546E+03	9.366811E-18	6.948629E-19
4.832449E+03	9.448944E-18	7.009496E-19
4.842351E+03	9.531325E-18	7.070545E-19
4.852254E+03	9.613758E-18	7.131632E-19
4.862156E+03	9.696430E-18	7.192894E-19
4.872059E+03	9.779236E-18	7.254255E-19
4.881961E+03	9.862077E-18	7.315641E-19
4.891864E+03	9.945030E-18	7.377108E-19
4.901767E+03	1.002807E-17	7.438642E-19
4.911669E+03	1.011108E-17	7.500145E-19
4.921572E+03	1.019412E-17	7.561673E-19
4.931474E+03	1.027695E-17	7.623048E-19
4.941377E+03	1.035974E-17	7.684387E-19
4.951279E+03	1.044232E-17	7.745575E-19
4.961182E+03	1.052454E-17	7.806488E-19
4.971085E+03	1.060644E-17	7.867163E-19
4.980987E+03	1.068783E-17	7.927459E-19
4.990890E+03	1.076863E-17	7.987319E-19
5.000792E+03	1.084876E-17	8.046679E-19
5.010695E+03	1.092812E-17	8.105469E-19
5.020597E+03	1.100649E-17	8.163524E-19
5.030500E+03	1.108388E-17	8.220849E-19
5.040402E+03	1.116007E-17	8.277278E-19
5.050305E+03	1.123492E-17	8.332717E-19
5.060208E+03	1.130821E-17	8.387000E-19
5.070110E+03	1.137992E-17	8.440106E-19
5.080013E+03	1.144970E-17	8.491780E-19
5.089915E+03	1.151762E-17	8.542073E-19
5.099818E+03	1.158334E-17	8.590736E-19
5.109720E+03	1.164682E-17	8.637735E-19
5.119623E+03	1.170781E-17	8.682889E-19
5.129525E+03	1.176605E-17	8.726002E-19
5.139428E+03	1.182152E-17	8.767058E-19
5.149331E+03	1.187396E-17	8.805862E-19
5.159233E+03	1.192321E-17	8.842303E-19
5.169136E+03	1.196912E-17	8.876268E-19
5.179038E+03	1.201143E-17	8.907559E-19
5.188941E+03	1.204997E-17	8.936057E-19
5.198843E+03	1.208449E-17	8.961567E-19
5.208746E+03	1.211493E-17	8.984058E-19
5.218648E+03	1.214103E-17	9.003326E-19
5.228551E+03	1.216263E-17	9.019260E-19
5.238454E+03	1.217959E-17	9.031749E-19
5.248356E+03	1.219164E-17	9.040597E-19
5.258259E+03	1.219865E-17	9.045708E-19
5.268161E+03	1.220048E-17	9.046979E-19
5.278064E+03	1.219703E-17	9.044334E-19
5.287966E+03	1.218808E-17	9.037611E-19
5.297869E+03	1.217368E-17	9.026846E-19
5.307772E+03	1.215378E-17	9.011997E-19
5.317674E+03	1.212833E-17	8.993042E-19
5.327577E+03	1.209723E-17	8.969892E-19
5.337479E+03	1.206076E-17	8.942759E-19
5.347382E+03	1.201885E-17	8.911601E-19
5.357284E+03	1.197187E-17	8.876675E-19
5.367187E+03	1.191983E-17	8.838001E-19
5.377089E+03	1.186304E-17	8.795805E-19
5.386992E+03	1.180171E-17	8.750247E-19
5.396895E+03	1.173636E-17	8.701707E-19
5.406797E+03	1.166716E-17	8.650315E-19
5.416700E+03	1.159434E-17	8.596238E-19
5.426602E+03	1.151803E-17	8.539576E-19
5.436505E+03	1.143866E-17	8.480641E-19
5.446407E+03	1.135642E-17	8.419582E-19
5.456310E+03	1.127166E-17	8.356657E-19
5.466212E+03	1.118476E-17	8.292149E-19
5.476115E+03	1.109612E-17	8.226349E-19
5.486018E+03	1.100613E-17	8.159547E-19
5.495920E+03	1.091530E-17	8.092130E-19
5.505823E+03	1.082406E-17	8.024407E-19
5.515725E+03	1.073301E-17	7.956826E-19
5.525628E+03	1.064244E-17	7.889600E-19
5.535530E+03	1.055303E-17	7.823236E-19
5.545433E+03	1.046504E-17	7.757923E-19
5.555335E+03	1.037899E-17	7.694049E-19
5.565238E+03	1.029538E-17	7.631992E-19
5.575141E+03	1.021436E-17	7.571856E-19
5.585043E+03	1.013659E-17	7.514122E-19
5.594946E+03	1.006223E-17	7.458922E-19
5.604848E+03	9.991431E-18	7.406363E-19
5.614751E+03	9.924728E-18	7.356840E-19
5.624653E+03	9.862080E-18	7.310324E-19
5.634556E+03	9.803736E-18	7.266999E-19
5.644459E+03	9.749923E-18	7.227033E-19
5.654361E+03	9.700718E-18	7.190483E-19
5.664264E+03	9.656185E-18	7.157398E-19
5.674166E+03	9.616375E-18	7.127813E-19
5.684069E+03	9.581426E-18	7.101832E-19
5.693971E+03	9.551444E-18	7.079533E-19
5.703874E+03	9.526252E-18	7.060784E-19
5.713776E+03	9.506162E-18	7.045817E-19
5.723679E+03	9.490983E-18	7.034491E-19
5.733582E+03	9.480931E-18	7.026963E-19
5.743484E+03	9.475910E-18	7.023166E-19
5.753387E+03	9.476048E-18	7.023191E-19
5.763289E+03	9.481359E-18	7.027050E-19
5.773192E+03	9.491976E-18	7.034842E-19
5.783094E+03	9.507834E-18	7.046517E-19
5.792997E+03	9.528940E-18	7.062082E-19
5.802899E+03	9.555448E-18	7.081649E-19
5.812802E+03	9.587477E-18	7.105308E-19
5.822705E+03	9.624858E-18	7.132932E-19
5.832607E+03	9.667819E-18	7.164691E-19
5.842510E+03	9.716280E-18	7.200524E-19
5.852412E+03	9.770360E-18	7.240521E-19
5.862315E+03	9.830075E-18	7.284693E-19
5.872217E+03	9.895309E-18	7.332954E-19
5.882120E+03	9.966168E-18	7.385382E-19
5.892022E+03	1.004264E-17	7.441967E-19
5.901925E+03	1.012456E-17	7.502592E-19
5.911828E+03	1.021214E-17	7.567403E-19
5.921730E+03	1.030506E-17	7.636174E-19
5.931633E+03	1.040338E-17	7.708941E-19
5.941535E+03	1.050699E-17	7.785633E-19
5.951438E+03	1.061567E-17	7.866075E-19
5.961340E+03	1.072940E-17	7.950256E-19
5.971243E+03	1.084778E-17	8.037884E-19
5.981146E+03	1.097089E-17	8.129008E-19
5.991048E+03	1.109826E-17	8.223292E-19
6.000951E+03	1.122981E-17	8.320670E-19
6.010853E+03	1.136515E-17	8.420854E-19
6.020756E+03	1.150402E-17	8.523648E-19
6.030658E+03	1.164598E-17	8.628733E-19
6.040561E+03	1.179057E-17	8.735765E-19
6.050463E+03	1.193760E-17	8.844597E-19
6.060366E+03	1.208626E-17	8.954639E-19
6.070269E+03	1.223632E-17	9.065717E-19
6.080171E+03	1.238710E-17	9.177318E-19
6.090074E+03	1.253817E-17	9.289142E-19
6.099976E+03	1.268854E-17	9.400434E-19
6.109879E+03	1.283792E-17	9.510997E-19
6.119781E+03	1.298544E-17	9.620179E-19
6.129684E+03	1.313055E-17	9.727567E-19
6.139586E+03	1.327252E-17	9.832632E-19
6.149489E+03	1.341135E-17	9.935366E-19
6.159392E+03	1.354723E-17	1.003591E-18
6.169294E+03	1.368044E-17	1.013448E-18
6.179197E+03	1.381132E-17	1.023132E-18
6.189099E+03	1.393971E-17	1.032631E-18
6.199002E+03	1.406644E-17	1.042007E-18
6.208904E+03	1.419125E-17	1.051241E-18
6.218807E+03	1.431466E-17	1.060371E-18
6.228709E+03	1.443707E-17	1.069426E-18
6.238612E+03	1.455829E-17	1.078393E-18
6.248515E+03	1.467875E-17	1.087304E-18
6.258417E+03	1.479871E-17	1.096177E-18
6.268320E+03	1.491843E-17	1.105032E-18
6.278222E+03	1.503778E-17	1.113860E-18
6.288125E+03	1.515704E-17	1.122681E-18
6.298027E+03	1.527632E-17	1.131503E-18
6.307930E+03	1.539569E-17	1.140332E-18
6.317833E+03	1.551504E-17	1.149158E-18
6.327735E+03	1.563421E-17	1.157972E-18
6.337638E+03	1.575308E-17	1.166763E-18
6.347540E+03	1.587172E-17	1.175537E-18
6.357443E+03	1.598996E-17	1.184281E-18
6.367345E+03	1.610717E-17	1.192948E-18
6.377248E+03	1.622409E-17	1.201594E-18
6.387150E+03	1.634078E-17	1.210223E-18
6.397053E+03	1.645756E-17	1.218857E-18
6.406956E+03	1.657498E-17	1.227540E-18
6.416858E+03	1.669288E-17	1.236257E-18
6.426761E+03	1.681186E-17	1.245055E-18
6.436663E+03	1.693199E-17	1.253937E-18
6.446566E+03	1.705364E-17	1.262932E-18
6.456468E+03	1.717638E-17	1.272007E-18
6.466371E+03	1.730109E-17	1.281228E-18
6.476273E+03	1.742733E-17	1.290562E-18
6.486176E+03	1.755546E-17	1.300036E-18
6.496079E+03	1.768557E-17	1.309656E-18
6.505981E+03	1.781748E-17	1.319410E-18
6.515884E+03	1.795153E-17	1.329321E-18
6.525786E+03	1.808783E-17	1.339399E-18
6.535689E+03	1.822615E-17	1.349627E-18
6.545591E+03	1.836659E-17	1.360011E-18
6.555494E+03	1.850919E-17	1.370555E-18
6.565396E+03	1.865433E-17	1.381287E-18
6.575299E+03	1.880149E-17	1.392168E-18
6.585202E+03	1.895100E-17	1.403222E-18
6.595104E+03	1.910295E-17	1.414458E-18
6.605007E+03	1.925705E-17	1.425852E-18
6.614909E+03	1.941367E-17	1.437433E-18
6.624812E+03	1.957255E-17	1.449180E-18
6.634714E+03	1.973405E-17	1.461122E-18
6.644617E+03	1.989754E-17	1.473210E-18
6.654520E+03	2.006338E-17	1.485473E-18
6.664422E+03	2.023197E-17	1.497938E-18
6.674325E+03	2.040264E-17	1.510558E-18
6.684227E+03	2.057577E-17	1.523359E-18
6.694130E+03	2.075105E-17	1.536319E-18
6.704032E+03	2.092885E-17	1.549466E-18
6.713935E+03	2.110886E-17	1.562776E-18
6.723837E+03	2.129108E-17	1.576249E-18
6.733740E+03	2.147594E-17	1.589917E-18
6.743643E+03	2.166269E-17	1.603725E-18
6.753545E+03	2.185212E-17	1.617732E-18
6.763448E+03	2.204348E-17	1.631880E-18
6.773350E+03	2.223757E-17	1.646231E-18
6.783253E+03	2.243360E-17	1.660725E-18
6.793155E+03	2.263154E-17	1.675360E-18
6.803058E+03	2.283181E-17	1.690168E-18
6.812960E+03	2.303440E-17	1.705146E-18
6.822863E+03	2.323841E-17	1.720230E-18
6.832766E+03	2.344466E-17	1.735479E-18
6.842668E+03	2.365267E-17	1.750858E-18
6.852571E+03	2.386284E-17	1.766397E-18
6.862473E+03	2.407420E-17	1.782024E-18
6.872376E+03	2.428711E-17	1.797765E-18
6.882278E+03	2.450150E-17	1.813615E-18
6.892181E+03	2.471682E-17	1.829534E-18
6.902083E+03	2.493343E-17	1.845548E-18
6.911986E+03	2.515124E-17	1.861651E-18
6.921889E+03	2.536967E-17	1.877800E-18
6.931791E+03	2.558863E-17	1.893986E-18
6.941694E+03	2.580800E-17	1.910204E-18
6.951596E+03	2.602820E-17	1.926483E-18
6.961499E+03	2.624811E-17	1.942740E-18
6.971401E+03	2.646867E-17	1.959044E-18
6.981304E+03	2.668877E-17	1.975315E-18
6.991207E+03	2.690883E-17	1.991582E-18
7.001109E+03	2.712827E-17	2.007803E-18
7.011012E+03	2.734753E-17	2.024011E-18
7.020914E+03	2.756659E-17	2.040203E-18
7.030817E+03	2.778484E-17	2.056336E-18
7.040719E+03	2.800166E-17	2.072363E-18
7.050622E+03	2.821815E-17	2.088364E-18
7.060524E+03	2.843371E-17	2.104297E-18
7.070427E+03	2.864833E-17	2.120160E-18
7.080330E+03	2.886198E-17	2.135951E-18
7.090232E+03	2.907408E-17	2.151627E-18
7.100135E+03	2.928519E-17	2.167230E-18
7.110037E+03	2.949473E-17	2.182716E-18
7.119940E+03	2.970268E-17	2.198085E-18
7.129842E+03	2.990966E-17	2.213382E-18
7.139745E+03	3.011505E-17	2.228561E-18
7.149647E+03	3.031949E-17	2.243669E-18
7.159550E+03	3.052169E-17	2.258612E-18
7.169453E+03	3.072228E-17	2.273435E-18
7.179355E+03	3.092123E-17	2.288137E-18
7.189258E+03	3.111851E-17	2.302715E-18
7.199160E+03	3.131407E-17	2.317166E-18
7.209063E+03	3.150785E-17	2.331485E-18
7.218965E+03	3.169912E-17	2.345618E-18
7.228868E+03	3.188847E-17	2.359609E-18
7.238770E+03	3.207581E-17	2.373452E-18
7.248673E+03	3.226106E-17	2.387139E-18
7.258576E+03	3.244341E-17	2.400613E-18
7.268478E+03	3.262347E-17	2.413916E-18
7.278381E+03	3.280185E-17	2.427096E-18
7.288283E+03	3.297705E-17	2.440040E-18
7.298186E+03	3.314968E-17	2.452794E-18
7.308088E+03	3.331967E-17	2.465352E-18
7.317991E+03	3.348772E-17	2.477768E-18
7.327894E+03	3.365303E-17	2.489981E-18
7.337796E+03	3.381635E-17	2.502046E-18
7.347699E+03	3.397844E-17	2.514020E-18
7.357601E+03	3.413858E-17	2.525850E-18
7.367504E+03	3.429837E-17	2.537655E-18
7.377406E+03	3.445634E-17	2.549325E-18
7.387309E+03	3.461337E-17	2.560925E-18
7.397211E+03	3.476876E-17	2.572404E-18
7.407114E+03	3.492344E-17	2.583831E-18
7.417017E+03	3.507591E-17	2.595094E-18
7.426919E+03	3.522708E-17	2.606262E-18
7.436822E+03	3.537706E-17	2.617342E-18
7.446724E+03	3.552513E-17	2.628280E-18
7.456627E+03	3.567302E-17	2.639206E-18
7.466529E+03	3.581914E-17	2.650000E-18
7.476432E+03	3.596437E-17	2.660729E-18
7.486334E+03	3.610793E-17	2.671335E-18
7.496237E+03	3.625071E-17	2.681883E-18
7.506140E+03	3.639188E-17	2.692313E-18
7.516042E+03	3.653233E-17	2.702689E-18
7.525945E+03	3.667121E-17	2.712949E-18
7.535847E+03	3.680851E-17	2.723093E-18
7.545750E+03	3.694512E-17	2.733186E-18
7.555652E+03	3.708012E-17	2.743160E-18
7.565555E+03	3.721349E-17	2.753013E-18
7.575457E+03	3.734605E-17	2.762808E-18
7.585360E+03	3.747685E-17	2.772472E-18
7.595263E+03	3.760671E-17	2.782067E-18
7.605165E+03	3.773370E-17	2.791450E-18
7.615068E+03	3.785954E-17	2.800748E-18
7.624970E+03	3.798411E-17	2.809952E-18
7.634873E+03	3.810634E-17	2.818983E-18
7.644775E+03	3.822702E-17	2.827900E-18
7.654678E+03	3.834502E-17	2.836620E-18
7.664581E+03	3.846018E-17	2.845129E-18
7.674483E+03	3.857325E-17	2.853484E-18
7.684386E+03	3.868405E-17	2.861671E-18
