#wls	flux	fluxerr
1.584409E+03	1.263084E-16	3.480965E-17
1.624020E+03	1.316601E-16	3.628405E-17
1.663630E+03	1.365939E-16	3.764325E-17
1.703240E+03	1.410283E-16	3.886477E-17
1.742850E+03	1.448625E-16	3.992081E-17
1.782461E+03	1.479569E-16	4.077297E-17
1.822071E+03	1.501189E-16	4.136814E-17
1.861681E+03	1.511624E-16	4.165503E-17
1.901291E+03	1.508839E-16	4.157763E-17
1.940902E+03	1.491090E-16	4.108787E-17
1.980512E+03	1.458172E-16	4.018012E-17
2.020122E+03	1.412248E-16	3.891401E-17
2.059732E+03	1.359372E-16	3.745637E-17
2.099342E+03	1.309418E-16	3.607928E-17
2.138953E+03	1.272273E-16	3.505515E-17
2.178563E+03	1.253374E-16	3.453377E-17
2.218173E+03	1.250477E-16	3.445327E-17
2.257783E+03	1.254987E-16	3.457683E-17
2.297394E+03	1.258462E-16	3.467186E-17
2.337004E+03	1.254426E-16	3.455994E-17
2.376614E+03	1.239230E-16	3.414057E-17
2.416224E+03	1.211721E-16	3.338195E-17
2.455835E+03	1.172452E-16	3.229937E-17
2.495445E+03	1.122824E-16	3.093147E-17
2.535055E+03	1.064545E-16	2.932530E-17
2.574665E+03	9.995026E-17	2.753290E-17
2.614276E+03	9.295245E-17	2.560460E-17
2.653886E+03	8.563280E-17	2.358772E-17
2.693496E+03	7.815023E-17	2.152607E-17
2.733106E+03	7.065521E-17	1.946107E-17
2.772716E+03	6.327371E-17	1.742745E-17
2.812327E+03	5.612155E-17	1.545709E-17
2.851937E+03	4.930509E-17	1.357929E-17
2.891547E+03	4.291487E-17	1.181899E-17
2.931157E+03	3.702597E-17	1.019684E-17
2.970768E+03	3.168936E-17	8.726876E-18
2.980670E+03	3.044466E-17	8.384035E-18
2.990573E+03	2.923618E-17	8.051172E-18
3.000475E+03	2.806443E-17	7.728428E-18
3.010378E+03	2.692911E-17	7.415721E-18
3.020280E+03	2.582992E-17	7.112968E-18
3.030183E+03	2.476705E-17	6.820221E-18
3.040086E+03	2.373981E-17	6.537290E-18
3.049988E+03	2.274962E-17	6.264568E-18
3.059891E+03	2.179614E-17	6.001958E-18
3.069793E+03	2.087872E-17	5.749282E-18
3.079696E+03	1.999625E-17	5.506233E-18
3.089598E+03	1.914809E-17	5.272634E-18
3.099501E+03	1.833318E-17	5.048197E-18
3.109403E+03	1.755055E-17	4.832652E-18
3.119306E+03	1.679956E-17	4.625820E-18
3.129209E+03	1.607893E-17	4.427354E-18
3.139111E+03	1.538835E-17	4.237165E-18
3.149014E+03	1.472658E-17	4.054912E-18
3.158916E+03	1.409298E-17	3.880418E-18
3.168819E+03	1.348663E-17	3.713430E-18
3.178721E+03	1.290665E-17	3.553704E-18
3.188624E+03	1.235236E-17	3.401055E-18
3.198526E+03	1.182287E-17	3.255237E-18
3.208429E+03	1.131710E-17	3.115953E-18
3.218332E+03	1.083477E-17	2.983124E-18
3.228234E+03	1.037446E-17	2.856361E-18
3.238137E+03	9.935848E-18	2.735574E-18
3.248039E+03	9.517776E-18	2.620444E-18
3.257942E+03	9.119593E-18	2.510792E-18
3.267844E+03	8.740633E-18	2.406435E-18
3.277747E+03	8.379845E-18	2.307082E-18
3.287650E+03	8.036731E-18	2.212596E-18
3.297552E+03	7.710531E-18	2.122769E-18
3.307455E+03	7.400409E-18	2.037370E-18
3.317357E+03	7.105670E-18	1.956208E-18
3.327260E+03	6.825640E-18	1.879096E-18
3.337162E+03	6.559758E-18	1.805881E-18
3.347065E+03	6.307210E-18	1.736338E-18
3.356967E+03	6.067561E-18	1.670347E-18
3.366870E+03	5.840060E-18	1.607701E-18
3.376773E+03	5.624154E-18	1.548249E-18
3.386675E+03	5.419378E-18	1.491862E-18
3.396578E+03	5.225013E-18	1.438342E-18
3.406480E+03	5.040710E-18	1.387592E-18
3.416383E+03	4.865935E-18	1.339467E-18
3.426285E+03	4.700077E-18	1.293796E-18
3.436188E+03	4.542837E-18	1.250499E-18
3.446090E+03	4.393658E-18	1.209422E-18
3.455993E+03	4.252177E-18	1.170465E-18
3.465896E+03	4.117996E-18	1.133518E-18
3.475798E+03	3.990608E-18	1.098441E-18
3.485701E+03	3.869719E-18	1.065154E-18
3.495603E+03	3.754923E-18	1.033544E-18
3.505506E+03	3.645849E-18	1.003511E-18
3.515408E+03	3.542187E-18	9.749668E-19
3.525311E+03	3.443576E-18	9.478142E-19
3.535213E+03	3.349721E-18	9.219710E-19
3.545116E+03	3.260312E-18	8.973521E-19
3.555019E+03	3.175128E-18	8.738963E-19
3.564921E+03	3.093925E-18	8.515368E-19
3.574824E+03	3.016450E-18	8.302038E-19
3.584726E+03	2.942522E-18	8.098477E-19
3.594629E+03	2.871968E-18	7.904204E-19
3.604531E+03	2.804571E-18	7.718624E-19
3.614434E+03	2.740256E-18	7.541529E-19
3.624337E+03	2.678820E-18	7.372362E-19
3.634239E+03	2.620169E-18	7.210861E-19
3.644142E+03	2.564186E-18	7.056707E-19
3.654044E+03	2.510756E-18	6.909582E-19
3.663947E+03	2.459791E-18	6.769244E-19
3.673849E+03	2.411223E-18	6.635505E-19
3.683752E+03	2.364903E-18	6.507955E-19
3.693654E+03	2.320808E-18	6.386533E-19
3.703557E+03	2.278815E-18	6.270896E-19
3.713460E+03	2.238864E-18	6.160879E-19
3.723362E+03	2.200893E-18	6.056314E-19
3.733265E+03	2.164787E-18	5.956883E-19
3.743167E+03	2.130526E-18	5.862533E-19
3.753070E+03	2.098019E-18	5.773008E-19
3.762972E+03	2.067210E-18	5.688159E-19
3.772875E+03	2.038030E-18	5.607792E-19
3.782777E+03	2.010429E-18	5.531773E-19
3.792680E+03	1.984341E-18	5.459921E-19
3.802583E+03	1.959719E-18	5.392102E-19
3.812485E+03	1.936502E-18	5.328149E-19
3.822388E+03	1.914662E-18	5.267987E-19
3.832290E+03	1.894140E-18	5.211453E-19
3.842193E+03	1.874882E-18	5.158395E-19
3.852095E+03	1.856848E-18	5.108710E-19
3.861998E+03	1.839987E-18	5.062251E-19
3.871900E+03	1.824280E-18	5.018967E-19
3.881803E+03	1.809676E-18	4.978719E-19
3.891706E+03	1.796146E-18	4.941425E-19
3.901608E+03	1.783641E-18	4.906952E-19
3.911511E+03	1.772121E-18	4.875191E-19
3.921413E+03	1.761584E-18	4.846134E-19
3.931316E+03	1.751963E-18	4.819599E-19
3.941218E+03	1.743247E-18	4.795551E-19
3.951121E+03	1.735397E-18	4.773888E-19
3.961024E+03	1.728392E-18	4.754546E-19
3.970926E+03	1.722207E-18	4.737464E-19
3.980829E+03	1.716799E-18	4.722518E-19
3.990731E+03	1.712158E-18	4.709682E-19
4.000634E+03	1.708255E-18	4.698875E-19
4.010536E+03	1.705071E-18	4.690047E-19
4.020439E+03	1.702577E-18	4.683114E-19
4.030341E+03	1.700743E-18	4.677999E-19
4.040244E+03	1.699567E-18	4.674693E-19
4.050147E+03	1.699011E-18	4.673091E-19
4.060049E+03	1.699059E-18	4.673152E-19
4.069952E+03	1.699700E-18	4.674841E-19
4.079854E+03	1.700897E-18	4.678060E-19
4.089757E+03	1.702650E-18	4.682807E-19
4.099659E+03	1.704924E-18	4.688987E-19
4.109562E+03	1.707709E-18	4.696570E-19
4.119464E+03	1.710995E-18	4.705532E-19
4.129367E+03	1.714747E-18	4.715775E-19
4.139270E+03	1.718971E-18	4.727314E-19
4.149172E+03	1.723620E-18	4.740022E-19
4.159075E+03	1.728713E-18	4.753950E-19
4.168977E+03	1.734204E-18	4.768971E-19
4.178880E+03	1.740086E-18	4.785067E-19
4.188782E+03	1.746342E-18	4.802189E-19
4.198685E+03	1.752964E-18	4.820317E-19
4.208587E+03	1.759908E-18	4.839330E-19
4.218490E+03	1.767183E-18	4.859252E-19
4.228393E+03	1.774756E-18	4.879992E-19
4.238295E+03	1.782597E-18	4.901467E-19
4.248198E+03	1.790700E-18	4.923663E-19
4.258100E+03	1.799048E-18	4.946531E-19
4.268003E+03	1.807596E-18	4.969946E-19
4.277905E+03	1.816325E-18	4.993857E-19
4.287808E+03	1.825216E-18	5.018213E-19
4.297711E+03	1.834252E-18	5.042968E-19
4.307613E+03	1.843415E-18	5.068067E-19
4.317516E+03	1.852699E-18	5.093502E-19
4.327418E+03	1.862090E-18	5.119226E-19
4.337321E+03	1.871567E-18	5.145187E-19
4.347223E+03	1.881160E-18	5.171465E-19
4.357126E+03	1.890850E-18	5.198007E-19
4.367028E+03	1.900637E-18	5.224815E-19
4.376931E+03	1.910536E-18	5.251928E-19
4.386834E+03	1.920548E-18	5.279350E-19
4.396736E+03	1.930656E-18	5.307036E-19
4.406639E+03	1.940880E-18	5.335040E-19
4.416541E+03	1.951207E-18	5.363323E-19
4.426444E+03	1.961641E-18	5.391900E-19
4.436346E+03	1.972184E-18	5.420773E-19
4.446249E+03	1.982811E-18	5.449877E-19
4.456151E+03	1.993542E-18	5.479266E-19
4.466054E+03	2.004371E-18	5.508919E-19
4.475957E+03	2.015286E-18	5.538809E-19
4.485859E+03	2.026295E-18	5.568956E-19
4.495762E+03	2.037375E-18	5.599296E-19
4.505664E+03	2.048536E-18	5.629856E-19
4.515567E+03	2.059789E-18	5.660666E-19
4.525469E+03	2.071129E-18	5.691715E-19
4.535372E+03	2.082532E-18	5.722935E-19
4.545274E+03	2.094013E-18	5.754367E-19
4.555177E+03	2.105567E-18	5.785998E-19
4.565080E+03	2.117194E-18	5.817827E-19
4.574982E+03	2.128908E-18	5.849892E-19
4.584885E+03	2.140691E-18	5.882145E-19
4.594787E+03	2.152559E-18	5.914630E-19
4.604690E+03	2.164513E-18	5.947350E-19
4.614592E+03	2.176553E-18	5.980304E-19
4.624495E+03	2.188682E-18	6.013499E-19
4.634398E+03	2.200901E-18	6.046940E-19
4.644300E+03	2.213211E-18	6.080630E-19
4.654203E+03	2.225657E-18	6.114690E-19
4.664105E+03	2.238241E-18	6.149127E-19
4.674008E+03	2.250969E-18	6.183955E-19
4.683910E+03	2.263886E-18	6.219304E-19
4.693813E+03	2.276980E-18	6.255135E-19
4.703715E+03	2.290257E-18	6.291465E-19
4.713618E+03	2.303745E-18	6.328373E-19
4.723521E+03	2.317452E-18	6.365881E-19
4.733423E+03	2.331367E-18	6.403957E-19
4.743326E+03	2.345519E-18	6.442681E-19
4.753228E+03	2.359918E-18	6.482081E-19
4.763131E+03	2.374552E-18	6.522124E-19
4.773033E+03	2.389454E-18	6.562900E-19
4.782936E+03	2.404633E-18	6.604435E-19
4.792838E+03	2.420100E-18	6.646758E-19
4.802741E+03	2.435870E-18	6.689907E-19
4.812644E+03	2.451928E-18	6.733848E-19
4.822546E+03	2.468333E-18	6.778737E-19
4.832449E+03	2.485052E-18	6.824485E-19
4.842351E+03	2.502096E-18	6.871123E-19
4.852254E+03	2.519502E-18	6.918752E-19
4.862156E+03	2.537281E-18	6.967401E-19
4.872059E+03	2.555449E-18	7.017114E-19
4.881961E+03	2.573969E-18	7.067791E-19
4.891864E+03	2.592901E-18	7.119597E-19
4.901767E+03	2.612237E-18	7.172505E-19
4.911669E+03	2.631986E-18	7.226547E-19
4.921572E+03	2.652163E-18	7.281759E-19
4.931474E+03	2.672781E-18	7.338176E-19
4.941377E+03	2.693824E-18	7.395760E-19
4.951279E+03	2.715308E-18	7.454546E-19
4.961182E+03	2.737268E-18	7.514637E-19
4.971085E+03	2.759691E-18	7.575994E-19
4.980987E+03	2.782561E-18	7.638574E-19
4.990890E+03	2.805943E-18	7.702554E-19
5.000792E+03	2.829766E-18	7.767741E-19
5.010695E+03	2.854094E-18	7.834310E-19
5.020597E+03	2.878939E-18	7.902291E-19
5.030500E+03	2.904225E-18	7.971480E-19
5.040402E+03	2.930045E-18	8.042127E-19
5.050305E+03	2.956351E-18	8.114104E-19
5.060208E+03	2.983150E-18	8.187430E-19
5.070110E+03	3.010479E-18	8.262204E-19
5.080013E+03	3.038286E-18	8.338283E-19
5.089915E+03	3.066575E-18	8.415681E-19
5.099818E+03	3.095382E-18	8.494494E-19
5.109720E+03	3.124681E-18	8.574651E-19
5.119623E+03	3.154475E-18	8.656160E-19
5.129525E+03	3.184737E-18	8.738947E-19
5.139428E+03	3.215497E-18	8.823094E-19
5.149331E+03	3.246695E-18	8.908437E-19
5.159233E+03	3.278393E-18	8.995146E-19
5.169136E+03	3.310558E-18	9.083128E-19
5.179038E+03	3.343155E-18	9.172290E-19
5.188941E+03	3.376181E-18	9.262622E-19
5.198843E+03	3.409662E-18	9.354193E-19
5.208746E+03	3.443526E-18	9.446810E-19
5.218648E+03	3.477797E-18	9.540536E-19
5.228551E+03	3.512502E-18	9.635443E-19
5.238454E+03	3.547527E-18	9.731222E-19
5.248356E+03	3.582962E-18	9.828117E-19
5.258259E+03	3.618687E-18	9.925801E-19
5.268161E+03	3.654796E-18	1.002453E-18
5.278064E+03	3.691162E-18	1.012395E-18
5.287966E+03	3.727838E-18	1.022422E-18
5.297869E+03	3.764803E-18	1.032528E-18
5.307772E+03	3.801998E-18	1.042695E-18
5.317674E+03	3.839475E-18	1.052939E-18
5.327577E+03	3.877090E-18	1.063220E-18
5.337479E+03	3.914933E-18	1.073562E-18
5.347382E+03	3.952933E-18	1.083947E-18
5.357284E+03	3.991061E-18	1.094366E-18
5.367187E+03	4.029280E-18	1.104809E-18
5.377089E+03	4.067553E-18	1.115266E-18
5.386992E+03	4.105802E-18	1.125715E-18
5.396895E+03	4.143985E-18	1.136145E-18
5.406797E+03	4.182057E-18	1.146544E-18
5.416700E+03	4.219970E-18	1.156899E-18
5.426602E+03	4.257635E-18	1.167184E-18
5.436505E+03	4.294956E-18	1.177375E-18
5.446407E+03	4.331922E-18	1.187467E-18
5.456310E+03	4.368432E-18	1.197433E-18
5.466212E+03	4.404384E-18	1.207245E-18
5.476115E+03	4.439672E-18	1.216875E-18
5.486018E+03	4.474276E-18	1.226316E-18
5.495920E+03	4.508041E-18	1.235526E-18
5.505823E+03	4.540947E-18	1.244500E-18
5.515725E+03	4.572835E-18	1.253193E-18
5.525628E+03	4.603633E-18	1.261588E-18
5.535530E+03	4.633320E-18	1.269676E-18
5.545433E+03	4.661734E-18	1.277416E-18
5.555335E+03	4.688855E-18	1.284800E-18
5.565238E+03	4.714614E-18	1.291810E-18
5.575141E+03	4.738900E-18	1.298416E-18
5.585043E+03	4.761647E-18	1.304599E-18
5.594946E+03	4.782842E-18	1.310357E-18
5.604848E+03	4.802429E-18	1.315673E-18
5.614751E+03	4.820303E-18	1.320519E-18
5.624653E+03	4.836462E-18	1.324895E-18
5.634556E+03	4.850911E-18	1.328802E-18
5.644459E+03	4.863503E-18	1.332200E-18
5.654361E+03	4.874255E-18	1.335093E-18
5.664264E+03	4.883182E-18	1.337485E-18
5.674166E+03	4.890258E-18	1.339370E-18
5.684069E+03	4.895459E-18	1.340742E-18
5.693971E+03	4.898771E-18	1.341595E-18
5.703874E+03	4.900183E-18	1.341928E-18
5.713776E+03	4.899742E-18	1.341753E-18
5.723679E+03	4.897397E-18	1.341057E-18
5.733582E+03	4.893260E-18	1.339869E-18
5.743484E+03	4.887291E-18	1.338180E-18
5.753387E+03	4.879510E-18	1.335995E-18
5.763289E+03	4.870046E-18	1.333348E-18
5.773192E+03	4.858827E-18	1.330221E-18
5.783094E+03	4.845937E-18	1.326637E-18
5.792997E+03	4.831471E-18	1.322621E-18
5.802899E+03	4.815422E-18	1.318172E-18
5.812802E+03	4.797894E-18	1.313318E-18
5.822705E+03	4.778886E-18	1.308059E-18
5.832607E+03	4.758562E-18	1.302440E-18
5.842510E+03	4.736931E-18	1.296464E-18
5.852412E+03	4.714057E-18	1.290147E-18
5.862315E+03	4.690059E-18	1.283524E-18
5.872217E+03	4.664953E-18	1.276597E-18
5.882120E+03	4.638864E-18	1.269402E-18
5.892022E+03	4.611808E-18	1.261942E-18
5.901925E+03	4.583912E-18	1.254254E-18
5.911828E+03	4.555251E-18	1.246356E-18
5.921730E+03	4.525896E-18	1.238268E-18
5.931633E+03	4.495866E-18	1.229997E-18
5.941535E+03	4.465291E-18	1.221576E-18
5.951438E+03	4.434238E-18	1.213026E-18
5.961340E+03	4.402727E-18	1.204351E-18
5.971243E+03	4.370878E-18	1.195584E-18
5.981146E+03	4.338710E-18	1.186730E-18
5.991048E+03	4.306236E-18	1.177792E-18
6.000951E+03	4.273620E-18	1.168817E-18
6.010853E+03	4.240824E-18	1.159793E-18
6.020756E+03	4.207957E-18	1.150750E-18
6.030658E+03	4.174976E-18	1.141677E-18
6.040561E+03	4.141985E-18	1.132602E-18
6.050463E+03	4.108988E-18	1.123525E-18
6.060366E+03	4.076035E-18	1.114461E-18
6.070269E+03	4.043170E-18	1.105422E-18
6.080171E+03	4.010391E-18	1.096407E-18
6.090074E+03	3.977739E-18	1.087427E-18
6.099976E+03	3.945254E-18	1.078494E-18
6.109879E+03	3.912975E-18	1.069617E-18
6.119781E+03	3.880933E-18	1.060806E-18
6.129684E+03	3.849113E-18	1.052056E-18
6.139586E+03	3.817593E-18	1.043389E-18
6.149489E+03	3.786400E-18	1.034812E-18
6.159392E+03	3.755559E-18	1.026331E-18
6.169294E+03	3.725139E-18	1.017966E-18
6.179197E+03	3.695209E-18	1.009736E-18
6.189099E+03	3.665836E-18	1.001659E-18
6.199002E+03	3.637082E-18	9.937511E-19
6.208904E+03	3.609010E-18	9.860302E-19
6.218807E+03	3.581725E-18	9.785250E-19
6.228709E+03	3.555189E-18	9.712249E-19
6.238612E+03	3.529604E-18	9.641851E-19
6.248515E+03	3.504927E-18	9.573938E-19
6.258417E+03	3.481259E-18	9.508788E-19
6.268320E+03	3.458653E-18	9.446542E-19
6.278222E+03	3.437160E-18	9.387340E-19
6.288125E+03	3.416784E-18	9.331192E-19
6.298027E+03	3.397575E-18	9.278235E-19
6.307930E+03	3.379584E-18	9.228608E-19
6.317833E+03	3.362811E-18	9.182309E-19
6.327735E+03	3.347259E-18	9.139349E-19
6.337638E+03	3.332979E-18	9.099861E-19
6.347540E+03	3.319874E-18	9.063587E-19
6.357443E+03	3.307947E-18	9.030528E-19
6.367345E+03	3.297150E-18	9.000556E-19
6.377248E+03	3.287388E-18	8.973409E-19
6.387150E+03	3.278708E-18	8.949219E-19
6.397053E+03	3.271016E-18	8.927724E-19
6.406956E+03	3.264358E-18	8.909054E-19
6.416858E+03	3.258738E-18	8.893214E-19
6.426761E+03	3.254107E-18	8.880072E-19
6.436663E+03	3.250464E-18	8.869628E-19
6.446566E+03	3.247811E-18	8.861883E-19
6.456468E+03	3.246149E-18	8.856840E-19
6.466371E+03	3.245479E-18	8.854503E-19
6.476273E+03	3.245852E-18	8.855010E-19
6.486176E+03	3.247222E-18	8.858235E-19
6.496079E+03	3.249538E-18	8.864036E-19
6.505981E+03	3.252903E-18	8.872697E-19
6.515884E+03	3.257218E-18	8.883946E-19
6.525786E+03	3.262537E-18	8.897930E-19
6.535689E+03	3.268863E-18	8.914655E-19
6.545591E+03	3.276200E-18	8.934133E-19
6.555494E+03	3.284550E-18	8.956371E-19
6.565396E+03	3.293863E-18	8.981228E-19
6.575299E+03	3.304197E-18	9.008867E-19
6.585202E+03	3.315503E-18	9.039146E-19
6.595104E+03	3.327838E-18	9.072229E-19
6.605007E+03	3.341153E-18	9.107974E-19
6.614909E+03	3.355452E-18	9.146396E-19
6.624812E+03	3.370796E-18	9.187660E-19
6.634714E+03	3.387191E-18	9.231780E-19
6.644617E+03	3.404528E-18	9.278462E-19
6.654520E+03	3.422930E-18	9.328037E-19
6.664422E+03	3.442282E-18	9.380194E-19
6.674325E+03	3.462713E-18	9.435280E-19
6.684227E+03	3.484167E-18	9.493146E-19
6.694130E+03	3.506590E-18	9.553642E-19
6.704032E+03	3.530112E-18	9.617125E-19
6.713935E+03	3.554617E-18	9.683272E-19
6.723837E+03	3.580172E-18	9.752272E-19
6.733740E+03	3.606786E-18	9.824143E-19
6.743643E+03	3.634467E-18	9.898910E-19
6.753545E+03	3.663157E-18	9.976414E-19
6.763448E+03	3.692929E-18	1.005685E-18
6.773350E+03	3.723723E-18	1.014006E-18
6.783253E+03	3.755616E-18	1.022625E-18
6.793155E+03	3.788546E-18	1.031524E-18
6.803058E+03	3.822519E-18	1.040707E-18
6.812960E+03	3.857615E-18	1.050194E-18
6.822863E+03	3.893697E-18	1.059947E-18
6.832766E+03	3.930917E-18	1.070009E-18
6.842668E+03	3.969209E-18	1.080362E-18
6.852571E+03	4.008581E-18	1.091006E-18
6.862473E+03	4.049041E-18	1.101945E-18
6.872376E+03	4.090593E-18	1.113180E-18
6.882278E+03	4.133167E-18	1.124691E-18
6.892181E+03	4.176846E-18	1.136501E-18
6.902083E+03	4.221640E-18	1.148612E-18
6.911986E+03	4.267551E-18	1.161025E-18
6.921889E+03	4.314422E-18	1.173698E-18
6.931791E+03	4.362508E-18	1.186699E-18
6.941694E+03	4.411559E-18	1.199961E-18
6.951596E+03	4.461749E-18	1.213531E-18
6.961499E+03	4.512997E-18	1.227386E-18
6.971401E+03	4.565306E-18	1.241528E-18
6.981304E+03	4.618677E-18	1.255956E-18
6.991207E+03	4.673115E-18	1.270672E-18
7.001109E+03	4.728525E-18	1.285651E-18
7.011012E+03	4.785002E-18	1.300917E-18
7.020914E+03	4.842546E-18	1.316471E-18
7.030817E+03	4.901060E-18	1.332286E-18
7.040719E+03	4.960642E-18	1.348389E-18
7.050622E+03	5.021190E-18	1.364752E-18
7.060524E+03	5.082698E-18	1.381374E-18
7.070427E+03	5.145162E-18	1.398252E-18
7.080330E+03	5.208685E-18	1.415416E-18
7.090232E+03	5.273047E-18	1.432806E-18
7.100135E+03	5.338237E-18	1.450417E-18
7.110037E+03	5.404467E-18	1.468309E-18
7.119940E+03	5.471507E-18	1.486418E-18
7.129842E+03	5.539343E-18	1.504740E-18
7.139745E+03	5.608077E-18	1.523303E-18
7.149647E+03	5.677581E-18	1.542073E-18
7.159550E+03	5.747837E-18	1.561044E-18
7.169453E+03	5.818830E-18	1.580212E-18
7.179355E+03	5.890541E-18	1.599573E-18
7.189258E+03	5.963079E-18	1.619155E-18
7.199160E+03	6.036170E-18	1.638884E-18
7.209063E+03	6.110051E-18	1.658824E-18
7.218965E+03	6.184575E-18	1.678936E-18
7.228868E+03	6.259715E-18	1.699212E-18
7.238770E+03	6.335589E-18	1.719684E-18
7.248673E+03	6.412036E-18	1.740309E-18
7.258576E+03	6.489176E-18	1.761118E-18
7.268478E+03	6.566987E-18	1.782107E-18
7.278381E+03	6.645600E-18	1.803309E-18
7.288283E+03	6.724997E-18	1.824721E-18
7.298186E+03	6.805321E-18	1.846382E-18
7.308088E+03	6.886405E-18	1.868245E-18
7.317991E+03	6.968711E-18	1.890437E-18
7.327894E+03	7.052244E-18	1.912958E-18
7.337796E+03	7.136848E-18	1.935766E-18
7.347699E+03	7.223022E-18	1.958996E-18
7.357601E+03	7.310618E-18	1.982608E-18
7.367504E+03	7.399824E-18	2.006653E-18
7.377406E+03	7.490485E-18	2.031090E-18
7.387309E+03	7.582794E-18	2.055969E-18
7.397211E+03	7.676229E-18	2.081150E-18
7.407114E+03	7.771157E-18	2.106731E-18
7.417017E+03	7.867027E-18	2.132565E-18
7.426919E+03	7.964015E-18	2.158697E-18
7.436822E+03	8.061925E-18	2.185076E-18
7.446724E+03	8.160545E-18	2.211642E-18
7.456627E+03	8.260047E-18	2.238444E-18
7.466529E+03	8.359808E-18	2.265312E-18
7.476432E+03	8.460190E-18	2.292344E-18
7.486334E+03	8.560958E-18	2.319477E-18
7.496237E+03	8.662071E-18	2.346699E-18
7.506140E+03	8.763271E-18	2.373941E-18
7.516042E+03	8.864723E-18	2.401247E-18
7.525945E+03	8.966161E-18	2.428545E-18
7.535847E+03	9.067529E-18	2.455820E-18
7.545750E+03	9.168996E-18	2.483119E-18
7.555652E+03	9.270282E-18	2.510364E-18
7.565555E+03	9.371560E-18	2.537602E-18
7.575457E+03	9.472298E-18	2.564691E-18
7.585360E+03	9.572906E-18	2.591741E-18
7.595263E+03	9.673081E-18	2.618669E-18
7.605165E+03	9.773004E-18	2.645525E-18
7.615068E+03	9.872361E-18	2.672225E-18
7.624970E+03	9.971083E-18	2.698748E-18
7.634873E+03	1.006909E-17	2.725075E-18
7.644775E+03	1.016685E-17	2.751330E-18
7.654678E+03	1.026349E-17	2.777279E-18
7.664581E+03	1.035974E-17	2.803120E-18
7.674483E+03	1.045500E-17	2.828687E-18
7.684386E+03	1.054946E-17	2.854037E-18
