#wls	flux	fluxerr
1.584409E+03	5.491789E-17	0.000000E+00
1.624020E+03	5.742769E-17	0.000000E+00
1.663630E+03	5.980686E-17	0.000000E+00
1.703240E+03	6.201870E-17	0.000000E+00
1.742850E+03	6.402946E-17	0.000000E+00
1.782461E+03	6.577453E-17	0.000000E+00
1.822071E+03	6.717575E-17	0.000000E+00
1.861681E+03	6.814210E-17	0.000000E+00
1.901291E+03	6.857068E-17	0.000000E+00
1.940902E+03	6.837816E-17	0.000000E+00
1.980512E+03	6.753467E-17	0.000000E+00
2.020122E+03	6.612747E-17	0.000000E+00
2.059732E+03	6.442215E-17	0.000000E+00
2.099342E+03	6.287366E-17	0.000000E+00
2.138953E+03	6.197480E-17	0.000000E+00
2.178563E+03	6.202736E-17	0.000000E+00
2.218173E+03	6.296532E-17	0.000000E+00
2.257783E+03	6.442394E-17	0.000000E+00
2.297394E+03	6.597553E-17	0.000000E+00
2.337004E+03	6.727185E-17	0.000000E+00
2.376614E+03	6.808979E-17	0.000000E+00
2.416224E+03	6.832109E-17	0.000000E+00
2.455835E+03	6.793830E-17	0.000000E+00
2.495445E+03	6.696567E-17	0.000000E+00
2.535055E+03	6.544573E-17	0.000000E+00
2.574665E+03	6.343815E-17	0.000000E+00
2.614276E+03	6.100106E-17	0.000000E+00
2.653886E+03	5.819057E-17	0.000000E+00
2.693496E+03	5.506956E-17	0.000000E+00
2.733106E+03	5.169614E-17	0.000000E+00
2.772716E+03	4.812952E-17	0.000000E+00
2.812327E+03	4.442879E-17	0.000000E+00
2.851937E+03	4.065575E-17	0.000000E+00
2.891547E+03	3.687912E-17	0.000000E+00
2.931157E+03	3.317254E-17	0.000000E+00
2.970768E+03	2.960141E-17	0.000000E+00
2.980670E+03	2.873609E-17	0.000000E+00
2.990573E+03	2.788437E-17	0.000000E+00
3.000475E+03	2.704535E-17	0.000000E+00
3.010378E+03	2.622015E-17	0.000000E+00
3.020280E+03	2.541030E-17	0.000000E+00
3.030183E+03	2.461500E-17	0.000000E+00
3.040086E+03	2.383595E-17	0.000000E+00
3.049988E+03	2.307429E-17	0.000000E+00
3.059891E+03	2.233103E-17	0.000000E+00
3.069793E+03	2.160588E-17	0.000000E+00
3.079696E+03	2.089946E-17	0.000000E+00
3.089598E+03	2.021109E-17	0.000000E+00
3.099501E+03	1.954094E-17	0.000000E+00
3.109403E+03	1.888881E-17	0.000000E+00
3.119306E+03	1.825451E-17	0.000000E+00
3.129209E+03	1.763822E-17	0.000000E+00
3.139111E+03	1.704005E-17	0.000000E+00
3.149014E+03	1.645916E-17	0.000000E+00
3.158916E+03	1.589627E-17	0.000000E+00
3.168819E+03	1.535084E-17	0.000000E+00
3.178721E+03	1.482289E-17	0.000000E+00
3.188624E+03	1.431215E-17	0.000000E+00
3.198526E+03	1.381811E-17	0.000000E+00
3.208429E+03	1.334120E-17	0.000000E+00
3.218332E+03	1.288042E-17	0.000000E+00
3.228234E+03	1.243612E-17	0.000000E+00
3.238137E+03	1.200791E-17	0.000000E+00
3.248039E+03	1.159507E-17	0.000000E+00
3.257942E+03	1.119780E-17	0.000000E+00
3.267844E+03	1.081536E-17	0.000000E+00
3.277747E+03	1.044755E-17	0.000000E+00
3.287650E+03	1.009399E-17	0.000000E+00
3.297552E+03	9.754431E-18	0.000000E+00
3.307455E+03	9.428317E-18	0.000000E+00
3.317357E+03	9.115275E-18	0.000000E+00
3.327260E+03	8.814907E-18	0.000000E+00
3.337162E+03	8.526947E-18	0.000000E+00
3.347065E+03	8.250885E-18	0.000000E+00
3.356967E+03	7.986335E-18	0.000000E+00
3.366870E+03	7.732925E-18	0.000000E+00
3.376773E+03	7.490191E-18	0.000000E+00
3.386675E+03	7.257776E-18	0.000000E+00
3.396578E+03	7.035333E-18	0.000000E+00
3.406480E+03	6.822438E-18	0.000000E+00
3.416383E+03	6.618765E-18	0.000000E+00
3.426285E+03	6.423923E-18	0.000000E+00
3.436188E+03	6.237537E-18	0.000000E+00
3.446090E+03	6.059249E-18	0.000000E+00
3.455993E+03	5.888650E-18	0.000000E+00
3.465896E+03	5.725495E-18	0.000000E+00
3.475798E+03	5.569407E-18	0.000000E+00
3.485701E+03	5.419987E-18	0.000000E+00
3.495603E+03	5.276806E-18	0.000000E+00
3.505506E+03	5.139633E-18	0.000000E+00
3.515408E+03	5.008092E-18	0.000000E+00
3.525311E+03	4.881740E-18	0.000000E+00
3.535213E+03	4.760316E-18	0.000000E+00
3.545116E+03	4.643534E-18	0.000000E+00
3.555019E+03	4.531082E-18	0.000000E+00
3.564921E+03	4.422634E-18	0.000000E+00
3.574824E+03	4.318052E-18	0.000000E+00
3.584726E+03	4.217123E-18	0.000000E+00
3.594629E+03	4.119647E-18	0.000000E+00
3.604531E+03	4.025618E-18	0.000000E+00
3.614434E+03	3.934909E-18	0.000000E+00
3.624337E+03	3.847429E-18	0.000000E+00
3.634239E+03	3.763118E-18	0.000000E+00
3.644142E+03	3.681910E-18	0.000000E+00
3.654044E+03	3.603704E-18	0.000000E+00
3.663947E+03	3.528486E-18	0.000000E+00
3.673849E+03	3.456118E-18	0.000000E+00
3.683752E+03	3.386550E-18	0.000000E+00
3.693654E+03	3.319757E-18	0.000000E+00
3.703557E+03	3.255570E-18	0.000000E+00
3.713460E+03	3.194014E-18	0.000000E+00
3.723362E+03	3.134922E-18	0.000000E+00
3.733265E+03	3.078288E-18	0.000000E+00
3.743167E+03	3.024025E-18	0.000000E+00
3.753070E+03	2.972048E-18	0.000000E+00
3.762972E+03	2.922296E-18	0.000000E+00
3.772875E+03	2.874688E-18	0.000000E+00
3.782777E+03	2.829164E-18	0.000000E+00
3.792680E+03	2.785667E-18	0.000000E+00
3.802583E+03	2.744118E-18	0.000000E+00
3.812485E+03	2.704462E-18	0.000000E+00
3.822388E+03	2.666644E-18	0.000000E+00
3.832290E+03	2.630592E-18	0.000000E+00
3.842193E+03	2.596254E-18	0.000000E+00
3.852095E+03	2.563583E-18	0.000000E+00
3.861998E+03	2.532508E-18	0.000000E+00
3.871900E+03	2.502986E-18	0.000000E+00
3.881803E+03	2.474953E-18	0.000000E+00
3.891706E+03	2.448384E-18	0.000000E+00
3.901608E+03	2.423220E-18	0.000000E+00
3.911511E+03	2.399421E-18	0.000000E+00
3.921413E+03	2.376914E-18	0.000000E+00
3.931316E+03	2.355696E-18	0.000000E+00
3.941218E+03	2.335699E-18	0.000000E+00
3.951121E+03	2.316888E-18	0.000000E+00
3.961024E+03	2.299214E-18	0.000000E+00
3.970926E+03	2.282665E-18	0.000000E+00
3.980829E+03	2.267176E-18	0.000000E+00
3.990731E+03	2.252737E-18	0.000000E+00
4.000634E+03	2.239287E-18	0.000000E+00
4.010536E+03	2.226818E-18	0.000000E+00
4.020439E+03	2.215274E-18	0.000000E+00
4.030341E+03	2.204630E-18	0.000000E+00
4.040244E+03	2.194867E-18	0.000000E+00
4.050147E+03	2.185964E-18	0.000000E+00
4.060049E+03	2.177868E-18	0.000000E+00
4.069952E+03	2.170563E-18	0.000000E+00
4.079854E+03	2.164013E-18	0.000000E+00
4.089757E+03	2.158206E-18	0.000000E+00
4.099659E+03	2.153124E-18	0.000000E+00
4.109562E+03	2.148722E-18	0.000000E+00
4.119464E+03	2.145004E-18	0.000000E+00
4.129367E+03	2.141926E-18	0.000000E+00
4.139270E+03	2.139476E-18	0.000000E+00
4.149172E+03	2.137644E-18	0.000000E+00
4.159075E+03	2.136390E-18	0.000000E+00
4.168977E+03	2.135705E-18	0.000000E+00
4.178880E+03	2.135565E-18	0.000000E+00
4.188782E+03	2.135979E-18	0.000000E+00
4.198685E+03	2.136894E-18	0.000000E+00
4.208587E+03	2.138320E-18	0.000000E+00
4.218490E+03	2.140220E-18	0.000000E+00
4.228393E+03	2.142608E-18	0.000000E+00
4.238295E+03	2.145429E-18	0.000000E+00
4.248198E+03	2.148682E-18	0.000000E+00
4.258100E+03	2.152364E-18	0.000000E+00
4.268003E+03	2.156424E-18	0.000000E+00
4.277905E+03	2.160878E-18	0.000000E+00
4.287808E+03	2.165658E-18	0.000000E+00
4.297711E+03	2.170779E-18	0.000000E+00
4.307613E+03	2.176158E-18	0.000000E+00
4.317516E+03	2.181792E-18	0.000000E+00
4.327418E+03	2.187736E-18	0.000000E+00
4.337321E+03	2.193989E-18	0.000000E+00
4.347223E+03	2.200571E-18	0.000000E+00
4.357126E+03	2.207487E-18	0.000000E+00
4.367028E+03	2.214705E-18	0.000000E+00
4.376931E+03	2.222265E-18	0.000000E+00
4.386834E+03	2.230136E-18	0.000000E+00
4.396736E+03	2.238326E-18	0.000000E+00
4.406639E+03	2.246822E-18	0.000000E+00
4.416541E+03	2.255632E-18	0.000000E+00
4.426444E+03	2.264729E-18	0.000000E+00
4.436346E+03	2.274140E-18	0.000000E+00
4.446249E+03	2.283837E-18	0.000000E+00
4.456151E+03	2.293813E-18	0.000000E+00
4.466054E+03	2.304097E-18	0.000000E+00
4.475957E+03	2.314647E-18	0.000000E+00
4.485859E+03	2.325474E-18	0.000000E+00
4.495762E+03	2.336592E-18	0.000000E+00
4.505664E+03	2.347979E-18	0.000000E+00
4.515567E+03	2.359649E-18	0.000000E+00
4.525469E+03	2.371579E-18	0.000000E+00
4.535372E+03	2.383788E-18	0.000000E+00
4.545274E+03	2.396272E-18	0.000000E+00
4.555177E+03	2.409030E-18	0.000000E+00
4.565080E+03	2.422041E-18	0.000000E+00
4.574982E+03	2.435346E-18	0.000000E+00
4.584885E+03	2.448903E-18	0.000000E+00
4.594787E+03	2.462733E-18	0.000000E+00
4.604690E+03	2.476838E-18	0.000000E+00
4.614592E+03	2.491197E-18	0.000000E+00
4.624495E+03	2.505853E-18	0.000000E+00
4.634398E+03	2.520767E-18	0.000000E+00
4.644300E+03	2.535961E-18	0.000000E+00
4.654203E+03	2.551482E-18	0.000000E+00
4.664105E+03	2.567312E-18	0.000000E+00
4.674008E+03	2.583477E-18	0.000000E+00
4.683910E+03	2.600005E-18	0.000000E+00
4.693813E+03	2.616899E-18	0.000000E+00
4.703715E+03	2.634166E-18	0.000000E+00
4.713618E+03	2.651859E-18	0.000000E+00
4.723521E+03	2.669938E-18	0.000000E+00
4.733423E+03	2.688456E-18	0.000000E+00
4.743326E+03	2.707422E-18	0.000000E+00
4.753228E+03	2.726821E-18	0.000000E+00
4.763131E+03	2.746707E-18	0.000000E+00
4.773033E+03	2.767067E-18	0.000000E+00
4.782936E+03	2.787910E-18	0.000000E+00
4.792838E+03	2.809243E-18	0.000000E+00
4.802741E+03	2.831079E-18	0.000000E+00
4.812644E+03	2.853477E-18	0.000000E+00
4.822546E+03	2.876371E-18	0.000000E+00
4.832449E+03	2.899823E-18	0.000000E+00
4.842351E+03	2.923818E-18	0.000000E+00
4.852254E+03	2.948392E-18	0.000000E+00
4.862156E+03	2.973531E-18	0.000000E+00
4.872059E+03	2.999245E-18	0.000000E+00
4.881961E+03	3.025574E-18	0.000000E+00
4.891864E+03	3.052471E-18	0.000000E+00
4.901767E+03	3.079975E-18	0.000000E+00
4.911669E+03	3.108098E-18	0.000000E+00
4.921572E+03	3.136851E-18	0.000000E+00
4.931474E+03	3.166213E-18	0.000000E+00
4.941377E+03	3.196195E-18	0.000000E+00
4.951279E+03	3.226837E-18	0.000000E+00
4.961182E+03	3.258086E-18	0.000000E+00
4.971085E+03	3.290015E-18	0.000000E+00
4.980987E+03	3.322569E-18	0.000000E+00
4.990890E+03	3.355756E-18	0.000000E+00
5.000792E+03	3.389615E-18	0.000000E+00
5.010695E+03	3.424123E-18	0.000000E+00
5.020597E+03	3.459283E-18	0.000000E+00
5.030500E+03	3.495072E-18	0.000000E+00
5.040402E+03	3.531527E-18	0.000000E+00
5.050305E+03	3.568653E-18	0.000000E+00
5.060208E+03	3.606387E-18	0.000000E+00
5.070110E+03	3.644766E-18	0.000000E+00
5.080013E+03	3.683794E-18	0.000000E+00
5.089915E+03	3.723474E-18	0.000000E+00
5.099818E+03	3.763772E-18	0.000000E+00
5.109720E+03	3.804688E-18	0.000000E+00
5.119623E+03	3.846187E-18	0.000000E+00
5.129525E+03	3.888343E-18	0.000000E+00
5.139428E+03	3.931079E-18	0.000000E+00
5.149331E+03	3.974394E-18	0.000000E+00
5.159233E+03	4.018283E-18	0.000000E+00
5.169136E+03	4.062784E-18	0.000000E+00
5.179038E+03	4.107811E-18	0.000000E+00
5.188941E+03	4.153360E-18	0.000000E+00
5.198843E+03	4.199502E-18	0.000000E+00
5.208746E+03	4.246107E-18	0.000000E+00
5.218648E+03	4.293249E-18	0.000000E+00
5.228551E+03	4.340873E-18	0.000000E+00
5.238454E+03	4.388967E-18	0.000000E+00
5.248356E+03	4.437558E-18	0.000000E+00
5.258259E+03	4.486545E-18	0.000000E+00
5.268161E+03	4.535952E-18	0.000000E+00
5.278064E+03	4.585759E-18	0.000000E+00
5.287966E+03	4.635943E-18	0.000000E+00
5.297869E+03	4.686526E-18	0.000000E+00
5.307772E+03	4.737390E-18	0.000000E+00
5.317674E+03	4.788551E-18	0.000000E+00
5.327577E+03	4.839977E-18	0.000000E+00
5.337479E+03	4.891587E-18	0.000000E+00
5.347382E+03	4.943438E-18	0.000000E+00
5.357284E+03	4.995444E-18	0.000000E+00
5.367187E+03	5.047512E-18	0.000000E+00
5.377089E+03	5.099595E-18	0.000000E+00
5.386992E+03	5.151694E-18	0.000000E+00
5.396895E+03	5.203654E-18	0.000000E+00
5.406797E+03	5.255470E-18	0.000000E+00
5.416700E+03	5.307084E-18	0.000000E+00
5.426602E+03	5.358324E-18	0.000000E+00
5.436505E+03	5.409125E-18	0.000000E+00
5.446407E+03	5.459470E-18	0.000000E+00
5.456310E+03	5.509233E-18	0.000000E+00
5.466212E+03	5.558282E-18	0.000000E+00
5.476115E+03	5.606479E-18	0.000000E+00
5.486018E+03	5.653858E-18	0.000000E+00
5.495920E+03	5.700163E-18	0.000000E+00
5.505823E+03	5.745366E-18	0.000000E+00
5.515725E+03	5.789320E-18	0.000000E+00
5.525628E+03	5.831936E-18	0.000000E+00
5.535530E+03	5.873126E-18	0.000000E+00
5.545433E+03	5.912741E-18	0.000000E+00
5.555335E+03	5.950753E-18	0.000000E+00
5.565238E+03	5.987014E-18	0.000000E+00
5.575141E+03	6.021376E-18	0.000000E+00
5.585043E+03	6.053880E-18	0.000000E+00
5.594946E+03	6.084387E-18	0.000000E+00
5.604848E+03	6.112755E-18	0.000000E+00
5.614751E+03	6.138975E-18	0.000000E+00
5.624653E+03	6.163046E-18	0.000000E+00
5.634556E+03	6.184777E-18	0.000000E+00
5.644459E+03	6.204176E-18	0.000000E+00
5.654361E+03	6.221260E-18	0.000000E+00
5.664264E+03	6.235919E-18	0.000000E+00
5.674166E+03	6.248183E-18	0.000000E+00
5.684069E+03	6.257957E-18	0.000000E+00
5.693971E+03	6.265284E-18	0.000000E+00
5.703874E+03	6.270151E-18	0.000000E+00
5.713776E+03	6.272617E-18	0.000000E+00
5.723679E+03	6.272549E-18	0.000000E+00
5.733582E+03	6.270156E-18	0.000000E+00
5.743484E+03	6.265319E-18	0.000000E+00
5.753387E+03	6.258129E-18	0.000000E+00
5.763289E+03	6.248614E-18	0.000000E+00
5.773192E+03	6.236812E-18	0.000000E+00
5.783094E+03	6.222834E-18	0.000000E+00
5.792997E+03	6.206731E-18	0.000000E+00
5.802899E+03	6.188557E-18	0.000000E+00
5.812802E+03	6.168305E-18	0.000000E+00
5.822705E+03	6.146179E-18	0.000000E+00
5.832607E+03	6.122180E-18	0.000000E+00
5.842510E+03	6.096454E-18	0.000000E+00
5.852412E+03	6.069008E-18	0.000000E+00
5.862315E+03	6.039993E-18	0.000000E+00
5.872217E+03	6.009494E-18	0.000000E+00
5.882120E+03	5.977594E-18	0.000000E+00
5.892022E+03	5.944383E-18	0.000000E+00
5.901925E+03	5.909947E-18	0.000000E+00
5.911828E+03	5.874443E-18	0.000000E+00
5.921730E+03	5.837822E-18	0.000000E+00
5.931633E+03	5.800309E-18	0.000000E+00
5.941535E+03	5.761920E-18	0.000000E+00
5.951438E+03	5.722743E-18	0.000000E+00
5.961340E+03	5.682927E-18	0.000000E+00
5.971243E+03	5.642418E-18	0.000000E+00
5.981146E+03	5.601431E-18	0.000000E+00
5.991048E+03	5.559907E-18	0.000000E+00
6.000951E+03	5.517989E-18	0.000000E+00
6.010853E+03	5.475748E-18	0.000000E+00
6.020756E+03	5.433185E-18	0.000000E+00
6.030658E+03	5.390366E-18	0.000000E+00
6.040561E+03	5.347355E-18	0.000000E+00
6.050463E+03	5.304212E-18	0.000000E+00
6.060366E+03	5.260993E-18	0.000000E+00
6.070269E+03	5.217751E-18	0.000000E+00
6.080171E+03	5.174538E-18	0.000000E+00
6.090074E+03	5.131400E-18	0.000000E+00
6.099976E+03	5.088447E-18	0.000000E+00
6.109879E+03	5.045786E-18	0.000000E+00
6.119781E+03	5.003517E-18	0.000000E+00
6.129684E+03	4.961676E-18	0.000000E+00
6.139586E+03	4.920295E-18	0.000000E+00
6.149489E+03	4.879338E-18	0.000000E+00
6.159392E+03	4.838833E-18	0.000000E+00
6.169294E+03	4.798805E-18	0.000000E+00
6.179197E+03	4.759213E-18	0.000000E+00
6.189099E+03	4.720142E-18	0.000000E+00
6.199002E+03	4.681736E-18	0.000000E+00
6.208904E+03	4.643950E-18	0.000000E+00
6.218807E+03	4.606858E-18	0.000000E+00
6.228709E+03	4.570603E-18	0.000000E+00
6.238612E+03	4.535129E-18	0.000000E+00
6.248515E+03	4.500637E-18	0.000000E+00
6.258417E+03	4.467195E-18	0.000000E+00
6.268320E+03	4.434748E-18	0.000000E+00
6.278222E+03	4.403488E-18	0.000000E+00
6.288125E+03	4.373485E-18	0.000000E+00
6.298027E+03	4.344740E-18	0.000000E+00
6.307930E+03	4.317321E-18	0.000000E+00
6.317833E+03	4.291418E-18	0.000000E+00
6.327735E+03	4.266971E-18	0.000000E+00
6.337638E+03	4.244046E-18	0.000000E+00
6.347540E+03	4.222770E-18	0.000000E+00
6.357443E+03	4.202961E-18	0.000000E+00
6.367345E+03	4.184496E-18	0.000000E+00
6.377248E+03	4.167314E-18	0.000000E+00
6.387150E+03	4.151357E-18	0.000000E+00
6.397053E+03	4.136503E-18	0.000000E+00
6.406956E+03	4.122753E-18	0.000000E+00
6.416858E+03	4.110048E-18	0.000000E+00
6.426761E+03	4.098391E-18	0.000000E+00
6.436663E+03	4.087720E-18	0.000000E+00
6.446566E+03	4.078038E-18	0.000000E+00
6.456468E+03	4.069347E-18	0.000000E+00
6.466371E+03	4.061585E-18	0.000000E+00
6.476273E+03	4.054817E-18	0.000000E+00
6.486176E+03	4.049046E-18	0.000000E+00
6.496079E+03	4.044210E-18	0.000000E+00
6.505981E+03	4.040374E-18	0.000000E+00
6.515884E+03	4.037474E-18	0.000000E+00
6.525786E+03	4.035513E-18	0.000000E+00
6.535689E+03	4.034557E-18	0.000000E+00
6.545591E+03	4.034476E-18	0.000000E+00
6.555494E+03	4.035468E-18	0.000000E+00
6.565396E+03	4.037338E-18	0.000000E+00
6.575299E+03	4.040218E-18	0.000000E+00
6.585202E+03	4.044042E-18	0.000000E+00
6.595104E+03	4.048813E-18	0.000000E+00
6.605007E+03	4.054598E-18	0.000000E+00
6.614909E+03	4.061330E-18	0.000000E+00
6.624812E+03	4.069011E-18	0.000000E+00
6.634714E+03	4.077639E-18	0.000000E+00
6.644617E+03	4.087286E-18	0.000000E+00
6.654520E+03	4.097812E-18	0.000000E+00
6.664422E+03	4.109357E-18	0.000000E+00
6.674325E+03	4.121853E-18	0.000000E+00
6.684227E+03	4.135297E-18	0.000000E+00
6.694130E+03	4.149691E-18	0.000000E+00
6.704032E+03	4.165034E-18	0.000000E+00
6.713935E+03	4.181399E-18	0.000000E+00
6.723837E+03	4.198638E-18	0.000000E+00
6.733740E+03	4.216825E-18	0.000000E+00
6.743643E+03	4.235957E-18	0.000000E+00
6.753545E+03	4.256035E-18	0.000000E+00
6.763448E+03	4.277057E-18	0.000000E+00
6.773350E+03	4.299021E-18	0.000000E+00
6.783253E+03	4.321927E-18	0.000000E+00
6.793155E+03	4.345694E-18	0.000000E+00
6.803058E+03	4.370398E-18	0.000000E+00
6.812960E+03	4.396037E-18	0.000000E+00
6.822863E+03	4.422529E-18	0.000000E+00
6.832766E+03	4.449952E-18	0.000000E+00
6.842668E+03	4.478303E-18	0.000000E+00
6.852571E+03	4.507498E-18	0.000000E+00
6.862473E+03	4.537532E-18	0.000000E+00
6.872376E+03	4.568487E-18	0.000000E+00
6.882278E+03	4.600273E-18	0.000000E+00
6.892181E+03	4.632889E-18	0.000000E+00
6.902083E+03	4.666417E-18	0.000000E+00
6.911986E+03	4.700768E-18	0.000000E+00
6.921889E+03	4.735938E-18	0.000000E+00
6.931791E+03	4.771830E-18	0.000000E+00
6.941694E+03	4.808625E-18	0.000000E+00
6.951596E+03	4.846228E-18	0.000000E+00
6.961499E+03	4.884638E-18	0.000000E+00
6.971401E+03	4.923753E-18	0.000000E+00
6.981304E+03	4.963667E-18	0.000000E+00
6.991207E+03	5.004277E-18	0.000000E+00
7.001109E+03	5.045782E-18	0.000000E+00
7.011012E+03	5.087875E-18	0.000000E+00
7.020914E+03	5.130756E-18	0.000000E+00
7.030817E+03	5.174317E-18	0.000000E+00
7.040719E+03	5.218663E-18	0.000000E+00
7.050622E+03	5.263577E-18	0.000000E+00
7.060524E+03	5.309268E-18	0.000000E+00
7.070427E+03	5.355517E-18	0.000000E+00
7.080330E+03	5.402428E-18	0.000000E+00
7.090232E+03	5.449994E-18	0.000000E+00
7.100135E+03	5.498215E-18	0.000000E+00
7.110037E+03	5.546969E-18	0.000000E+00
7.119940E+03	5.596249E-18	0.000000E+00
7.129842E+03	5.646165E-18	0.000000E+00
7.139745E+03	5.696593E-18	0.000000E+00
7.149647E+03	5.747646E-18	0.000000E+00
7.159550E+03	5.799073E-18	0.000000E+00
7.169453E+03	5.851108E-18	0.000000E+00
7.179355E+03	5.903622E-18	0.000000E+00
7.189258E+03	5.956604E-18	0.000000E+00
7.199160E+03	6.010042E-18	0.000000E+00
7.209063E+03	6.063924E-18	0.000000E+00
7.218965E+03	6.118240E-18	0.000000E+00
7.228868E+03	6.173112E-18	0.000000E+00
7.238770E+03	6.228256E-18	0.000000E+00
7.248673E+03	6.284072E-18	0.000000E+00
7.258576E+03	6.340414E-18	0.000000E+00
7.268478E+03	6.397128E-18	0.000000E+00
7.278381E+03	6.454635E-18	0.000000E+00
7.288283E+03	6.512639E-18	0.000000E+00
7.298186E+03	6.571577E-18	0.000000E+00
7.308088E+03	6.631302E-18	0.000000E+00
7.317991E+03	6.691968E-18	0.000000E+00
7.327894E+03	6.753732E-18	0.000000E+00
7.337796E+03	6.816606E-18	0.000000E+00
7.347699E+03	6.880922E-18	0.000000E+00
7.357601E+03	6.946865E-18	0.000000E+00
7.367504E+03	7.014299E-18	0.000000E+00
7.377406E+03	7.083245E-18	0.000000E+00
7.387309E+03	7.153727E-18	0.000000E+00
7.397211E+03	7.225593E-18	0.000000E+00
7.407114E+03	7.298684E-18	0.000000E+00
7.417017E+03	7.372827E-18	0.000000E+00
7.426919E+03	7.448021E-18	0.000000E+00
7.436822E+03	7.524080E-18	0.000000E+00
7.446724E+03	7.600808E-18	0.000000E+00
7.456627E+03	7.678373E-18	0.000000E+00
7.466529E+03	7.756382E-18	0.000000E+00
7.476432E+03	7.834799E-18	0.000000E+00
7.486334E+03	7.913586E-18	0.000000E+00
7.496237E+03	7.992720E-18	0.000000E+00
7.506140E+03	8.072161E-18	0.000000E+00
7.516042E+03	8.151664E-18	0.000000E+00
7.525945E+03	8.231173E-18	0.000000E+00
7.535847E+03	8.310851E-18	0.000000E+00
7.545750E+03	8.390436E-18	0.000000E+00
7.555652E+03	8.470096E-18	0.000000E+00
7.565555E+03	8.549336E-18	0.000000E+00
7.575457E+03	8.628528E-18	0.000000E+00
7.585360E+03	8.707391E-18	0.000000E+00
7.595263E+03	8.785856E-18	0.000000E+00
7.605165E+03	8.863867E-18	0.000000E+00
7.615068E+03	8.941563E-18	0.000000E+00
7.624970E+03	9.018664E-18	0.000000E+00
7.634873E+03	9.095075E-18	0.000000E+00
7.644775E+03	9.170966E-18	0.000000E+00
7.654678E+03	9.246267E-18	0.000000E+00
7.664581E+03	9.320657E-18	0.000000E+00
7.674483E+03	9.394291E-18	0.000000E+00
7.684386E+03	9.467096E-18	0.000000E+00
