#wls	flux	fluxerr
1.584409E+03	5.346579E-17	0.000000E+00
1.624020E+03	5.591492E-17	0.000000E+00
1.663630E+03	5.823977E-17	0.000000E+00
1.703240E+03	6.040491E-17	0.000000E+00
1.742850E+03	6.237773E-17	0.000000E+00
1.782461E+03	6.409557E-17	0.000000E+00
1.822071E+03	6.548244E-17	0.000000E+00
1.861681E+03	6.644959E-17	0.000000E+00
1.901291E+03	6.689645E-17	0.000000E+00
1.940902E+03	6.674129E-17	0.000000E+00
1.980512E+03	6.595408E-17	0.000000E+00
2.020122E+03	6.461911E-17	0.000000E+00
2.059732E+03	6.299498E-17	0.000000E+00
2.099342E+03	6.152610E-17	0.000000E+00
2.138953E+03	6.069524E-17	0.000000E+00
2.178563E+03	6.079980E-17	0.000000E+00
2.218173E+03	6.177749E-17	0.000000E+00
2.257783E+03	6.327298E-17	0.000000E+00
2.297394E+03	6.486774E-17	0.000000E+00
2.337004E+03	6.621975E-17	0.000000E+00
2.376614E+03	6.710867E-17	0.000000E+00
2.416224E+03	6.742629E-17	0.000000E+00
2.455835E+03	6.714334E-17	0.000000E+00
2.495445E+03	6.628137E-17	0.000000E+00
2.535055E+03	6.487986E-17	0.000000E+00
2.574665E+03	6.299529E-17	0.000000E+00
2.614276E+03	6.068296E-17	0.000000E+00
2.653886E+03	5.799621E-17	0.000000E+00
2.693496E+03	5.499534E-17	0.000000E+00
2.733106E+03	5.173642E-17	0.000000E+00
2.772716E+03	4.827689E-17	0.000000E+00
2.812327E+03	4.467455E-17	0.000000E+00
2.851937E+03	4.099035E-17	0.000000E+00
2.891547E+03	3.729263E-17	0.000000E+00
2.931157E+03	3.365509E-17	0.000000E+00
2.970768E+03	3.014337E-17	0.000000E+00
2.980670E+03	2.929141E-17	0.000000E+00
2.990573E+03	2.845247E-17	0.000000E+00
3.000475E+03	2.762561E-17	0.000000E+00
3.010378E+03	2.681195E-17	0.000000E+00
3.020280E+03	2.601305E-17	0.000000E+00
3.030183E+03	2.522806E-17	0.000000E+00
3.040086E+03	2.445869E-17	0.000000E+00
3.049988E+03	2.370609E-17	0.000000E+00
3.059891E+03	2.297129E-17	0.000000E+00
3.069793E+03	2.225397E-17	0.000000E+00
3.079696E+03	2.155475E-17	0.000000E+00
3.089598E+03	2.087290E-17	0.000000E+00
3.099501E+03	2.020860E-17	0.000000E+00
3.109403E+03	1.956163E-17	0.000000E+00
3.119306E+03	1.893178E-17	0.000000E+00
3.129209E+03	1.831921E-17	0.000000E+00
3.139111E+03	1.772406E-17	0.000000E+00
3.149014E+03	1.714544E-17	0.000000E+00
3.158916E+03	1.658412E-17	0.000000E+00
3.168819E+03	1.603953E-17	0.000000E+00
3.178721E+03	1.551173E-17	0.000000E+00
3.188624E+03	1.500046E-17	0.000000E+00
3.198526E+03	1.450521E-17	0.000000E+00
3.208429E+03	1.402645E-17	0.000000E+00
3.218332E+03	1.356318E-17	0.000000E+00
3.228234E+03	1.311580E-17	0.000000E+00
3.238137E+03	1.268398E-17	0.000000E+00
3.248039E+03	1.226696E-17	0.000000E+00
3.257942E+03	1.186504E-17	0.000000E+00
3.267844E+03	1.147749E-17	0.000000E+00
3.277747E+03	1.110413E-17	0.000000E+00
3.287650E+03	1.074463E-17	0.000000E+00
3.297552E+03	1.039878E-17	0.000000E+00
3.307455E+03	1.006606E-17	0.000000E+00
3.317357E+03	9.746133E-18	0.000000E+00
3.327260E+03	9.438621E-18	0.000000E+00
3.337162E+03	9.143310E-18	0.000000E+00
3.347065E+03	8.859710E-18	0.000000E+00
3.356967E+03	8.587476E-18	0.000000E+00
3.366870E+03	8.326253E-18	0.000000E+00
3.376773E+03	8.075607E-18	0.000000E+00
3.386675E+03	7.835206E-18	0.000000E+00
3.396578E+03	7.604724E-18	0.000000E+00
3.406480E+03	7.383770E-18	0.000000E+00
3.416383E+03	7.172030E-18	0.000000E+00
3.426285E+03	6.969125E-18	0.000000E+00
3.436188E+03	6.774703E-18	0.000000E+00
3.446090E+03	6.588412E-18	0.000000E+00
3.455993E+03	6.409853E-18	0.000000E+00
3.465896E+03	6.238802E-18	0.000000E+00
3.475798E+03	6.074884E-18	0.000000E+00
3.485701E+03	5.917704E-18	0.000000E+00
3.495603E+03	5.766818E-18	0.000000E+00
3.505506E+03	5.622015E-18	0.000000E+00
3.515408E+03	5.482910E-18	0.000000E+00
3.525311E+03	5.349047E-18	0.000000E+00
3.535213E+03	5.220169E-18	0.000000E+00
3.545116E+03	5.095986E-18	0.000000E+00
3.555019E+03	4.976181E-18	0.000000E+00
3.564921E+03	4.860417E-18	0.000000E+00
3.574824E+03	4.748565E-18	0.000000E+00
3.584726E+03	4.640412E-18	0.000000E+00
3.594629E+03	4.535757E-18	0.000000E+00
3.604531E+03	4.434611E-18	0.000000E+00
3.614434E+03	4.336854E-18	0.000000E+00
3.624337E+03	4.242404E-18	0.000000E+00
3.634239E+03	4.151210E-18	0.000000E+00
3.644142E+03	4.063216E-18	0.000000E+00
3.654044E+03	3.978325E-18	0.000000E+00
3.663947E+03	3.896538E-18	0.000000E+00
3.673849E+03	3.817716E-18	0.000000E+00
3.683752E+03	3.741816E-18	0.000000E+00
3.693654E+03	3.668824E-18	0.000000E+00
3.703557E+03	3.598565E-18	0.000000E+00
3.713460E+03	3.531077E-18	0.000000E+00
3.723362E+03	3.466187E-18	0.000000E+00
3.733265E+03	3.403898E-18	0.000000E+00
3.743167E+03	3.344122E-18	0.000000E+00
3.753070E+03	3.286775E-18	0.000000E+00
3.762972E+03	3.231797E-18	0.000000E+00
3.772875E+03	3.179104E-18	0.000000E+00
3.782777E+03	3.128639E-18	0.000000E+00
3.792680E+03	3.080344E-18	0.000000E+00
3.802583E+03	3.034136E-18	0.000000E+00
3.812485E+03	2.989960E-18	0.000000E+00
3.822388E+03	2.947761E-18	0.000000E+00
3.832290E+03	2.907463E-18	0.000000E+00
3.842193E+03	2.869012E-18	0.000000E+00
3.852095E+03	2.832359E-18	0.000000E+00
3.861998E+03	2.797431E-18	0.000000E+00
3.871900E+03	2.764181E-18	0.000000E+00
3.881803E+03	2.732541E-18	0.000000E+00
3.891706E+03	2.702488E-18	0.000000E+00
3.901608E+03	2.673957E-18	0.000000E+00
3.911511E+03	2.646907E-18	0.000000E+00
3.921413E+03	2.621257E-18	0.000000E+00
3.931316E+03	2.597010E-18	0.000000E+00
3.941218E+03	2.574089E-18	0.000000E+00
3.951121E+03	2.552457E-18	0.000000E+00
3.961024E+03	2.532063E-18	0.000000E+00
3.970926E+03	2.512894E-18	0.000000E+00
3.980829E+03	2.494880E-18	0.000000E+00
3.990731E+03	2.478011E-18	0.000000E+00
4.000634E+03	2.462222E-18	0.000000E+00
4.010536E+03	2.447504E-18	0.000000E+00
4.020439E+03	2.433796E-18	0.000000E+00
4.030341E+03	2.421073E-18	0.000000E+00
4.040244E+03	2.409314E-18	0.000000E+00
4.050147E+03	2.398496E-18	0.000000E+00
4.060049E+03	2.388564E-18	0.000000E+00
4.069952E+03	2.379498E-18	0.000000E+00
4.079854E+03	2.371264E-18	0.000000E+00
4.089757E+03	2.363843E-18	0.000000E+00
4.099659E+03	2.357220E-18	0.000000E+00
4.109562E+03	2.351346E-18	0.000000E+00
4.119464E+03	2.346225E-18	0.000000E+00
4.129367E+03	2.341809E-18	0.000000E+00
4.139270E+03	2.338085E-18	0.000000E+00
4.149172E+03	2.335045E-18	0.000000E+00
4.159075E+03	2.332642E-18	0.000000E+00
4.168977E+03	2.330867E-18	0.000000E+00
4.178880E+03	2.329697E-18	0.000000E+00
4.188782E+03	2.329140E-18	0.000000E+00
4.198685E+03	2.329137E-18	0.000000E+00
4.208587E+03	2.329701E-18	0.000000E+00
4.218490E+03	2.330791E-18	0.000000E+00
4.228393E+03	2.332421E-18	0.000000E+00
4.238295E+03	2.334535E-18	0.000000E+00
4.248198E+03	2.337129E-18	0.000000E+00
4.258100E+03	2.340201E-18	0.000000E+00
4.268003E+03	2.343696E-18	0.000000E+00
4.277905E+03	2.347630E-18	0.000000E+00
4.287808E+03	2.351930E-18	0.000000E+00
4.297711E+03	2.356614E-18	0.000000E+00
4.307613E+03	2.361590E-18	0.000000E+00
4.317516E+03	2.366859E-18	0.000000E+00
4.327418E+03	2.372476E-18	0.000000E+00
4.337321E+03	2.378444E-18	0.000000E+00
4.347223E+03	2.384785E-18	0.000000E+00
4.357126E+03	2.391503E-18	0.000000E+00
4.367028E+03	2.398565E-18	0.000000E+00
4.376931E+03	2.406013E-18	0.000000E+00
4.386834E+03	2.413818E-18	0.000000E+00
4.396736E+03	2.421985E-18	0.000000E+00
4.406639E+03	2.430502E-18	0.000000E+00
4.416541E+03	2.439379E-18	0.000000E+00
4.426444E+03	2.448586E-18	0.000000E+00
4.436346E+03	2.458152E-18	0.000000E+00
4.446249E+03	2.468048E-18	0.000000E+00
4.456151E+03	2.478267E-18	0.000000E+00
4.466054E+03	2.488842E-18	0.000000E+00
4.475957E+03	2.499723E-18	0.000000E+00
4.485859E+03	2.510927E-18	0.000000E+00
4.495762E+03	2.522466E-18	0.000000E+00
4.505664E+03	2.534316E-18	0.000000E+00
4.515567E+03	2.546494E-18	0.000000E+00
4.525469E+03	2.558973E-18	0.000000E+00
4.535372E+03	2.571773E-18	0.000000E+00
4.545274E+03	2.584891E-18	0.000000E+00
4.555177E+03	2.598324E-18	0.000000E+00
4.565080E+03	2.612049E-18	0.000000E+00
4.574982E+03	2.626110E-18	0.000000E+00
4.584885E+03	2.640459E-18	0.000000E+00
4.594787E+03	2.655122E-18	0.000000E+00
4.604690E+03	2.670095E-18	0.000000E+00
4.614592E+03	2.685359E-18	0.000000E+00
4.624495E+03	2.700959E-18	0.000000E+00
4.634398E+03	2.716850E-18	0.000000E+00
4.644300E+03	2.733056E-18	0.000000E+00
4.654203E+03	2.749629E-18	0.000000E+00
4.664105E+03	2.766546E-18	0.000000E+00
4.674008E+03	2.783836E-18	0.000000E+00
4.683910E+03	2.801528E-18	0.000000E+00
4.693813E+03	2.819625E-18	0.000000E+00
4.703715E+03	2.838133E-18	0.000000E+00
4.713618E+03	2.857110E-18	0.000000E+00
4.723521E+03	2.876510E-18	0.000000E+00
4.733423E+03	2.896392E-18	0.000000E+00
4.743326E+03	2.916764E-18	0.000000E+00
4.753228E+03	2.937606E-18	0.000000E+00
4.763131E+03	2.958982E-18	0.000000E+00
4.773033E+03	2.980872E-18	0.000000E+00
4.782936E+03	3.003286E-18	0.000000E+00
4.792838E+03	3.026233E-18	0.000000E+00
4.802741E+03	3.049724E-18	0.000000E+00
4.812644E+03	3.073822E-18	0.000000E+00
4.822546E+03	3.098455E-18	0.000000E+00
4.832449E+03	3.123690E-18	0.000000E+00
4.842351E+03	3.149508E-18	0.000000E+00
4.852254E+03	3.175950E-18	0.000000E+00
4.862156E+03	3.202996E-18	0.000000E+00
4.872059E+03	3.230658E-18	0.000000E+00
4.881961E+03	3.258977E-18	0.000000E+00
4.891864E+03	3.287904E-18	0.000000E+00
4.901767E+03	3.317477E-18	0.000000E+00
4.911669E+03	3.347710E-18	0.000000E+00
4.921572E+03	3.378612E-18	0.000000E+00
4.931474E+03	3.410161E-18	0.000000E+00
4.941377E+03	3.442368E-18	0.000000E+00
4.951279E+03	3.475275E-18	0.000000E+00
4.961182E+03	3.508825E-18	0.000000E+00
4.971085E+03	3.543093E-18	0.000000E+00
4.980987E+03	3.578022E-18	0.000000E+00
4.990890E+03	3.613619E-18	0.000000E+00
5.000792E+03	3.649925E-18	0.000000E+00
5.010695E+03	3.686915E-18	0.000000E+00
5.020597E+03	3.724594E-18	0.000000E+00
5.030500E+03	3.762932E-18	0.000000E+00
5.040402E+03	3.801971E-18	0.000000E+00
5.050305E+03	3.841716E-18	0.000000E+00
5.060208E+03	3.882098E-18	0.000000E+00
5.070110E+03	3.923157E-18	0.000000E+00
5.080013E+03	3.964895E-18	0.000000E+00
5.089915E+03	4.007315E-18	0.000000E+00
5.099818E+03	4.050381E-18	0.000000E+00
5.109720E+03	4.094092E-18	0.000000E+00
5.119623E+03	4.138409E-18	0.000000E+00
5.129525E+03	4.183408E-18	0.000000E+00
5.139428E+03	4.229008E-18	0.000000E+00
5.149331E+03	4.275205E-18	0.000000E+00
5.159233E+03	4.321995E-18	0.000000E+00
5.169136E+03	4.369413E-18	0.000000E+00
5.179038E+03	4.417369E-18	0.000000E+00
5.188941E+03	4.465853E-18	0.000000E+00
5.198843E+03	4.514944E-18	0.000000E+00
5.208746E+03	4.564498E-18	0.000000E+00
5.218648E+03	4.614592E-18	0.000000E+00
5.228551E+03	4.665166E-18	0.000000E+00
5.238454E+03	4.716206E-18	0.000000E+00
5.248356E+03	4.767739E-18	0.000000E+00
5.258259E+03	4.819654E-18	0.000000E+00
5.268161E+03	4.871976E-18	0.000000E+00
5.278064E+03	4.924681E-18	0.000000E+00
5.287966E+03	4.977745E-18	0.000000E+00
5.297869E+03	5.031189E-18	0.000000E+00
5.307772E+03	5.084885E-18	0.000000E+00
5.317674E+03	5.138851E-18	0.000000E+00
5.327577E+03	5.193051E-18	0.000000E+00
5.337479E+03	5.247398E-18	0.000000E+00
5.347382E+03	5.301955E-18	0.000000E+00
5.357284E+03	5.356628E-18	0.000000E+00
5.367187E+03	5.411321E-18	0.000000E+00
5.377089E+03	5.465981E-18	0.000000E+00
5.386992E+03	5.520615E-18	0.000000E+00
5.396895E+03	5.575055E-18	0.000000E+00
5.406797E+03	5.629302E-18	0.000000E+00
5.416700E+03	5.683295E-18	0.000000E+00
5.426602E+03	5.736855E-18	0.000000E+00
5.436505E+03	5.789916E-18	0.000000E+00
5.446407E+03	5.842464E-18	0.000000E+00
5.456310E+03	5.894370E-18	0.000000E+00
5.466212E+03	5.945497E-18	0.000000E+00
5.476115E+03	5.995709E-18	0.000000E+00
5.486018E+03	6.045044E-18	0.000000E+00
5.495920E+03	6.093240E-18	0.000000E+00
5.505823E+03	6.140271E-18	0.000000E+00
5.515725E+03	6.185992E-18	0.000000E+00
5.525628E+03	6.230317E-18	0.000000E+00
5.535530E+03	6.273159E-18	0.000000E+00
5.545433E+03	6.314370E-18	0.000000E+00
5.555335E+03	6.353929E-18	0.000000E+00
5.565238E+03	6.391688E-18	0.000000E+00
5.575141E+03	6.427500E-18	0.000000E+00
5.585043E+03	6.461418E-18	0.000000E+00
5.594946E+03	6.493301E-18	0.000000E+00
5.604848E+03	6.523008E-18	0.000000E+00
5.614751E+03	6.550540E-18	0.000000E+00
5.624653E+03	6.575901E-18	0.000000E+00
5.634556E+03	6.598896E-18	0.000000E+00
5.644459E+03	6.619541E-18	0.000000E+00
5.654361E+03	6.637857E-18	0.000000E+00
5.664264E+03	6.653735E-18	0.000000E+00
5.674166E+03	6.667210E-18	0.000000E+00
5.684069E+03	6.678184E-18	0.000000E+00
5.693971E+03	6.686706E-18	0.000000E+00
5.703874E+03	6.692762E-18	0.000000E+00
5.713776E+03	6.696417E-18	0.000000E+00
5.723679E+03	6.697527E-18	0.000000E+00
5.733582E+03	6.696315E-18	0.000000E+00
5.743484E+03	6.692651E-18	0.000000E+00
5.753387E+03	6.686629E-18	0.000000E+00
5.763289E+03	6.678274E-18	0.000000E+00
5.773192E+03	6.667622E-18	0.000000E+00
5.783094E+03	6.654785E-18	0.000000E+00
5.792997E+03	6.639811E-18	0.000000E+00
5.802899E+03	6.622749E-18	0.000000E+00
5.812802E+03	6.603585E-18	0.000000E+00
5.822705E+03	6.582526E-18	0.000000E+00
5.832607E+03	6.559566E-18	0.000000E+00
5.842510E+03	6.534847E-18	0.000000E+00
5.852412E+03	6.508368E-18	0.000000E+00
5.862315E+03	6.480282E-18	0.000000E+00
5.872217E+03	6.450665E-18	0.000000E+00
5.882120E+03	6.419598E-18	0.000000E+00
5.892022E+03	6.387164E-18	0.000000E+00
5.901925E+03	6.353447E-18	0.000000E+00
5.911828E+03	6.318603E-18	0.000000E+00
5.921730E+03	6.282569E-18	0.000000E+00
5.931633E+03	6.245576E-18	0.000000E+00
5.941535E+03	6.207634E-18	0.000000E+00
5.951438E+03	6.168825E-18	0.000000E+00
5.961340E+03	6.129303E-18	0.000000E+00
5.971243E+03	6.089001E-18	0.000000E+00
5.981146E+03	6.048143E-18	0.000000E+00
5.991048E+03	6.006658E-18	0.000000E+00
6.000951E+03	5.964693E-18	0.000000E+00
6.010853E+03	5.922318E-18	0.000000E+00
6.020756E+03	5.879529E-18	0.000000E+00
6.030658E+03	5.836392E-18	0.000000E+00
6.040561E+03	5.792972E-18	0.000000E+00
6.050463E+03	5.749326E-18	0.000000E+00
6.060366E+03	5.705514E-18	0.000000E+00
6.070269E+03	5.661589E-18	0.000000E+00
6.080171E+03	5.617602E-18	0.000000E+00
6.090074E+03	5.573604E-18	0.000000E+00
6.099976E+03	5.529708E-18	0.000000E+00
6.109879E+03	5.486030E-18	0.000000E+00
6.119781E+03	5.442676E-18	0.000000E+00
6.129684E+03	5.399685E-18	0.000000E+00
6.139586E+03	5.357088E-18	0.000000E+00
6.149489E+03	5.314849E-18	0.000000E+00
6.159392E+03	5.272994E-18	0.000000E+00
6.169294E+03	5.231552E-18	0.000000E+00
6.179197E+03	5.190476E-18	0.000000E+00
6.189099E+03	5.149860E-18	0.000000E+00
6.199002E+03	5.109862E-18	0.000000E+00
6.208904E+03	5.070430E-18	0.000000E+00
6.218807E+03	5.031651E-18	0.000000E+00
6.228709E+03	4.993676E-18	0.000000E+00
6.238612E+03	4.956448E-18	0.000000E+00
6.248515E+03	4.920187E-18	0.000000E+00
6.258417E+03	4.884970E-18	0.000000E+00
6.268320E+03	4.850736E-18	0.000000E+00
6.278222E+03	4.817701E-18	0.000000E+00
6.288125E+03	4.785937E-18	0.000000E+00
6.298027E+03	4.755452E-18	0.000000E+00
6.307930E+03	4.726320E-18	0.000000E+00
6.317833E+03	4.698751E-18	0.000000E+00
6.327735E+03	4.672681E-18	0.000000E+00
6.337638E+03	4.648187E-18	0.000000E+00
6.347540E+03	4.625408E-18	0.000000E+00
6.357443E+03	4.604146E-18	0.000000E+00
6.367345E+03	4.584267E-18	0.000000E+00
6.377248E+03	4.565708E-18	0.000000E+00
6.387150E+03	4.548409E-18	0.000000E+00
6.397053E+03	4.532232E-18	0.000000E+00
6.406956E+03	4.517185E-18	0.000000E+00
6.416858E+03	4.503203E-18	0.000000E+00
6.426761E+03	4.490290E-18	0.000000E+00
6.436663E+03	4.478380E-18	0.000000E+00
6.446566E+03	4.467479E-18	0.000000E+00
6.456468E+03	4.457588E-18	0.000000E+00
6.466371E+03	4.448642E-18	0.000000E+00
6.476273E+03	4.440713E-18	0.000000E+00
6.486176E+03	4.433806E-18	0.000000E+00
6.496079E+03	4.427853E-18	0.000000E+00
6.505981E+03	4.422927E-18	0.000000E+00
6.515884E+03	4.418959E-18	0.000000E+00
6.525786E+03	4.415953E-18	0.000000E+00
6.535689E+03	4.413981E-18	0.000000E+00
6.545591E+03	4.412903E-18	0.000000E+00
6.555494E+03	4.412935E-18	0.000000E+00
6.565396E+03	4.413864E-18	0.000000E+00
6.575299E+03	4.415836E-18	0.000000E+00
6.585202E+03	4.418779E-18	0.000000E+00
6.595104E+03	4.422694E-18	0.000000E+00
6.605007E+03	4.427656E-18	0.000000E+00
6.614909E+03	4.433593E-18	0.000000E+00
6.624812E+03	4.440504E-18	0.000000E+00
6.634714E+03	4.448390E-18	0.000000E+00
6.644617E+03	4.457327E-18	0.000000E+00
6.654520E+03	4.467162E-18	0.000000E+00
6.664422E+03	4.478048E-18	0.000000E+00
6.674325E+03	4.489908E-18	0.000000E+00
6.684227E+03	4.502742E-18	0.000000E+00
6.694130E+03	4.516548E-18	0.000000E+00
6.704032E+03	4.531324E-18	0.000000E+00
6.713935E+03	4.547150E-18	0.000000E+00
6.723837E+03	4.563863E-18	0.000000E+00
6.733740E+03	4.581541E-18	0.000000E+00
6.743643E+03	4.600182E-18	0.000000E+00
6.753545E+03	4.619784E-18	0.000000E+00
6.763448E+03	4.640344E-18	0.000000E+00
6.773350E+03	4.661859E-18	0.000000E+00
6.783253E+03	4.684326E-18	0.000000E+00
6.793155E+03	4.707656E-18	0.000000E+00
6.803058E+03	4.731930E-18	0.000000E+00
6.812960E+03	4.757144E-18	0.000000E+00
6.822863E+03	4.783207E-18	0.000000E+00
6.832766E+03	4.810201E-18	0.000000E+00
6.842668E+03	4.838124E-18	0.000000E+00
6.852571E+03	4.866880E-18	0.000000E+00
6.862473E+03	4.896464E-18	0.000000E+00
6.872376E+03	4.926961E-18	0.000000E+00
6.882278E+03	4.958275E-18	0.000000E+00
6.892181E+03	4.990400E-18	0.000000E+00
6.902083E+03	5.023426E-18	0.000000E+00
6.911986E+03	5.057253E-18	0.000000E+00
6.921889E+03	5.091876E-18	0.000000E+00
6.931791E+03	5.127190E-18	0.000000E+00
6.941694E+03	5.163389E-18	0.000000E+00
6.951596E+03	5.200369E-18	0.000000E+00
6.961499E+03	5.238126E-18	0.000000E+00
6.971401E+03	5.276553E-18	0.000000E+00
6.981304E+03	5.315748E-18	0.000000E+00
6.991207E+03	5.355601E-18	0.000000E+00
7.001109E+03	5.396321E-18	0.000000E+00
7.011012E+03	5.437583E-18	0.000000E+00
7.020914E+03	5.479600E-18	0.000000E+00
7.030817E+03	5.522256E-18	0.000000E+00
7.040719E+03	5.565662E-18	0.000000E+00
7.050622E+03	5.609586E-18	0.000000E+00
7.060524E+03	5.654253E-18	0.000000E+00
7.070427E+03	5.699428E-18	0.000000E+00
7.080330E+03	5.745222E-18	0.000000E+00
7.090232E+03	5.791629E-18	0.000000E+00
7.100135E+03	5.838649E-18	0.000000E+00
7.110037E+03	5.886153E-18	0.000000E+00
7.119940E+03	5.934133E-18	0.000000E+00
7.129842E+03	5.982708E-18	0.000000E+00
7.139745E+03	6.031746E-18	0.000000E+00
7.149647E+03	6.081368E-18	0.000000E+00
7.159550E+03	6.131308E-18	0.000000E+00
7.169453E+03	6.181818E-18	0.000000E+00
7.179355E+03	6.232757E-18	0.000000E+00
7.189258E+03	6.284118E-18	0.000000E+00
7.199160E+03	6.335888E-18	0.000000E+00
7.209063E+03	6.388057E-18	0.000000E+00
7.218965E+03	6.440613E-18	0.000000E+00
7.228868E+03	6.493687E-18	0.000000E+00
7.238770E+03	6.546981E-18	0.000000E+00
7.248673E+03	6.600917E-18	0.000000E+00
7.258576E+03	6.655341E-18	0.000000E+00
7.268478E+03	6.710093E-18	0.000000E+00
7.278381E+03	6.765616E-18	0.000000E+00
7.288283E+03	6.821598E-18	0.000000E+00
7.298186E+03	6.878498E-18	0.000000E+00
7.308088E+03	6.936163E-18	0.000000E+00
7.317991E+03	6.994751E-18	0.000000E+00
7.327894E+03	7.054429E-18	0.000000E+00
7.337796E+03	7.115206E-18	0.000000E+00
7.347699E+03	7.177428E-18	0.000000E+00
7.357601E+03	7.241286E-18	0.000000E+00
7.367504E+03	7.306635E-18	0.000000E+00
7.377406E+03	7.373496E-18	0.000000E+00
7.387309E+03	7.441889E-18	0.000000E+00
7.397211E+03	7.511655E-18	0.000000E+00
7.407114E+03	7.582625E-18	0.000000E+00
7.417017E+03	7.654618E-18	0.000000E+00
7.426919E+03	7.727634E-18	0.000000E+00
7.436822E+03	7.801463E-18	0.000000E+00
7.446724E+03	7.875922E-18	0.000000E+00
7.456627E+03	7.951164E-18	0.000000E+00
7.466529E+03	8.026790E-18	0.000000E+00
7.476432E+03	8.102752E-18	0.000000E+00
7.486334E+03	8.179028E-18	0.000000E+00
7.496237E+03	8.255572E-18	0.000000E+00
7.506140E+03	8.332344E-18	0.000000E+00
7.516042E+03	8.409089E-18	0.000000E+00
7.525945E+03	8.485761E-18	0.000000E+00
7.535847E+03	8.562515E-18	0.000000E+00
7.545750E+03	8.639085E-18	0.000000E+00
7.555652E+03	8.715627E-18	0.000000E+00
7.565555E+03	8.791652E-18	0.000000E+00
7.575457E+03	8.867531E-18	0.000000E+00
7.585360E+03	8.942984E-18	0.000000E+00
7.595263E+03	9.017932E-18	0.000000E+00
7.605165E+03	9.092305E-18	0.000000E+00
7.615068E+03	9.166280E-18	0.000000E+00
7.624970E+03	9.239537E-18	0.000000E+00
7.634873E+03	9.312005E-18	0.000000E+00
7.644775E+03	9.383846E-18	0.000000E+00
7.654678E+03	9.454997E-18	0.000000E+00
7.664581E+03	9.525121E-18	0.000000E+00
7.674483E+03	9.594387E-18	0.000000E+00
7.684386E+03	9.662733E-18	0.000000E+00
