#wls	flux	fluxerr
1.584409E+03	4.335961E-17	0.000000E+00
1.624020E+03	4.529208E-17	0.000000E+00
1.663630E+03	4.712328E-17	0.000000E+00
1.703240E+03	4.883183E-17	0.000000E+00
1.742850E+03	5.038399E-17	0.000000E+00
1.782461E+03	5.174680E-17	0.000000E+00
1.822071E+03	5.284638E-17	0.000000E+00
1.861681E+03	5.361887E-17	0.000000E+00
1.901291E+03	5.398521E-17	0.000000E+00
1.940902E+03	5.388123E-17	0.000000E+00
1.980512E+03	5.327911E-17	0.000000E+00
2.020122E+03	5.224754E-17	0.000000E+00
2.059732E+03	5.099554E-17	0.000000E+00
2.099342E+03	4.988308E-17	0.000000E+00
2.138953E+03	4.930323E-17	0.000000E+00
2.178563E+03	4.950842E-17	0.000000E+00
2.218173E+03	5.047014E-17	0.000000E+00
2.257783E+03	5.193027E-17	0.000000E+00
2.297394E+03	5.354487E-17	0.000000E+00
2.337004E+03	5.501256E-17	0.000000E+00
2.376614E+03	5.614279E-17	0.000000E+00
2.416224E+03	5.683674E-17	0.000000E+00
2.455835E+03	5.706174E-17	0.000000E+00
2.495445E+03	5.682397E-17	0.000000E+00
2.535055E+03	5.614697E-17	0.000000E+00
2.574665E+03	5.506904E-17	0.000000E+00
2.614276E+03	5.362763E-17	0.000000E+00
2.653886E+03	5.186076E-17	0.000000E+00
2.693496E+03	4.981096E-17	0.000000E+00
2.733106E+03	4.751733E-17	0.000000E+00
2.772716E+03	4.502107E-17	0.000000E+00
2.812327E+03	4.236428E-17	0.000000E+00
2.851937E+03	3.959158E-17	0.000000E+00
2.891547E+03	3.675934E-17	0.000000E+00
2.931157E+03	3.392708E-17	0.000000E+00
2.970768E+03	3.115179E-17	0.000000E+00
2.980670E+03	3.047233E-17	0.000000E+00
2.990573E+03	2.980071E-17	0.000000E+00
3.000475E+03	2.913578E-17	0.000000E+00
3.010378E+03	2.847989E-17	0.000000E+00
3.020280E+03	2.783255E-17	0.000000E+00
3.030183E+03	2.719398E-17	0.000000E+00
3.040086E+03	2.656529E-17	0.000000E+00
3.049988E+03	2.594820E-17	0.000000E+00
3.059891E+03	2.534316E-17	0.000000E+00
3.069793E+03	2.475084E-17	0.000000E+00
3.079696E+03	2.417030E-17	0.000000E+00
3.089598E+03	2.360172E-17	0.000000E+00
3.099501E+03	2.304526E-17	0.000000E+00
3.109403E+03	2.250060E-17	0.000000E+00
3.119306E+03	2.196704E-17	0.000000E+00
3.129209E+03	2.144566E-17	0.000000E+00
3.139111E+03	2.093536E-17	0.000000E+00
3.149014E+03	2.043675E-17	0.000000E+00
3.158916E+03	1.994960E-17	0.000000E+00
3.168819E+03	1.947370E-17	0.000000E+00
3.178721E+03	1.900889E-17	0.000000E+00
3.188624E+03	1.855564E-17	0.000000E+00
3.198526E+03	1.811341E-17	0.000000E+00
3.208429E+03	1.768205E-17	0.000000E+00
3.218332E+03	1.726168E-17	0.000000E+00
3.228234E+03	1.685239E-17	0.000000E+00
3.238137E+03	1.645371E-17	0.000000E+00
3.248039E+03	1.606573E-17	0.000000E+00
3.257942E+03	1.568827E-17	0.000000E+00
3.267844E+03	1.532137E-17	0.000000E+00
3.277747E+03	1.496463E-17	0.000000E+00
3.287650E+03	1.461785E-17	0.000000E+00
3.297552E+03	1.428129E-17	0.000000E+00
3.307455E+03	1.395434E-17	0.000000E+00
3.317357E+03	1.363704E-17	0.000000E+00
3.327260E+03	1.332938E-17	0.000000E+00
3.337162E+03	1.303081E-17	0.000000E+00
3.347065E+03	1.274153E-17	0.000000E+00
3.356967E+03	1.246100E-17	0.000000E+00
3.366870E+03	1.218907E-17	0.000000E+00
3.376773E+03	1.192575E-17	0.000000E+00
3.386675E+03	1.167070E-17	0.000000E+00
3.396578E+03	1.142379E-17	0.000000E+00
3.406480E+03	1.118458E-17	0.000000E+00
3.416383E+03	1.095308E-17	0.000000E+00
3.426285E+03	1.072903E-17	0.000000E+00
3.436188E+03	1.051204E-17	0.000000E+00
3.446090E+03	1.030204E-17	0.000000E+00
3.455993E+03	1.009865E-17	0.000000E+00
3.465896E+03	9.901704E-18	0.000000E+00
3.475798E+03	9.711010E-18	0.000000E+00
3.485701E+03	9.526180E-18	0.000000E+00
3.495603E+03	9.346875E-18	0.000000E+00
3.505506E+03	9.172678E-18	0.000000E+00
3.515408E+03	9.003140E-18	0.000000E+00
3.525311E+03	8.837841E-18	0.000000E+00
3.535213E+03	8.676423E-18	0.000000E+00
3.545116E+03	8.518465E-18	0.000000E+00
3.555019E+03	8.363599E-18	0.000000E+00
3.564921E+03	8.211651E-18	0.000000E+00
3.574824E+03	8.062232E-18	0.000000E+00
3.584726E+03	7.915218E-18	0.000000E+00
3.594629E+03	7.770768E-18	0.000000E+00
3.604531E+03	7.628884E-18	0.000000E+00
3.614434E+03	7.489693E-18	0.000000E+00
3.624337E+03	7.353292E-18	0.000000E+00
3.634239E+03	7.219831E-18	0.000000E+00
3.644142E+03	7.089370E-18	0.000000E+00
3.654044E+03	6.961883E-18	0.000000E+00
3.663947E+03	6.837580E-18	0.000000E+00
3.673849E+03	6.716350E-18	0.000000E+00
3.683752E+03	6.598312E-18	0.000000E+00
3.693654E+03	6.483438E-18	0.000000E+00
3.703557E+03	6.371766E-18	0.000000E+00
3.713460E+03	6.263252E-18	0.000000E+00
3.723362E+03	6.157854E-18	0.000000E+00
3.733265E+03	6.055619E-18	0.000000E+00
3.743167E+03	5.956494E-18	0.000000E+00
3.753070E+03	5.860460E-18	0.000000E+00
3.762972E+03	5.767402E-18	0.000000E+00
3.772875E+03	5.677387E-18	0.000000E+00
3.782777E+03	5.590294E-18	0.000000E+00
3.792680E+03	5.506132E-18	0.000000E+00
3.802583E+03	5.424776E-18	0.000000E+00
3.812485E+03	5.346275E-18	0.000000E+00
3.822388E+03	5.270458E-18	0.000000E+00
3.832290E+03	5.197367E-18	0.000000E+00
3.842193E+03	5.126917E-18	0.000000E+00
3.852095E+03	5.059020E-18	0.000000E+00
3.861998E+03	4.993634E-18	0.000000E+00
3.871900E+03	4.930711E-18	0.000000E+00
3.881803E+03	4.870206E-18	0.000000E+00
3.891706E+03	4.812037E-18	0.000000E+00
3.901608E+03	4.756120E-18	0.000000E+00
3.911511E+03	4.702450E-18	0.000000E+00
3.921413E+03	4.650981E-18	0.000000E+00
3.931316E+03	4.601565E-18	0.000000E+00
3.941218E+03	4.554232E-18	0.000000E+00
3.951121E+03	4.508905E-18	0.000000E+00
3.961024E+03	4.465545E-18	0.000000E+00
3.970926E+03	4.424046E-18	0.000000E+00
3.980829E+03	4.384374E-18	0.000000E+00
3.990731E+03	4.346525E-18	0.000000E+00
4.000634E+03	4.310401E-18	0.000000E+00
4.010536E+03	4.275967E-18	0.000000E+00
4.020439E+03	4.243163E-18	0.000000E+00
4.030341E+03	4.211958E-18	0.000000E+00
4.040244E+03	4.182293E-18	0.000000E+00
4.050147E+03	4.154141E-18	0.000000E+00
4.060049E+03	4.127444E-18	0.000000E+00
4.069952E+03	4.102150E-18	0.000000E+00
4.079854E+03	4.078234E-18	0.000000E+00
4.089757E+03	4.055677E-18	0.000000E+00
4.099659E+03	4.034397E-18	0.000000E+00
4.109562E+03	4.014406E-18	0.000000E+00
4.119464E+03	3.995626E-18	0.000000E+00
4.129367E+03	3.978042E-18	0.000000E+00
4.139270E+03	3.961639E-18	0.000000E+00
4.149172E+03	3.946372E-18	0.000000E+00
4.159075E+03	3.932201E-18	0.000000E+00
4.168977E+03	3.919114E-18	0.000000E+00
4.178880E+03	3.907071E-18	0.000000E+00
4.188782E+03	3.896063E-18	0.000000E+00
4.198685E+03	3.886084E-18	0.000000E+00
4.208587E+03	3.877096E-18	0.000000E+00
4.218490E+03	3.869035E-18	0.000000E+00
4.228393E+03	3.861956E-18	0.000000E+00
4.238295E+03	3.855797E-18	0.000000E+00
4.248198E+03	3.850555E-18	0.000000E+00
4.258100E+03	3.846170E-18	0.000000E+00
4.268003E+03	3.842671E-18	0.000000E+00
4.277905E+03	3.840031E-18	0.000000E+00
4.287808E+03	3.838221E-18	0.000000E+00
4.297711E+03	3.837245E-18	0.000000E+00
4.307613E+03	3.837076E-18	0.000000E+00
4.317516E+03	3.837782E-18	0.000000E+00
4.327418E+03	3.839308E-18	0.000000E+00
4.337321E+03	3.841661E-18	0.000000E+00
4.347223E+03	3.844852E-18	0.000000E+00
4.357126E+03	3.848830E-18	0.000000E+00
4.367028E+03	3.853605E-18	0.000000E+00
4.376931E+03	3.859158E-18	0.000000E+00
4.386834E+03	3.865442E-18	0.000000E+00
4.396736E+03	3.872501E-18	0.000000E+00
4.406639E+03	3.880288E-18	0.000000E+00
4.416541E+03	3.888787E-18	0.000000E+00
4.426444E+03	3.897952E-18	0.000000E+00
4.436346E+03	3.907832E-18	0.000000E+00
4.446249E+03	3.918414E-18	0.000000E+00
4.456151E+03	3.929621E-18	0.000000E+00
4.466054E+03	3.941506E-18	0.000000E+00
4.475957E+03	3.954024E-18	0.000000E+00
4.485859E+03	3.967165E-18	0.000000E+00
4.495762E+03	3.980951E-18	0.000000E+00
4.505664E+03	3.995373E-18	0.000000E+00
4.515567E+03	4.010388E-18	0.000000E+00
4.525469E+03	4.025988E-18	0.000000E+00
4.535372E+03	4.042198E-18	0.000000E+00
4.545274E+03	4.059010E-18	0.000000E+00
4.555177E+03	4.076350E-18	0.000000E+00
4.565080E+03	4.094278E-18	0.000000E+00
4.574982E+03	4.112788E-18	0.000000E+00
4.584885E+03	4.131805E-18	0.000000E+00
4.594787E+03	4.151358E-18	0.000000E+00
4.604690E+03	4.171440E-18	0.000000E+00
4.614592E+03	4.192011E-18	0.000000E+00
4.624495E+03	4.213136E-18	0.000000E+00
4.634398E+03	4.234777E-18	0.000000E+00
4.644300E+03	4.256965E-18	0.000000E+00
4.654203E+03	4.279696E-18	0.000000E+00
4.664105E+03	4.303005E-18	0.000000E+00
4.674008E+03	4.326853E-18	0.000000E+00
4.683910E+03	4.351313E-18	0.000000E+00
4.693813E+03	4.376347E-18	0.000000E+00
4.703715E+03	4.402070E-18	0.000000E+00
4.713618E+03	4.428406E-18	0.000000E+00
4.723521E+03	4.455394E-18	0.000000E+00
4.733423E+03	4.483116E-18	0.000000E+00
4.743326E+03	4.511537E-18	0.000000E+00
4.753228E+03	4.540741E-18	0.000000E+00
4.763131E+03	4.570651E-18	0.000000E+00
4.773033E+03	4.601355E-18	0.000000E+00
4.782936E+03	4.632859E-18	0.000000E+00
4.792838E+03	4.665127E-18	0.000000E+00
4.802741E+03	4.698207E-18	0.000000E+00
4.812644E+03	4.732151E-18	0.000000E+00
4.822546E+03	4.766879E-18	0.000000E+00
4.832449E+03	4.802441E-18	0.000000E+00
4.842351E+03	4.838891E-18	0.000000E+00
4.852254E+03	4.876147E-18	0.000000E+00
4.862156E+03	4.914261E-18	0.000000E+00
4.872059E+03	4.953241E-18	0.000000E+00
4.881961E+03	4.993097E-18	0.000000E+00
4.891864E+03	5.033834E-18	0.000000E+00
4.901767E+03	5.075414E-18	0.000000E+00
4.911669E+03	5.117893E-18	0.000000E+00
4.921572E+03	5.161229E-18	0.000000E+00
4.931474E+03	5.205430E-18	0.000000E+00
4.941377E+03	5.250501E-18	0.000000E+00
4.951279E+03	5.296450E-18	0.000000E+00
4.961182E+03	5.343281E-18	0.000000E+00
4.971085E+03	5.391001E-18	0.000000E+00
4.980987E+03	5.439563E-18	0.000000E+00
4.990890E+03	5.488972E-18	0.000000E+00
5.000792E+03	5.539231E-18	0.000000E+00
5.010695E+03	5.590341E-18	0.000000E+00
5.020597E+03	5.642306E-18	0.000000E+00
5.030500E+03	5.695128E-18	0.000000E+00
5.040402E+03	5.748699E-18	0.000000E+00
5.050305E+03	5.803125E-18	0.000000E+00
5.060208E+03	5.858407E-18	0.000000E+00
5.070110E+03	5.914433E-18	0.000000E+00
5.080013E+03	5.971196E-18	0.000000E+00
5.089915E+03	6.028750E-18	0.000000E+00
5.099818E+03	6.087088E-18	0.000000E+00
5.109720E+03	6.146089E-18	0.000000E+00
5.119623E+03	6.205799E-18	0.000000E+00
5.129525E+03	6.266273E-18	0.000000E+00
5.139428E+03	6.327378E-18	0.000000E+00
5.149331E+03	6.389102E-18	0.000000E+00
5.159233E+03	6.451429E-18	0.000000E+00
5.169136E+03	6.514407E-18	0.000000E+00
5.179038E+03	6.577958E-18	0.000000E+00
5.188941E+03	6.642063E-18	0.000000E+00
5.198843E+03	6.706637E-18	0.000000E+00
5.208746E+03	6.771724E-18	0.000000E+00
5.218648E+03	6.837301E-18	0.000000E+00
5.228551E+03	6.903278E-18	0.000000E+00
5.238454E+03	6.969694E-18	0.000000E+00
5.248356E+03	7.036456E-18	0.000000E+00
5.258259E+03	7.103530E-18	0.000000E+00
5.268161E+03	7.170957E-18	0.000000E+00
5.278064E+03	7.238634E-18	0.000000E+00
5.287966E+03	7.306531E-18	0.000000E+00
5.297869E+03	7.374607E-18	0.000000E+00
5.307772E+03	7.442819E-18	0.000000E+00
5.317674E+03	7.511138E-18	0.000000E+00
5.327577E+03	7.579514E-18	0.000000E+00
5.337479E+03	7.647905E-18	0.000000E+00
5.347382E+03	7.716197E-18	0.000000E+00
5.357284E+03	7.784340E-18	0.000000E+00
5.367187E+03	7.852354E-18	0.000000E+00
5.377089E+03	7.920125E-18	0.000000E+00
5.386992E+03	7.987595E-18	0.000000E+00
5.396895E+03	8.054622E-18	0.000000E+00
5.406797E+03	8.121247E-18	0.000000E+00
5.416700E+03	8.187241E-18	0.000000E+00
5.426602E+03	8.252709E-18	0.000000E+00
5.436505E+03	8.317337E-18	0.000000E+00
5.446407E+03	8.381159E-18	0.000000E+00
5.456310E+03	8.444109E-18	0.000000E+00
5.466212E+03	8.506028E-18	0.000000E+00
5.476115E+03	8.566856E-18	0.000000E+00
5.486018E+03	8.626443E-18	0.000000E+00
5.495920E+03	8.684727E-18	0.000000E+00
5.505823E+03	8.741629E-18	0.000000E+00
5.515725E+03	8.797088E-18	0.000000E+00
5.525628E+03	8.850951E-18	0.000000E+00
5.535530E+03	8.903150E-18	0.000000E+00
5.545433E+03	8.953619E-18	0.000000E+00
5.555335E+03	9.002297E-18	0.000000E+00
5.565238E+03	9.049029E-18	0.000000E+00
5.575141E+03	9.093763E-18	0.000000E+00
5.585043E+03	9.136523E-18	0.000000E+00
5.594946E+03	9.177163E-18	0.000000E+00
5.604848E+03	9.215535E-18	0.000000E+00
5.614751E+03	9.251779E-18	0.000000E+00
5.624653E+03	9.285856E-18	0.000000E+00
5.634556E+03	9.317524E-18	0.000000E+00
5.644459E+03	9.346844E-18	0.000000E+00
5.654361E+03	9.373877E-18	0.000000E+00
5.664264E+03	9.398498E-18	0.000000E+00
5.674166E+03	9.420673E-18	0.000000E+00
5.684069E+03	9.440478E-18	0.000000E+00
5.693971E+03	9.457807E-18	0.000000E+00
5.703874E+03	9.472832E-18	0.000000E+00
5.713776E+03	9.485353E-18	0.000000E+00
5.723679E+03	9.495459E-18	0.000000E+00
5.733582E+03	9.503163E-18	0.000000E+00
5.743484E+03	9.508555E-18	0.000000E+00
5.753387E+03	9.511551E-18	0.000000E+00
5.763289E+03	9.512271E-18	0.000000E+00
5.773192E+03	9.510728E-18	0.000000E+00
5.783094E+03	9.506836E-18	0.000000E+00
5.792997E+03	9.500834E-18	0.000000E+00
5.802899E+03	9.492644E-18	0.000000E+00
5.812802E+03	9.482418E-18	0.000000E+00
5.822705E+03	9.470072E-18	0.000000E+00
5.832607E+03	9.455756E-18	0.000000E+00
5.842510E+03	9.439518E-18	0.000000E+00
5.852412E+03	9.421400E-18	0.000000E+00
5.862315E+03	9.401560E-18	0.000000E+00
5.872217E+03	9.379841E-18	0.000000E+00
5.882120E+03	9.356498E-18	0.000000E+00
5.892022E+03	9.331601E-18	0.000000E+00
5.901925E+03	9.305200E-18	0.000000E+00
5.911828E+03	9.277248E-18	0.000000E+00
5.921730E+03	9.247912E-18	0.000000E+00
5.931633E+03	9.217367E-18	0.000000E+00
5.941535E+03	9.185441E-18	0.000000E+00
5.951438E+03	9.152435E-18	0.000000E+00
5.961340E+03	9.118280E-18	0.000000E+00
5.971243E+03	9.083167E-18	0.000000E+00
5.981146E+03	9.046918E-18	0.000000E+00
5.991048E+03	9.009819E-18	0.000000E+00
6.000951E+03	8.971926E-18	0.000000E+00
6.010853E+03	8.933181E-18	0.000000E+00
6.020756E+03	8.893642E-18	0.000000E+00
6.030658E+03	8.853470E-18	0.000000E+00
6.040561E+03	8.812591E-18	0.000000E+00
6.050463E+03	8.771180E-18	0.000000E+00
6.060366E+03	8.729157E-18	0.000000E+00
6.070269E+03	8.686683E-18	0.000000E+00
6.080171E+03	8.643891E-18	0.000000E+00
6.090074E+03	8.600721E-18	0.000000E+00
6.099976E+03	8.557298E-18	0.000000E+00
6.109879E+03	8.513882E-18	0.000000E+00
6.119781E+03	8.470487E-18	0.000000E+00
6.129684E+03	8.427253E-18	0.000000E+00
6.139586E+03	8.384079E-18	0.000000E+00
6.149489E+03	8.340986E-18	0.000000E+00
6.159392E+03	8.297880E-18	0.000000E+00
6.169294E+03	8.254775E-18	0.000000E+00
6.179197E+03	8.211798E-18	0.000000E+00
6.189099E+03	8.168852E-18	0.000000E+00
6.199002E+03	8.125961E-18	0.000000E+00
6.208904E+03	8.083237E-18	0.000000E+00
6.218807E+03	8.040827E-18	0.000000E+00
6.228709E+03	7.998733E-18	0.000000E+00
6.238612E+03	7.956985E-18	0.000000E+00
6.248515E+03	7.915933E-18	0.000000E+00
6.258417E+03	7.875362E-18	0.000000E+00
6.268320E+03	7.835758E-18	0.000000E+00
6.278222E+03	7.797009E-18	0.000000E+00
6.288125E+03	7.759259E-18	0.000000E+00
6.298027E+03	7.722858E-18	0.000000E+00
6.307930E+03	7.687825E-18	0.000000E+00
6.317833E+03	7.654302E-18	0.000000E+00
6.327735E+03	7.622411E-18	0.000000E+00
6.337638E+03	7.592409E-18	0.000000E+00
6.347540E+03	7.564200E-18	0.000000E+00
6.357443E+03	7.537572E-18	0.000000E+00
6.367345E+03	7.512437E-18	0.000000E+00
6.377248E+03	7.488708E-18	0.000000E+00
6.387150E+03	7.466289E-18	0.000000E+00
6.397053E+03	7.444973E-18	0.000000E+00
6.406956E+03	7.424671E-18	0.000000E+00
6.416858E+03	7.405295E-18	0.000000E+00
6.426761E+03	7.386868E-18	0.000000E+00
6.436663E+03	7.369304E-18	0.000000E+00
6.446566E+03	7.352512E-18	0.000000E+00
6.456468E+03	7.336636E-18	0.000000E+00
6.466371E+03	7.321468E-18	0.000000E+00
6.476273E+03	7.307151E-18	0.000000E+00
6.486176E+03	7.293593E-18	0.000000E+00
6.496079E+03	7.280933E-18	0.000000E+00
6.505981E+03	7.269076E-18	0.000000E+00
6.515884E+03	7.258041E-18	0.000000E+00
6.525786E+03	7.247845E-18	0.000000E+00
6.535689E+03	7.238622E-18	0.000000E+00
6.545591E+03	7.230146E-18	0.000000E+00
6.555494E+03	7.222665E-18	0.000000E+00
6.565396E+03	7.216066E-18	0.000000E+00
6.575299E+03	7.210356E-18	0.000000E+00
6.585202E+03	7.205655E-18	0.000000E+00
6.595104E+03	7.201727E-18	0.000000E+00
6.605007E+03	7.198811E-18	0.000000E+00
6.614909E+03	7.196787E-18	0.000000E+00
6.624812E+03	7.195654E-18	0.000000E+00
6.634714E+03	7.195533E-18	0.000000E+00
6.644617E+03	7.196305E-18	0.000000E+00
6.654520E+03	7.197965E-18	0.000000E+00
6.664422E+03	7.200515E-18	0.000000E+00
6.674325E+03	7.204079E-18	0.000000E+00
6.684227E+03	7.208532E-18	0.000000E+00
6.694130E+03	7.213870E-18	0.000000E+00
6.704032E+03	7.220217E-18	0.000000E+00
6.713935E+03	7.227441E-18	0.000000E+00
6.723837E+03	7.235537E-18	0.000000E+00
6.733740E+03	7.244622E-18	0.000000E+00
6.743643E+03	7.254428E-18	0.000000E+00
6.753545E+03	7.265202E-18	0.000000E+00
6.763448E+03	7.276929E-18	0.000000E+00
6.773350E+03	7.289329E-18	0.000000E+00
6.783253E+03	7.302645E-18	0.000000E+00
6.793155E+03	7.316721E-18	0.000000E+00
6.803058E+03	7.331533E-18	0.000000E+00
6.812960E+03	7.347053E-18	0.000000E+00
6.822863E+03	7.363253E-18	0.000000E+00
6.832766E+03	7.380239E-18	0.000000E+00
6.842668E+03	7.397710E-18	0.000000E+00
6.852571E+03	7.415909E-18	0.000000E+00
6.862473E+03	7.434531E-18	0.000000E+00
6.872376E+03	7.453823E-18	0.000000E+00
6.882278E+03	7.473478E-18	0.000000E+00
6.892181E+03	7.493750E-18	0.000000E+00
6.902083E+03	7.514329E-18	0.000000E+00
6.911986E+03	7.535333E-18	0.000000E+00
6.921889E+03	7.556739E-18	0.000000E+00
6.931791E+03	7.578382E-18	0.000000E+00
6.941694E+03	7.600536E-18	0.000000E+00
6.951596E+03	7.622894E-18	0.000000E+00
6.961499E+03	7.645442E-18	0.000000E+00
6.971401E+03	7.668320E-18	0.000000E+00
6.981304E+03	7.691522E-18	0.000000E+00
6.991207E+03	7.714901E-18	0.000000E+00
7.001109E+03	7.738440E-18	0.000000E+00
7.011012E+03	7.762300E-18	0.000000E+00
7.020914E+03	7.786343E-18	0.000000E+00
7.030817E+03	7.810545E-18	0.000000E+00
7.040719E+03	7.834931E-18	0.000000E+00
7.050622E+03	7.859662E-18	0.000000E+00
7.060524E+03	7.884415E-18	0.000000E+00
7.070427E+03	7.909529E-18	0.000000E+00
7.080330E+03	7.934673E-18	0.000000E+00
7.090232E+03	7.960024E-18	0.000000E+00
7.100135E+03	7.985583E-18	0.000000E+00
7.110037E+03	8.011358E-18	0.000000E+00
7.119940E+03	8.037186E-18	0.000000E+00
7.129842E+03	8.063230E-18	0.000000E+00
7.139745E+03	8.089490E-18	0.000000E+00
7.149647E+03	8.115812E-18	0.000000E+00
7.159550E+03	8.142172E-18	0.000000E+00
7.169453E+03	8.168749E-18	0.000000E+00
7.179355E+03	8.195373E-18	0.000000E+00
7.189258E+03	8.222034E-18	0.000000E+00
7.199160E+03	8.248905E-18	0.000000E+00
7.209063E+03	8.275807E-18	0.000000E+00
7.218965E+03	8.302748E-18	0.000000E+00
7.228868E+03	8.330076E-18	0.000000E+00
7.238770E+03	8.357257E-18	0.000000E+00
7.248673E+03	8.384835E-18	0.000000E+00
7.258576E+03	8.412436E-18	0.000000E+00
7.268478E+03	8.440441E-18	0.000000E+00
7.278381E+03	8.468665E-18	0.000000E+00
7.288283E+03	8.497287E-18	0.000000E+00
7.298186E+03	8.526510E-18	0.000000E+00
7.308088E+03	8.556131E-18	0.000000E+00
7.317991E+03	8.586736E-18	0.000000E+00
7.327894E+03	8.618148E-18	0.000000E+00
7.337796E+03	8.650344E-18	0.000000E+00
7.347699E+03	8.684152E-18	0.000000E+00
7.357601E+03	8.718965E-18	0.000000E+00
7.367504E+03	8.755403E-18	0.000000E+00
7.377406E+03	8.793475E-18	0.000000E+00
7.387309E+03	8.832776E-18	0.000000E+00
7.397211E+03	8.873089E-18	0.000000E+00
7.407114E+03	8.914407E-18	0.000000E+00
7.417017E+03	8.956496E-18	0.000000E+00
7.426919E+03	8.999350E-18	0.000000E+00
7.436822E+03	9.042702E-18	0.000000E+00
7.446724E+03	9.086318E-18	0.000000E+00
7.456627E+03	9.130150E-18	0.000000E+00
7.466529E+03	9.174153E-18	0.000000E+00
7.476432E+03	9.218049E-18	0.000000E+00
7.486334E+03	9.262022E-18	0.000000E+00
7.496237E+03	9.305550E-18	0.000000E+00
7.506140E+03	9.349034E-18	0.000000E+00
7.516042E+03	9.392200E-18	0.000000E+00
7.525945E+03	9.434738E-18	0.000000E+00
7.535847E+03	9.476838E-18	0.000000E+00
7.545750E+03	9.518198E-18	0.000000E+00
7.555652E+03	9.558991E-18	0.000000E+00
7.565555E+03	9.599185E-18	0.000000E+00
7.575457E+03	9.638470E-18	0.000000E+00
7.585360E+03	9.677035E-18	0.000000E+00
7.595263E+03	9.714593E-18	0.000000E+00
7.605165E+03	9.751350E-18	0.000000E+00
7.615068E+03	9.787248E-18	0.000000E+00
7.624970E+03	9.821986E-18	0.000000E+00
7.634873E+03	9.855790E-18	0.000000E+00
7.644775E+03	9.888605E-18	0.000000E+00
7.654678E+03	9.920389E-18	0.000000E+00
7.664581E+03	9.951093E-18	0.000000E+00
7.674483E+03	9.980675E-18	0.000000E+00
7.684386E+03	1.000908E-17	0.000000E+00
