#wls	flux	fluxerr
1.584409E+03	5.217294E-17	0.000000E+00
1.624020E+03	5.456441E-17	0.000000E+00
1.663630E+03	5.683545E-17	0.000000E+00
1.703240E+03	5.895172E-17	0.000000E+00
1.742850E+03	6.088151E-17	0.000000E+00
1.782461E+03	6.256377E-17	0.000000E+00
1.822071E+03	6.392431E-17	0.000000E+00
1.861681E+03	6.487660E-17	0.000000E+00
1.901291E+03	6.532231E-17	0.000000E+00
1.940902E+03	6.518147E-17	0.000000E+00
1.980512E+03	6.442458E-17	0.000000E+00
2.020122E+03	6.313362E-17	0.000000E+00
2.059732E+03	6.156091E-17	0.000000E+00
2.099342E+03	6.014060E-17	0.000000E+00
2.138953E+03	5.934483E-17	0.000000E+00
2.178563E+03	5.946491E-17	0.000000E+00
2.218173E+03	6.044087E-17	0.000000E+00
2.257783E+03	6.192581E-17	0.000000E+00
2.297394E+03	6.351063E-17	0.000000E+00
2.337004E+03	6.486077E-17	0.000000E+00
2.376614E+03	6.576007E-17	0.000000E+00
2.416224E+03	6.610202E-17	0.000000E+00
2.455835E+03	6.585724E-17	0.000000E+00
2.495445E+03	6.504608E-17	0.000000E+00
2.535055E+03	6.370638E-17	0.000000E+00
2.574665E+03	6.189276E-17	0.000000E+00
2.614276E+03	5.965871E-17	0.000000E+00
2.653886E+03	5.705582E-17	0.000000E+00
2.693496E+03	5.414265E-17	0.000000E+00
2.733106E+03	5.097373E-17	0.000000E+00
2.772716E+03	4.760502E-17	0.000000E+00
2.812327E+03	4.409296E-17	0.000000E+00
2.851937E+03	4.049721E-17	0.000000E+00
2.891547E+03	3.688486E-17	0.000000E+00
2.931157E+03	3.332839E-17	0.000000E+00
2.970768E+03	2.989238E-17	0.000000E+00
2.980670E+03	2.905840E-17	0.000000E+00
2.990573E+03	2.823703E-17	0.000000E+00
3.000475E+03	2.742732E-17	0.000000E+00
3.010378E+03	2.663038E-17	0.000000E+00
3.020280E+03	2.584775E-17	0.000000E+00
3.030183E+03	2.507857E-17	0.000000E+00
3.040086E+03	2.432453E-17	0.000000E+00
3.049988E+03	2.358679E-17	0.000000E+00
3.059891E+03	2.286634E-17	0.000000E+00
3.069793E+03	2.216286E-17	0.000000E+00
3.079696E+03	2.147699E-17	0.000000E+00
3.089598E+03	2.080797E-17	0.000000E+00
3.099501E+03	2.015598E-17	0.000000E+00
3.109403E+03	1.952079E-17	0.000000E+00
3.119306E+03	1.890221E-17	0.000000E+00
3.129209E+03	1.830039E-17	0.000000E+00
3.139111E+03	1.771546E-17	0.000000E+00
3.149014E+03	1.714654E-17	0.000000E+00
3.158916E+03	1.659440E-17	0.000000E+00
3.168819E+03	1.605849E-17	0.000000E+00
3.178721E+03	1.553885E-17	0.000000E+00
3.188624E+03	1.503525E-17	0.000000E+00
3.198526E+03	1.454717E-17	0.000000E+00
3.208429E+03	1.407512E-17	0.000000E+00
3.218332E+03	1.361809E-17	0.000000E+00
3.228234E+03	1.317648E-17	0.000000E+00
3.238137E+03	1.275000E-17	0.000000E+00
3.248039E+03	1.233791E-17	0.000000E+00
3.257942E+03	1.194050E-17	0.000000E+00
3.267844E+03	1.155705E-17	0.000000E+00
3.277747E+03	1.118745E-17	0.000000E+00
3.287650E+03	1.083134E-17	0.000000E+00
3.297552E+03	1.048855E-17	0.000000E+00
3.307455E+03	1.015856E-17	0.000000E+00
3.317357E+03	9.841057E-18	0.000000E+00
3.327260E+03	9.535691E-18	0.000000E+00
3.337162E+03	9.242252E-18	0.000000E+00
3.347065E+03	8.960280E-18	0.000000E+00
3.356967E+03	8.689430E-18	0.000000E+00
3.366870E+03	8.429373E-18	0.000000E+00
3.376773E+03	8.179686E-18	0.000000E+00
3.386675E+03	7.940055E-18	0.000000E+00
3.396578E+03	7.710176E-18	0.000000E+00
3.406480E+03	7.489655E-18	0.000000E+00
3.416383E+03	7.278197E-18	0.000000E+00
3.426285E+03	7.075437E-18	0.000000E+00
3.436188E+03	6.881031E-18	0.000000E+00
3.446090E+03	6.694635E-18	0.000000E+00
3.455993E+03	6.515876E-18	0.000000E+00
3.465896E+03	6.344513E-18	0.000000E+00
3.475798E+03	6.180200E-18	0.000000E+00
3.485701E+03	6.022531E-18	0.000000E+00
3.495603E+03	5.871083E-18	0.000000E+00
3.505506E+03	5.725645E-18	0.000000E+00
3.515408E+03	5.585837E-18	0.000000E+00
3.525311E+03	5.451204E-18	0.000000E+00
3.535213E+03	5.321495E-18	0.000000E+00
3.545116E+03	5.196422E-18	0.000000E+00
3.555019E+03	5.075672E-18	0.000000E+00
3.564921E+03	4.958909E-18	0.000000E+00
3.574824E+03	4.846010E-18	0.000000E+00
3.584726E+03	4.736765E-18	0.000000E+00
3.594629E+03	4.630975E-18	0.000000E+00
3.604531E+03	4.528660E-18	0.000000E+00
3.614434E+03	4.429704E-18	0.000000E+00
3.624337E+03	4.334027E-18	0.000000E+00
3.634239E+03	4.241586E-18	0.000000E+00
3.644142E+03	4.152329E-18	0.000000E+00
3.654044E+03	4.066162E-18	0.000000E+00
3.663947E+03	3.983093E-18	0.000000E+00
3.673849E+03	3.902982E-18	0.000000E+00
3.683752E+03	3.825794E-18	0.000000E+00
3.693654E+03	3.751517E-18	0.000000E+00
3.703557E+03	3.679976E-18	0.000000E+00
3.713460E+03	3.611216E-18	0.000000E+00
3.723362E+03	3.545063E-18	0.000000E+00
3.733265E+03	3.481523E-18	0.000000E+00
3.743167E+03	3.420511E-18	0.000000E+00
3.753070E+03	3.361944E-18	0.000000E+00
3.762972E+03	3.305763E-18	0.000000E+00
3.772875E+03	3.251885E-18	0.000000E+00
3.782777E+03	3.200255E-18	0.000000E+00
3.792680E+03	3.150814E-18	0.000000E+00
3.802583E+03	3.103482E-18	0.000000E+00
3.812485E+03	3.058204E-18	0.000000E+00
3.822388E+03	3.014925E-18	0.000000E+00
3.832290E+03	2.973569E-18	0.000000E+00
3.842193E+03	2.934083E-18	0.000000E+00
3.852095E+03	2.896417E-18	0.000000E+00
3.861998E+03	2.860499E-18	0.000000E+00
3.871900E+03	2.826282E-18	0.000000E+00
3.881803E+03	2.793697E-18	0.000000E+00
3.891706E+03	2.762722E-18	0.000000E+00
3.901608E+03	2.733291E-18	0.000000E+00
3.911511E+03	2.705363E-18	0.000000E+00
3.921413E+03	2.678858E-18	0.000000E+00
3.931316E+03	2.653776E-18	0.000000E+00
3.941218E+03	2.630041E-18	0.000000E+00
3.951121E+03	2.607617E-18	0.000000E+00
3.961024E+03	2.586451E-18	0.000000E+00
3.970926E+03	2.566530E-18	0.000000E+00
3.980829E+03	2.547784E-18	0.000000E+00
3.990731E+03	2.530203E-18	0.000000E+00
4.000634E+03	2.513720E-18	0.000000E+00
4.010536E+03	2.498328E-18	0.000000E+00
4.020439E+03	2.483964E-18	0.000000E+00
4.030341E+03	2.470604E-18	0.000000E+00
4.040244E+03	2.458225E-18	0.000000E+00
4.050147E+03	2.446805E-18	0.000000E+00
4.060049E+03	2.436288E-18	0.000000E+00
4.069952E+03	2.426654E-18	0.000000E+00
4.079854E+03	2.417867E-18	0.000000E+00
4.089757E+03	2.409910E-18	0.000000E+00
4.099659E+03	2.402769E-18	0.000000E+00
4.109562E+03	2.396392E-18	0.000000E+00
4.119464E+03	2.390782E-18	0.000000E+00
4.129367E+03	2.385892E-18	0.000000E+00
4.139270E+03	2.381711E-18	0.000000E+00
4.149172E+03	2.378227E-18	0.000000E+00
4.159075E+03	2.375395E-18	0.000000E+00
4.168977E+03	2.373205E-18	0.000000E+00
4.178880E+03	2.371633E-18	0.000000E+00
4.188782E+03	2.370688E-18	0.000000E+00
4.198685E+03	2.370311E-18	0.000000E+00
4.208587E+03	2.370513E-18	0.000000E+00
4.218490E+03	2.371254E-18	0.000000E+00
4.228393E+03	2.372549E-18	0.000000E+00
4.238295E+03	2.374338E-18	0.000000E+00
4.248198E+03	2.376621E-18	0.000000E+00
4.258100E+03	2.379393E-18	0.000000E+00
4.268003E+03	2.382598E-18	0.000000E+00
4.277905E+03	2.386256E-18	0.000000E+00
4.287808E+03	2.390289E-18	0.000000E+00
4.297711E+03	2.394718E-18	0.000000E+00
4.307613E+03	2.399448E-18	0.000000E+00
4.317516E+03	2.404480E-18	0.000000E+00
4.327418E+03	2.409872E-18	0.000000E+00
4.337321E+03	2.415626E-18	0.000000E+00
4.347223E+03	2.421763E-18	0.000000E+00
4.357126E+03	2.428289E-18	0.000000E+00
4.367028E+03	2.435171E-18	0.000000E+00
4.376931E+03	2.442452E-18	0.000000E+00
4.386834E+03	2.450100E-18	0.000000E+00
4.396736E+03	2.458122E-18	0.000000E+00
4.406639E+03	2.466507E-18	0.000000E+00
4.416541E+03	2.475264E-18	0.000000E+00
4.426444E+03	2.484362E-18	0.000000E+00
4.436346E+03	2.493832E-18	0.000000E+00
4.446249E+03	2.503644E-18	0.000000E+00
4.456151E+03	2.513792E-18	0.000000E+00
4.466054E+03	2.524306E-18	0.000000E+00
4.475957E+03	2.535140E-18	0.000000E+00
4.485859E+03	2.546307E-18	0.000000E+00
4.495762E+03	2.557824E-18	0.000000E+00
4.505664E+03	2.569662E-18	0.000000E+00
4.515567E+03	2.581840E-18	0.000000E+00
4.525469E+03	2.594331E-18	0.000000E+00
4.535372E+03	2.607154E-18	0.000000E+00
4.545274E+03	2.620306E-18	0.000000E+00
4.555177E+03	2.633785E-18	0.000000E+00
4.565080E+03	2.647567E-18	0.000000E+00
4.574982E+03	2.661694E-18	0.000000E+00
4.584885E+03	2.676121E-18	0.000000E+00
4.594787E+03	2.690871E-18	0.000000E+00
4.604690E+03	2.705942E-18	0.000000E+00
4.614592E+03	2.721313E-18	0.000000E+00
4.624495E+03	2.737030E-18	0.000000E+00
4.634398E+03	2.753046E-18	0.000000E+00
4.644300E+03	2.769388E-18	0.000000E+00
4.654203E+03	2.786105E-18	0.000000E+00
4.664105E+03	2.803175E-18	0.000000E+00
4.674008E+03	2.820627E-18	0.000000E+00
4.683910E+03	2.838489E-18	0.000000E+00
4.693813E+03	2.856767E-18	0.000000E+00
4.703715E+03	2.875464E-18	0.000000E+00
4.713618E+03	2.894638E-18	0.000000E+00
4.723521E+03	2.914245E-18	0.000000E+00
4.733423E+03	2.934342E-18	0.000000E+00
4.743326E+03	2.954937E-18	0.000000E+00
4.753228E+03	2.976013E-18	0.000000E+00
4.763131E+03	2.997628E-18	0.000000E+00
4.773033E+03	3.019768E-18	0.000000E+00
4.782936E+03	3.042439E-18	0.000000E+00
4.792838E+03	3.065651E-18	0.000000E+00
4.802741E+03	3.089413E-18	0.000000E+00
4.812644E+03	3.113792E-18	0.000000E+00
4.822546E+03	3.138713E-18	0.000000E+00
4.832449E+03	3.164242E-18	0.000000E+00
4.842351E+03	3.190363E-18	0.000000E+00
4.852254E+03	3.217113E-18	0.000000E+00
4.862156E+03	3.244475E-18	0.000000E+00
4.872059E+03	3.272459E-18	0.000000E+00
4.881961E+03	3.301106E-18	0.000000E+00
4.891864E+03	3.330365E-18	0.000000E+00
4.901767E+03	3.360278E-18	0.000000E+00
4.911669E+03	3.390855E-18	0.000000E+00
4.921572E+03	3.422106E-18	0.000000E+00
4.931474E+03	3.454010E-18	0.000000E+00
4.941377E+03	3.486576E-18	0.000000E+00
4.951279E+03	3.519846E-18	0.000000E+00
4.961182E+03	3.553762E-18	0.000000E+00
4.971085E+03	3.588402E-18	0.000000E+00
4.980987E+03	3.623704E-18	0.000000E+00
4.990890E+03	3.659679E-18	0.000000E+00
5.000792E+03	3.696367E-18	0.000000E+00
5.010695E+03	3.733739E-18	0.000000E+00
5.020597E+03	3.771804E-18	0.000000E+00
5.030500E+03	3.810530E-18	0.000000E+00
5.040402E+03	3.849959E-18	0.000000E+00
5.050305E+03	3.890096E-18	0.000000E+00
5.060208E+03	3.930872E-18	0.000000E+00
5.070110E+03	3.972325E-18	0.000000E+00
5.080013E+03	4.014458E-18	0.000000E+00
5.089915E+03	4.057274E-18	0.000000E+00
5.099818E+03	4.100735E-18	0.000000E+00
5.109720E+03	4.144841E-18	0.000000E+00
5.119623E+03	4.189551E-18	0.000000E+00
5.129525E+03	4.234943E-18	0.000000E+00
5.139428E+03	4.280933E-18	0.000000E+00
5.149331E+03	4.327518E-18	0.000000E+00
5.159233E+03	4.374690E-18	0.000000E+00
5.169136E+03	4.422489E-18	0.000000E+00
5.179038E+03	4.470820E-18	0.000000E+00
5.188941E+03	4.519674E-18	0.000000E+00
5.198843E+03	4.569129E-18	0.000000E+00
5.208746E+03	4.619039E-18	0.000000E+00
5.218648E+03	4.669482E-18	0.000000E+00
5.228551E+03	4.720397E-18	0.000000E+00
5.238454E+03	4.771768E-18	0.000000E+00
5.248356E+03	4.823623E-18	0.000000E+00
5.258259E+03	4.875849E-18	0.000000E+00
5.268161E+03	4.928470E-18	0.000000E+00
5.278064E+03	4.981462E-18	0.000000E+00
5.287966E+03	5.034800E-18	0.000000E+00
5.297869E+03	5.088506E-18	0.000000E+00
5.307772E+03	5.142449E-18	0.000000E+00
5.317674E+03	5.196647E-18	0.000000E+00
5.327577E+03	5.251066E-18	0.000000E+00
5.337479E+03	5.305615E-18	0.000000E+00
5.347382E+03	5.360360E-18	0.000000E+00
5.357284E+03	5.415206E-18	0.000000E+00
5.367187E+03	5.470055E-18	0.000000E+00
5.377089E+03	5.524857E-18	0.000000E+00
5.386992E+03	5.579616E-18	0.000000E+00
5.396895E+03	5.634167E-18	0.000000E+00
5.406797E+03	5.688509E-18	0.000000E+00
5.416700E+03	5.742583E-18	0.000000E+00
5.426602E+03	5.796211E-18	0.000000E+00
5.436505E+03	5.849325E-18	0.000000E+00
5.446407E+03	5.901915E-18	0.000000E+00
5.456310E+03	5.953851E-18	0.000000E+00
5.466212E+03	6.004999E-18	0.000000E+00
5.476115E+03	6.055223E-18	0.000000E+00
5.486018E+03	6.104563E-18	0.000000E+00
5.495920E+03	6.152758E-18	0.000000E+00
5.505823E+03	6.199785E-18	0.000000E+00
5.515725E+03	6.245501E-18	0.000000E+00
5.525628E+03	6.289820E-18	0.000000E+00
5.535530E+03	6.332661E-18	0.000000E+00
5.545433E+03	6.373874E-18	0.000000E+00
5.555335E+03	6.413444E-18	0.000000E+00
5.565238E+03	6.451224E-18	0.000000E+00
5.575141E+03	6.487069E-18	0.000000E+00
5.585043E+03	6.521037E-18	0.000000E+00
5.594946E+03	6.552987E-18	0.000000E+00
5.604848E+03	6.582781E-18	0.000000E+00
5.614751E+03	6.610423E-18	0.000000E+00
5.624653E+03	6.635918E-18	0.000000E+00
5.634556E+03	6.659075E-18	0.000000E+00
5.644459E+03	6.679909E-18	0.000000E+00
5.654361E+03	6.698446E-18	0.000000E+00
5.664264E+03	6.714576E-18	0.000000E+00
5.674166E+03	6.728336E-18	0.000000E+00
5.684069E+03	6.739630E-18	0.000000E+00
5.693971E+03	6.748505E-18	0.000000E+00
5.703874E+03	6.754950E-18	0.000000E+00
5.713776E+03	6.759030E-18	0.000000E+00
5.723679E+03	6.760600E-18	0.000000E+00
5.733582E+03	6.759883E-18	0.000000E+00
5.743484E+03	6.756749E-18	0.000000E+00
5.753387E+03	6.751289E-18	0.000000E+00
5.763289E+03	6.743530E-18	0.000000E+00
5.773192E+03	6.733504E-18	0.000000E+00
5.783094E+03	6.721324E-18	0.000000E+00
5.792997E+03	6.707033E-18	0.000000E+00
5.802899E+03	6.690681E-18	0.000000E+00
5.812802E+03	6.672250E-18	0.000000E+00
5.822705E+03	6.651945E-18	0.000000E+00
5.832607E+03	6.629755E-18	0.000000E+00
5.842510E+03	6.605824E-18	0.000000E+00
5.852412E+03	6.580146E-18	0.000000E+00
5.862315E+03	6.552870E-18	0.000000E+00
5.872217E+03	6.524071E-18	0.000000E+00
5.882120E+03	6.493827E-18	0.000000E+00
5.892022E+03	6.462217E-18	0.000000E+00
5.901925E+03	6.429322E-18	0.000000E+00
5.911828E+03	6.395298E-18	0.000000E+00
5.921730E+03	6.360076E-18	0.000000E+00
5.931633E+03	6.323886E-18	0.000000E+00
5.941535E+03	6.286735E-18	0.000000E+00
5.951438E+03	6.248704E-18	0.000000E+00
5.961340E+03	6.209943E-18	0.000000E+00
5.971243E+03	6.170383E-18	0.000000E+00
5.981146E+03	6.130248E-18	0.000000E+00
5.991048E+03	6.089462E-18	0.000000E+00
6.000951E+03	6.048173E-18	0.000000E+00
6.010853E+03	6.006448E-18	0.000000E+00
6.020756E+03	5.964281E-18	0.000000E+00
6.030658E+03	5.921738E-18	0.000000E+00
6.040561E+03	5.878881E-18	0.000000E+00
6.050463E+03	5.835768E-18	0.000000E+00
6.060366E+03	5.792456E-18	0.000000E+00
6.070269E+03	5.748999E-18	0.000000E+00
6.080171E+03	5.705447E-18	0.000000E+00
6.090074E+03	5.661849E-18	0.000000E+00
6.099976E+03	5.618321E-18	0.000000E+00
6.109879E+03	5.574977E-18	0.000000E+00
6.119781E+03	5.531927E-18	0.000000E+00
6.129684E+03	5.489207E-18	0.000000E+00
6.139586E+03	5.446850E-18	0.000000E+00
6.149489E+03	5.404817E-18	0.000000E+00
6.159392E+03	5.363135E-18	0.000000E+00
6.169294E+03	5.321833E-18	0.000000E+00
6.179197E+03	5.280864E-18	0.000000E+00
6.189099E+03	5.240322E-18	0.000000E+00
6.199002E+03	5.200367E-18	0.000000E+00
6.208904E+03	5.160949E-18	0.000000E+00
6.218807E+03	5.122152E-18	0.000000E+00
6.228709E+03	5.084135E-18	0.000000E+00
6.238612E+03	5.046837E-18	0.000000E+00
6.248515E+03	5.010483E-18	0.000000E+00
6.258417E+03	4.975151E-18	0.000000E+00
6.268320E+03	4.940783E-18	0.000000E+00
6.278222E+03	4.907594E-18	0.000000E+00
6.288125E+03	4.875663E-18	0.000000E+00
6.298027E+03	4.844996E-18	0.000000E+00
6.307930E+03	4.815669E-18	0.000000E+00
6.317833E+03	4.787898E-18	0.000000E+00
6.327735E+03	4.761619E-18	0.000000E+00
6.337638E+03	4.736908E-18	0.000000E+00
6.347540E+03	4.713911E-18	0.000000E+00
6.357443E+03	4.692423E-18	0.000000E+00
6.367345E+03	4.672313E-18	0.000000E+00
6.377248E+03	4.653515E-18	0.000000E+00
6.387150E+03	4.635965E-18	0.000000E+00
6.397053E+03	4.619530E-18	0.000000E+00
6.406956E+03	4.604213E-18	0.000000E+00
6.416858E+03	4.589951E-18	0.000000E+00
6.426761E+03	4.576748E-18	0.000000E+00
6.436663E+03	4.564538E-18	0.000000E+00
6.446566E+03	4.553325E-18	0.000000E+00
6.456468E+03	4.543114E-18	0.000000E+00
6.466371E+03	4.533838E-18	0.000000E+00
6.476273E+03	4.525572E-18	0.000000E+00
6.486176E+03	4.518319E-18	0.000000E+00
6.496079E+03	4.512011E-18	0.000000E+00
6.505981E+03	4.506723E-18	0.000000E+00
6.515884E+03	4.502387E-18	0.000000E+00
6.525786E+03	4.499005E-18	0.000000E+00
6.535689E+03	4.496652E-18	0.000000E+00
6.545591E+03	4.495184E-18	0.000000E+00
6.555494E+03	4.494825E-18	0.000000E+00
6.565396E+03	4.495354E-18	0.000000E+00
6.575299E+03	4.496921E-18	0.000000E+00
6.585202E+03	4.499454E-18	0.000000E+00
6.595104E+03	4.502954E-18	0.000000E+00
6.605007E+03	4.507497E-18	0.000000E+00
6.614909E+03	4.513009E-18	0.000000E+00
6.624812E+03	4.519490E-18	0.000000E+00
6.634714E+03	4.526941E-18	0.000000E+00
6.644617E+03	4.535439E-18	0.000000E+00
6.654520E+03	4.544827E-18	0.000000E+00
6.664422E+03	4.555263E-18	0.000000E+00
6.674325E+03	4.566666E-18	0.000000E+00
6.684227E+03	4.579036E-18	0.000000E+00
6.694130E+03	4.592372E-18	0.000000E+00
6.704032E+03	4.606671E-18	0.000000E+00
6.713935E+03	4.622014E-18	0.000000E+00
6.723837E+03	4.638235E-18	0.000000E+00
6.733740E+03	4.655414E-18	0.000000E+00
6.743643E+03	4.673546E-18	0.000000E+00
6.753545E+03	4.692630E-18	0.000000E+00
6.763448E+03	4.712662E-18	0.000000E+00
6.773350E+03	4.733639E-18	0.000000E+00
6.783253E+03	4.755556E-18	0.000000E+00
6.793155E+03	4.778323E-18	0.000000E+00
6.803058E+03	4.802021E-18	0.000000E+00
6.812960E+03	4.826647E-18	0.000000E+00
6.822863E+03	4.852105E-18	0.000000E+00
6.832766E+03	4.878481E-18	0.000000E+00
6.842668E+03	4.905770E-18	0.000000E+00
6.852571E+03	4.933874E-18	0.000000E+00
6.862473E+03	4.962787E-18	0.000000E+00
6.872376E+03	4.992596E-18	0.000000E+00
6.882278E+03	5.023203E-18	0.000000E+00
6.892181E+03	5.054599E-18	0.000000E+00
6.902083E+03	5.086877E-18	0.000000E+00
6.911986E+03	5.119934E-18	0.000000E+00
6.921889E+03	5.153765E-18	0.000000E+00
6.931791E+03	5.188262E-18	0.000000E+00
6.941694E+03	5.223622E-18	0.000000E+00
6.951596E+03	5.259738E-18	0.000000E+00
6.961499E+03	5.296608E-18	0.000000E+00
6.971401E+03	5.334121E-18	0.000000E+00
6.981304E+03	5.372377E-18	0.000000E+00
6.991207E+03	5.411265E-18	0.000000E+00
7.001109E+03	5.450995E-18	0.000000E+00
7.011012E+03	5.491239E-18	0.000000E+00
7.020914E+03	5.532211E-18	0.000000E+00
7.030817E+03	5.573797E-18	0.000000E+00
7.040719E+03	5.616105E-18	0.000000E+00
7.050622E+03	5.658904E-18	0.000000E+00
7.060524E+03	5.702418E-18	0.000000E+00
7.070427E+03	5.746414E-18	0.000000E+00
7.080330E+03	5.791000E-18	0.000000E+00
7.090232E+03	5.836175E-18	0.000000E+00
7.100135E+03	5.881934E-18	0.000000E+00
7.110037E+03	5.928150E-18	0.000000E+00
7.119940E+03	5.974816E-18	0.000000E+00
7.129842E+03	6.022050E-18	0.000000E+00
7.139745E+03	6.069721E-18	0.000000E+00
7.149647E+03	6.117951E-18	0.000000E+00
7.159550E+03	6.166472E-18	0.000000E+00
7.169453E+03	6.215538E-18	0.000000E+00
7.179355E+03	6.265008E-18	0.000000E+00
7.189258E+03	6.314875E-18	0.000000E+00
7.199160E+03	6.365127E-18	0.000000E+00
7.209063E+03	6.415753E-18	0.000000E+00
7.218965E+03	6.466743E-18	0.000000E+00
7.228868E+03	6.518229E-18	0.000000E+00
7.238770E+03	6.569911E-18	0.000000E+00
7.248673E+03	6.622213E-18	0.000000E+00
7.258576E+03	6.674982E-18	0.000000E+00
7.268478E+03	6.728057E-18	0.000000E+00
7.278381E+03	6.781882E-18	0.000000E+00
7.288283E+03	6.836145E-18	0.000000E+00
7.298186E+03	6.891307E-18	0.000000E+00
7.308088E+03	6.947213E-18	0.000000E+00
7.317991E+03	7.004023E-18	0.000000E+00
7.327894E+03	7.061902E-18	0.000000E+00
7.337796E+03	7.120861E-18	0.000000E+00
7.347699E+03	7.181243E-18	0.000000E+00
7.357601E+03	7.243239E-18	0.000000E+00
7.367504E+03	7.306704E-18	0.000000E+00
7.377406E+03	7.371658E-18	0.000000E+00
7.387309E+03	7.438119E-18	0.000000E+00
7.397211E+03	7.505929E-18	0.000000E+00
7.407114E+03	7.574915E-18	0.000000E+00
7.417017E+03	7.644897E-18	0.000000E+00
7.426919E+03	7.715872E-18	0.000000E+00
7.436822E+03	7.787640E-18	0.000000E+00
7.446724E+03	7.859998E-18	0.000000E+00
7.456627E+03	7.933121E-18	0.000000E+00
7.466529E+03	8.006590E-18	0.000000E+00
7.476432E+03	8.080367E-18	0.000000E+00
7.486334E+03	8.154430E-18	0.000000E+00
7.496237E+03	8.228726E-18	0.000000E+00
7.506140E+03	8.303215E-18	0.000000E+00
7.516042E+03	8.377654E-18	0.000000E+00
7.525945E+03	8.451980E-18	0.000000E+00
7.535847E+03	8.526355E-18	0.000000E+00
7.545750E+03	8.600518E-18	0.000000E+00
7.555652E+03	8.674621E-18	0.000000E+00
7.565555E+03	8.748173E-18	0.000000E+00
7.575457E+03	8.821549E-18	0.000000E+00
7.585360E+03	8.894465E-18	0.000000E+00
7.595263E+03	8.966843E-18	0.000000E+00
7.605165E+03	9.038628E-18	0.000000E+00
7.615068E+03	9.109973E-18	0.000000E+00
7.624970E+03	9.180578E-18	0.000000E+00
7.634873E+03	9.250371E-18	0.000000E+00
7.644775E+03	9.319505E-18	0.000000E+00
7.654678E+03	9.387917E-18	0.000000E+00
7.664581E+03	9.455291E-18	0.000000E+00
7.674483E+03	9.521787E-18	0.000000E+00
7.684386E+03	9.587333E-18	0.000000E+00
