#wls	flux	fluxerr
1.584409E+03	5.996995E-17	0.000000E+00
1.624020E+03	6.269364E-17	0.000000E+00
1.663630E+03	6.526850E-17	0.000000E+00
1.703240E+03	6.765380E-17	0.000000E+00
1.742850E+03	6.981211E-17	0.000000E+00
1.782461E+03	7.167250E-17	0.000000E+00
1.822071E+03	7.314963E-17	0.000000E+00
1.861681E+03	7.414447E-17	0.000000E+00
1.901291E+03	7.454569E-17	0.000000E+00
1.940902E+03	7.426389E-17	0.000000E+00
1.980512E+03	7.326839E-17	0.000000E+00
2.020122E+03	7.165608E-17	0.000000E+00
2.059732E+03	6.971679E-17	0.000000E+00
2.099342E+03	6.794381E-17	0.000000E+00
2.138953E+03	6.686852E-17	0.000000E+00
2.178563E+03	6.681282E-17	0.000000E+00
2.218173E+03	6.770038E-17	0.000000E+00
2.257783E+03	6.913402E-17	0.000000E+00
2.297394E+03	7.065170E-17	0.000000E+00
2.337004E+03	7.187996E-17	0.000000E+00
2.376614E+03	7.258201E-17	0.000000E+00
2.416224E+03	7.264601E-17	0.000000E+00
2.455835E+03	7.204733E-17	0.000000E+00
2.495445E+03	7.081700E-17	0.000000E+00
2.535055E+03	6.900550E-17	0.000000E+00
2.574665E+03	6.668128E-17	0.000000E+00
2.614276E+03	6.391089E-17	0.000000E+00
2.653886E+03	6.075823E-17	0.000000E+00
2.693496E+03	5.729368E-17	0.000000E+00
2.733106E+03	5.358193E-17	0.000000E+00
2.772716E+03	4.968790E-17	0.000000E+00
2.812327E+03	4.567535E-17	0.000000E+00
2.851937E+03	4.160972E-17	0.000000E+00
2.891547E+03	3.756231E-17	0.000000E+00
2.931157E+03	3.360808E-17	0.000000E+00
2.970768E+03	2.981275E-17	0.000000E+00
2.980670E+03	2.889503E-17	0.000000E+00
2.990573E+03	2.799240E-17	0.000000E+00
3.000475E+03	2.710393E-17	0.000000E+00
3.010378E+03	2.623076E-17	0.000000E+00
3.020280E+03	2.537447E-17	0.000000E+00
3.030183E+03	2.453426E-17	0.000000E+00
3.040086E+03	2.371186E-17	0.000000E+00
3.049988E+03	2.290843E-17	0.000000E+00
3.059891E+03	2.212503E-17	0.000000E+00
3.069793E+03	2.136139E-17	0.000000E+00
3.079696E+03	2.061818E-17	0.000000E+00
3.089598E+03	1.989473E-17	0.000000E+00
3.099501E+03	1.919130E-17	0.000000E+00
3.109403E+03	1.850770E-17	0.000000E+00
3.119306E+03	1.784380E-17	0.000000E+00
3.129209E+03	1.719977E-17	0.000000E+00
3.139111E+03	1.657575E-17	0.000000E+00
3.149014E+03	1.597093E-17	0.000000E+00
3.158916E+03	1.538601E-17	0.000000E+00
3.168819E+03	1.482042E-17	0.000000E+00
3.178721E+03	1.427419E-17	0.000000E+00
3.188624E+03	1.374699E-17	0.000000E+00
3.198526E+03	1.323830E-17	0.000000E+00
3.208429E+03	1.274845E-17	0.000000E+00
3.218332E+03	1.227642E-17	0.000000E+00
3.228234E+03	1.182246E-17	0.000000E+00
3.238137E+03	1.138614E-17	0.000000E+00
3.248039E+03	1.096666E-17	0.000000E+00
3.257942E+03	1.056412E-17	0.000000E+00
3.267844E+03	1.017772E-17	0.000000E+00
3.277747E+03	9.807171E-18	0.000000E+00
3.287650E+03	9.452006E-18	0.000000E+00
3.297552E+03	9.111877E-18	0.000000E+00
3.307455E+03	8.786179E-18	0.000000E+00
3.317357E+03	8.474445E-18	0.000000E+00
3.327260E+03	8.176201E-18	0.000000E+00
3.337162E+03	7.891091E-18	0.000000E+00
3.347065E+03	7.618544E-18	0.000000E+00
3.356967E+03	7.358110E-18	0.000000E+00
3.366870E+03	7.109351E-18	0.000000E+00
3.376773E+03	6.871739E-18	0.000000E+00
3.386675E+03	6.644858E-18	0.000000E+00
3.396578E+03	6.428314E-18	0.000000E+00
3.406480E+03	6.221633E-18	0.000000E+00
3.416383E+03	6.024438E-18	0.000000E+00
3.426285E+03	5.836301E-18	0.000000E+00
3.436188E+03	5.656808E-18	0.000000E+00
3.446090E+03	5.485571E-18	0.000000E+00
3.455993E+03	5.322160E-18	0.000000E+00
3.465896E+03	5.166289E-18	0.000000E+00
3.475798E+03	5.017566E-18	0.000000E+00
3.485701E+03	4.875579E-18	0.000000E+00
3.495603E+03	4.739892E-18	0.000000E+00
3.505506E+03	4.610254E-18	0.000000E+00
3.515408E+03	4.486283E-18	0.000000E+00
3.525311E+03	4.367542E-18	0.000000E+00
3.535213E+03	4.253763E-18	0.000000E+00
3.545116E+03	4.144651E-18	0.000000E+00
3.555019E+03	4.039897E-18	0.000000E+00
3.564921E+03	3.939178E-18	0.000000E+00
3.574824E+03	3.842341E-18	0.000000E+00
3.584726E+03	3.749169E-18	0.000000E+00
3.594629E+03	3.659457E-18	0.000000E+00
3.604531E+03	3.573174E-18	0.000000E+00
3.614434E+03	3.490182E-18	0.000000E+00
3.624337E+03	3.410377E-18	0.000000E+00
3.634239E+03	3.333684E-18	0.000000E+00
3.644142E+03	3.260021E-18	0.000000E+00
3.654044E+03	3.189278E-18	0.000000E+00
3.663947E+03	3.121425E-18	0.000000E+00
3.673849E+03	3.056317E-18	0.000000E+00
3.683752E+03	2.993895E-18	0.000000E+00
3.693654E+03	2.934119E-18	0.000000E+00
3.703557E+03	2.876824E-18	0.000000E+00
3.713460E+03	2.822017E-18	0.000000E+00
3.723362E+03	2.769536E-18	0.000000E+00
3.733265E+03	2.719364E-18	0.000000E+00
3.743167E+03	2.671412E-18	0.000000E+00
3.753070E+03	2.625593E-18	0.000000E+00
3.762972E+03	2.581844E-18	0.000000E+00
3.772875E+03	2.540084E-18	0.000000E+00
3.782777E+03	2.500252E-18	0.000000E+00
3.792680E+03	2.462291E-18	0.000000E+00
3.802583E+03	2.426123E-18	0.000000E+00
3.812485E+03	2.391694E-18	0.000000E+00
3.822388E+03	2.358952E-18	0.000000E+00
3.832290E+03	2.327826E-18	0.000000E+00
3.842193E+03	2.298270E-18	0.000000E+00
3.852095E+03	2.270233E-18	0.000000E+00
3.861998E+03	2.243656E-18	0.000000E+00
3.871900E+03	2.218492E-18	0.000000E+00
3.881803E+03	2.194686E-18	0.000000E+00
3.891706E+03	2.172212E-18	0.000000E+00
3.901608E+03	2.151015E-18	0.000000E+00
3.911511E+03	2.131059E-18	0.000000E+00
3.921413E+03	2.112275E-18	0.000000E+00
3.931316E+03	2.094663E-18	0.000000E+00
3.941218E+03	2.078157E-18	0.000000E+00
3.951121E+03	2.062725E-18	0.000000E+00
3.961024E+03	2.048324E-18	0.000000E+00
3.970926E+03	2.034938E-18	0.000000E+00
3.980829E+03	2.022511E-18	0.000000E+00
3.990731E+03	2.011031E-18	0.000000E+00
4.000634E+03	2.000443E-18	0.000000E+00
4.010536E+03	1.990739E-18	0.000000E+00
4.020439E+03	1.981864E-18	0.000000E+00
4.030341E+03	1.973800E-18	0.000000E+00
4.040244E+03	1.966525E-18	0.000000E+00
4.050147E+03	1.960020E-18	0.000000E+00
4.060049E+03	1.954238E-18	0.000000E+00
4.069952E+03	1.949160E-18	0.000000E+00
4.079854E+03	1.944758E-18	0.000000E+00
4.089757E+03	1.941015E-18	0.000000E+00
4.099659E+03	1.937918E-18	0.000000E+00
4.109562E+03	1.935425E-18	0.000000E+00
4.119464E+03	1.933538E-18	0.000000E+00
4.129367E+03	1.932217E-18	0.000000E+00
4.139270E+03	1.931452E-18	0.000000E+00
4.149172E+03	1.931233E-18	0.000000E+00
4.159075E+03	1.931523E-18	0.000000E+00
4.168977E+03	1.932315E-18	0.000000E+00
4.178880E+03	1.933585E-18	0.000000E+00
4.188782E+03	1.935345E-18	0.000000E+00
4.198685E+03	1.937542E-18	0.000000E+00
4.208587E+03	1.940189E-18	0.000000E+00
4.218490E+03	1.943252E-18	0.000000E+00
4.228393E+03	1.946741E-18	0.000000E+00
4.238295E+03	1.950608E-18	0.000000E+00
4.248198E+03	1.954853E-18	0.000000E+00
4.258100E+03	1.959473E-18	0.000000E+00
4.268003E+03	1.964420E-18	0.000000E+00
4.277905E+03	1.969710E-18	0.000000E+00
4.287808E+03	1.975279E-18	0.000000E+00
4.297711E+03	1.981143E-18	0.000000E+00
4.307613E+03	1.987223E-18	0.000000E+00
4.317516E+03	1.993519E-18	0.000000E+00
4.327418E+03	2.000076E-18	0.000000E+00
4.337321E+03	2.006896E-18	0.000000E+00
4.347223E+03	2.013996E-18	0.000000E+00
4.357126E+03	2.021378E-18	0.000000E+00
4.367028E+03	2.029013E-18	0.000000E+00
4.376931E+03	2.036936E-18	0.000000E+00
4.386834E+03	2.045118E-18	0.000000E+00
4.396736E+03	2.053564E-18	0.000000E+00
4.406639E+03	2.062263E-18	0.000000E+00
4.416541E+03	2.071220E-18	0.000000E+00
4.426444E+03	2.080409E-18	0.000000E+00
4.436346E+03	2.089853E-18	0.000000E+00
4.446249E+03	2.099527E-18	0.000000E+00
4.456151E+03	2.109424E-18	0.000000E+00
4.466054E+03	2.119568E-18	0.000000E+00
4.475957E+03	2.129921E-18	0.000000E+00
4.485859E+03	2.140493E-18	0.000000E+00
4.495762E+03	2.151298E-18	0.000000E+00
4.505664E+03	2.162314E-18	0.000000E+00
4.515567E+03	2.173555E-18	0.000000E+00
4.525469E+03	2.185001E-18	0.000000E+00
4.535372E+03	2.196669E-18	0.000000E+00
4.545274E+03	2.208559E-18	0.000000E+00
4.555177E+03	2.220669E-18	0.000000E+00
4.565080E+03	2.232983E-18	0.000000E+00
4.574982E+03	2.245538E-18	0.000000E+00
4.584885E+03	2.258297E-18	0.000000E+00
4.594787E+03	2.271281E-18	0.000000E+00
4.604690E+03	2.284493E-18	0.000000E+00
4.614592E+03	2.297916E-18	0.000000E+00
4.624495E+03	2.311589E-18	0.000000E+00
4.634398E+03	2.325479E-18	0.000000E+00
4.644300E+03	2.339607E-18	0.000000E+00
4.654203E+03	2.354016E-18	0.000000E+00
4.664105E+03	2.368691E-18	0.000000E+00
4.674008E+03	2.383657E-18	0.000000E+00
4.683910E+03	2.398940E-18	0.000000E+00
4.693813E+03	2.414545E-18	0.000000E+00
4.703715E+03	2.430478E-18	0.000000E+00
4.713618E+03	2.446789E-18	0.000000E+00
4.723521E+03	2.463441E-18	0.000000E+00
4.733423E+03	2.480484E-18	0.000000E+00
4.743326E+03	2.497928E-18	0.000000E+00
4.753228E+03	2.515757E-18	0.000000E+00
4.763131E+03	2.534025E-18	0.000000E+00
4.773033E+03	2.552717E-18	0.000000E+00
4.782936E+03	2.571845E-18	0.000000E+00
4.792838E+03	2.591417E-18	0.000000E+00
4.802741E+03	2.611443E-18	0.000000E+00
4.812644E+03	2.631981E-18	0.000000E+00
4.822546E+03	2.652971E-18	0.000000E+00
4.832449E+03	2.674471E-18	0.000000E+00
4.842351E+03	2.696468E-18	0.000000E+00
4.852254E+03	2.719000E-18	0.000000E+00
4.862156E+03	2.742052E-18	0.000000E+00
4.872059E+03	2.765637E-18	0.000000E+00
4.881961E+03	2.789791E-18	0.000000E+00
4.891864E+03	2.814476E-18	0.000000E+00
4.901767E+03	2.839727E-18	0.000000E+00
4.911669E+03	2.865557E-18	0.000000E+00
4.921572E+03	2.891976E-18	0.000000E+00
4.931474E+03	2.918970E-18	0.000000E+00
4.941377E+03	2.946547E-18	0.000000E+00
4.951279E+03	2.974746E-18	0.000000E+00
4.961182E+03	3.003520E-18	0.000000E+00
4.971085E+03	3.032936E-18	0.000000E+00
4.980987E+03	3.062943E-18	0.000000E+00
4.990890E+03	3.093551E-18	0.000000E+00
5.000792E+03	3.124797E-18	0.000000E+00
5.010695E+03	3.156656E-18	0.000000E+00
5.020597E+03	3.189137E-18	0.000000E+00
5.030500E+03	3.222215E-18	0.000000E+00
5.040402E+03	3.255924E-18	0.000000E+00
5.050305E+03	3.290271E-18	0.000000E+00
5.060208E+03	3.325197E-18	0.000000E+00
5.070110E+03	3.360735E-18	0.000000E+00
5.080013E+03	3.396891E-18	0.000000E+00
5.089915E+03	3.433668E-18	0.000000E+00
5.099818E+03	3.471034E-18	0.000000E+00
5.109720E+03	3.508992E-18	0.000000E+00
5.119623E+03	3.547510E-18	0.000000E+00
5.129525E+03	3.586655E-18	0.000000E+00
5.139428E+03	3.626362E-18	0.000000E+00
5.149331E+03	3.666628E-18	0.000000E+00
5.159233E+03	3.707455E-18	0.000000E+00
5.169136E+03	3.748877E-18	0.000000E+00
5.179038E+03	3.790820E-18	0.000000E+00
5.188941E+03	3.833280E-18	0.000000E+00
5.198843E+03	3.876328E-18	0.000000E+00
5.208746E+03	3.919850E-18	0.000000E+00
5.218648E+03	3.963911E-18	0.000000E+00
5.228551E+03	4.008469E-18	0.000000E+00
5.238454E+03	4.053514E-18	0.000000E+00
5.248356E+03	4.099077E-18	0.000000E+00
5.258259E+03	4.145065E-18	0.000000E+00
5.268161E+03	4.191505E-18	0.000000E+00
5.278064E+03	4.238381E-18	0.000000E+00
5.287966E+03	4.285677E-18	0.000000E+00
5.297869E+03	4.333414E-18	0.000000E+00
5.307772E+03	4.381485E-18	0.000000E+00
5.317674E+03	4.429908E-18	0.000000E+00
5.327577E+03	4.478656E-18	0.000000E+00
5.337479E+03	4.527653E-18	0.000000E+00
5.347382E+03	4.576954E-18	0.000000E+00
5.357284E+03	4.626480E-18	0.000000E+00
5.367187E+03	4.676143E-18	0.000000E+00
5.377089E+03	4.725900E-18	0.000000E+00
5.386992E+03	4.775750E-18	0.000000E+00
5.396895E+03	4.825547E-18	0.000000E+00
5.406797E+03	4.875284E-18	0.000000E+00
5.416700E+03	4.924903E-18	0.000000E+00
5.426602E+03	4.974243E-18	0.000000E+00
5.436505E+03	5.023234E-18	0.000000E+00
5.446407E+03	5.071858E-18	0.000000E+00
5.456310E+03	5.119989E-18	0.000000E+00
5.466212E+03	5.167497E-18	0.000000E+00
5.476115E+03	5.214246E-18	0.000000E+00
5.486018E+03	5.260255E-18	0.000000E+00
5.495920E+03	5.305276E-18	0.000000E+00
5.505823E+03	5.349270E-18	0.000000E+00
5.515725E+03	5.392088E-18	0.000000E+00
5.525628E+03	5.433632E-18	0.000000E+00
5.535530E+03	5.473806E-18	0.000000E+00
5.545433E+03	5.512453E-18	0.000000E+00
5.555335E+03	5.549531E-18	0.000000E+00
5.565238E+03	5.584886E-18	0.000000E+00
5.575141E+03	5.618364E-18	0.000000E+00
5.585043E+03	5.649987E-18	0.000000E+00
5.594946E+03	5.679606E-18	0.000000E+00
5.604848E+03	5.707076E-18	0.000000E+00
5.614751E+03	5.732374E-18	0.000000E+00
5.624653E+03	5.755483E-18	0.000000E+00
5.634556E+03	5.776215E-18	0.000000E+00
5.644459E+03	5.794566E-18	0.000000E+00
5.654361E+03	5.810540E-18	0.000000E+00
5.664264E+03	5.824030E-18	0.000000E+00
5.674166E+03	5.835056E-18	0.000000E+00
5.684069E+03	5.843524E-18	0.000000E+00
5.693971E+03	5.849472E-18	0.000000E+00
5.703874E+03	5.852885E-18	0.000000E+00
5.713776E+03	5.853817E-18	0.000000E+00
5.723679E+03	5.852145E-18	0.000000E+00
5.733582E+03	5.848066E-18	0.000000E+00
5.743484E+03	5.841473E-18	0.000000E+00
5.753387E+03	5.832454E-18	0.000000E+00
5.763289E+03	5.821043E-18	0.000000E+00
5.773192E+03	5.807283E-18	0.000000E+00
5.783094E+03	5.791285E-18	0.000000E+00
5.792997E+03	5.773109E-18	0.000000E+00
5.802899E+03	5.752816E-18	0.000000E+00
5.812802E+03	5.730415E-18	0.000000E+00
5.822705E+03	5.706109E-18	0.000000E+00
5.832607E+03	5.679918E-18	0.000000E+00
5.842510E+03	5.651992E-18	0.000000E+00
5.852412E+03	5.622357E-18	0.000000E+00
5.862315E+03	5.591171E-18	0.000000E+00
5.872217E+03	5.558531E-18	0.000000E+00
5.882120E+03	5.524537E-18	0.000000E+00
5.892022E+03	5.489284E-18	0.000000E+00
5.901925E+03	5.452876E-18	0.000000E+00
5.911828E+03	5.415471E-18	0.000000E+00
5.921730E+03	5.377041E-18	0.000000E+00
5.931633E+03	5.337811E-18	0.000000E+00
5.941535E+03	5.297809E-18	0.000000E+00
5.951438E+03	5.257128E-18	0.000000E+00
5.961340E+03	5.215919E-18	0.000000E+00
5.971243E+03	5.174145E-18	0.000000E+00
5.981146E+03	5.132011E-18	0.000000E+00
5.991048E+03	5.089475E-18	0.000000E+00
6.000951E+03	5.046675E-18	0.000000E+00
6.010853E+03	5.003683E-18	0.000000E+00
6.020756E+03	4.960507E-18	0.000000E+00
6.030658E+03	4.917216E-18	0.000000E+00
6.040561E+03	4.873871E-18	0.000000E+00
6.050463E+03	4.830531E-18	0.000000E+00
6.060366E+03	4.787253E-18	0.000000E+00
6.070269E+03	4.744088E-18	0.000000E+00
6.080171E+03	4.701086E-18	0.000000E+00
6.090074E+03	4.658291E-18	0.000000E+00
6.099976E+03	4.615807E-18	0.000000E+00
6.109879E+03	4.573729E-18	0.000000E+00
6.119781E+03	4.532152E-18	0.000000E+00
6.129684E+03	4.491106E-18	0.000000E+00
6.139586E+03	4.450622E-18	0.000000E+00
6.149489E+03	4.410668E-18	0.000000E+00
6.159392E+03	4.371267E-18	0.000000E+00
6.169294E+03	4.332443E-18	0.000000E+00
6.179197E+03	4.294157E-18	0.000000E+00
6.189099E+03	4.256486E-18	0.000000E+00
6.199002E+03	4.219558E-18	0.000000E+00
6.208904E+03	4.183330E-18	0.000000E+00
6.218807E+03	4.147870E-18	0.000000E+00
6.228709E+03	4.113302E-18	0.000000E+00
6.238612E+03	4.079575E-18	0.000000E+00
6.248515E+03	4.046866E-18	0.000000E+00
6.258417E+03	4.015237E-18	0.000000E+00
6.268320E+03	3.984633E-18	0.000000E+00
6.278222E+03	3.955227E-18	0.000000E+00
6.288125E+03	3.927075E-18	0.000000E+00
6.298027E+03	3.900179E-18	0.000000E+00
6.307930E+03	3.874596E-18	0.000000E+00
6.317833E+03	3.850493E-18	0.000000E+00
6.327735E+03	3.827815E-18	0.000000E+00
6.337638E+03	3.806617E-18	0.000000E+00
6.347540E+03	3.787013E-18	0.000000E+00
6.357443E+03	3.768834E-18	0.000000E+00
6.367345E+03	3.751970E-18	0.000000E+00
6.377248E+03	3.736363E-18	0.000000E+00
6.387150E+03	3.721960E-18	0.000000E+00
6.397053E+03	3.708648E-18	0.000000E+00
6.406956E+03	3.696428E-18	0.000000E+00
6.416858E+03	3.685244E-18	0.000000E+00
6.426761E+03	3.675098E-18	0.000000E+00
6.436663E+03	3.665932E-18	0.000000E+00
6.446566E+03	3.657747E-18	0.000000E+00
6.456468E+03	3.650545E-18	0.000000E+00
6.466371E+03	3.644267E-18	0.000000E+00
6.476273E+03	3.638972E-18	0.000000E+00
6.486176E+03	3.634659E-18	0.000000E+00
6.496079E+03	3.631273E-18	0.000000E+00
6.505981E+03	3.628872E-18	0.000000E+00
6.515884E+03	3.627398E-18	0.000000E+00
6.525786E+03	3.626851E-18	0.000000E+00
6.535689E+03	3.627290E-18	0.000000E+00
6.545591E+03	3.628599E-18	0.000000E+00
6.555494E+03	3.630954E-18	0.000000E+00
6.565396E+03	3.634180E-18	0.000000E+00
6.575299E+03	3.638396E-18	0.000000E+00
6.585202E+03	3.643544E-18	0.000000E+00
6.595104E+03	3.649623E-18	0.000000E+00
6.605007E+03	3.656696E-18	0.000000E+00
6.614909E+03	3.664703E-18	0.000000E+00
6.624812E+03	3.673645E-18	0.000000E+00
6.634714E+03	3.683523E-18	0.000000E+00
6.644617E+03	3.694401E-18	0.000000E+00
6.654520E+03	3.706154E-18	0.000000E+00
6.664422E+03	3.718909E-18	0.000000E+00
6.674325E+03	3.732606E-18	0.000000E+00
6.684227E+03	3.747244E-18	0.000000E+00
6.694130E+03	3.762825E-18	0.000000E+00
6.704032E+03	3.779351E-18	0.000000E+00
6.713935E+03	3.796890E-18	0.000000E+00
6.723837E+03	3.815308E-18	0.000000E+00
6.733740E+03	3.834674E-18	0.000000E+00
6.743643E+03	3.854990E-18	0.000000E+00
6.753545E+03	3.876256E-18	0.000000E+00
6.763448E+03	3.898473E-18	0.000000E+00
6.773350E+03	3.921642E-18	0.000000E+00
6.783253E+03	3.945765E-18	0.000000E+00
6.793155E+03	3.970770E-18	0.000000E+00
6.803058E+03	3.996729E-18	0.000000E+00
6.812960E+03	4.023644E-18	0.000000E+00
6.822863E+03	4.051439E-18	0.000000E+00
6.832766E+03	4.080189E-18	0.000000E+00
6.842668E+03	4.109895E-18	0.000000E+00
6.852571E+03	4.140480E-18	0.000000E+00
6.862473E+03	4.171943E-18	0.000000E+00
6.872376E+03	4.204360E-18	0.000000E+00
6.882278E+03	4.237653E-18	0.000000E+00
6.892181E+03	4.271820E-18	0.000000E+00
6.902083E+03	4.306941E-18	0.000000E+00
6.911986E+03	4.342934E-18	0.000000E+00
6.921889E+03	4.379797E-18	0.000000E+00
6.931791E+03	4.417443E-18	0.000000E+00
6.941694E+03	4.456042E-18	0.000000E+00
6.951596E+03	4.495506E-18	0.000000E+00
6.961499E+03	4.535836E-18	0.000000E+00
6.971401E+03	4.576940E-18	0.000000E+00
6.981304E+03	4.618904E-18	0.000000E+00
6.991207E+03	4.661637E-18	0.000000E+00
7.001109E+03	4.705320E-18	0.000000E+00
7.011012E+03	4.749673E-18	0.000000E+00
7.020914E+03	4.794881E-18	0.000000E+00
7.030817E+03	4.840845E-18	0.000000E+00
7.040719E+03	4.887662E-18	0.000000E+00
7.050622E+03	4.935129E-18	0.000000E+00
7.060524E+03	4.983445E-18	0.000000E+00
7.070427E+03	5.032402E-18	0.000000E+00
7.080330E+03	5.082099E-18	0.000000E+00
7.090232E+03	5.132530E-18	0.000000E+00
7.100135E+03	5.183692E-18	0.000000E+00
7.110037E+03	5.235474E-18	0.000000E+00
7.119940E+03	5.287866E-18	0.000000E+00
7.129842E+03	5.340973E-18	0.000000E+00
7.139745E+03	5.394675E-18	0.000000E+00
7.149647E+03	5.449081E-18	0.000000E+00
7.159550E+03	5.503950E-18	0.000000E+00
7.169453E+03	5.559508E-18	0.000000E+00
7.179355E+03	5.615625E-18	0.000000E+00
7.189258E+03	5.672294E-18	0.000000E+00
7.199160E+03	5.729502E-18	0.000000E+00
7.209063E+03	5.787237E-18	0.000000E+00
7.218965E+03	5.845487E-18	0.000000E+00
7.228868E+03	5.904369E-18	0.000000E+00
7.238770E+03	5.963610E-18	0.000000E+00
7.248673E+03	6.023591E-18	0.000000E+00
7.258576E+03	6.084172E-18	0.000000E+00
7.268478E+03	6.145205E-18	0.000000E+00
7.278381E+03	6.207092E-18	0.000000E+00
7.288283E+03	6.269549E-18	0.000000E+00
7.298186E+03	6.332996E-18	0.000000E+00
7.308088E+03	6.397292E-18	0.000000E+00
7.317991E+03	6.462584E-18	0.000000E+00
7.327894E+03	6.529027E-18	0.000000E+00
7.337796E+03	6.596633E-18	0.000000E+00
7.347699E+03	6.665724E-18	0.000000E+00
7.357601E+03	6.736482E-18	0.000000E+00
7.367504E+03	6.808780E-18	0.000000E+00
7.377406E+03	6.882640E-18	0.000000E+00
7.387309E+03	6.958089E-18	0.000000E+00
7.397211E+03	7.034982E-18	0.000000E+00
7.407114E+03	7.113169E-18	0.000000E+00
7.417017E+03	7.192484E-18	0.000000E+00
7.426919E+03	7.272930E-18	0.000000E+00
7.436822E+03	7.354328E-18	0.000000E+00
7.446724E+03	7.436491E-18	0.000000E+00
7.456627E+03	7.519586E-18	0.000000E+00
7.466529E+03	7.603229E-18	0.000000E+00
7.476432E+03	7.687393E-18	0.000000E+00
7.486334E+03	7.772051E-18	0.000000E+00
7.496237E+03	7.857170E-18	0.000000E+00
7.506140E+03	7.942720E-18	0.000000E+00
7.516042E+03	8.028464E-18	0.000000E+00
7.525945E+03	8.114356E-18	0.000000E+00
7.535847E+03	8.200561E-18	0.000000E+00
7.545750E+03	8.286825E-18	0.000000E+00
7.555652E+03	8.373299E-18	0.000000E+00
7.565555E+03	8.459518E-18	0.000000E+00
7.575457E+03	8.545842E-18	0.000000E+00
7.585360E+03	8.632006E-18	0.000000E+00
7.595263E+03	8.717937E-18	0.000000E+00
7.605165E+03	8.803570E-18	0.000000E+00
7.615068E+03	8.889064E-18	0.000000E+00
7.624970E+03	8.974122E-18	0.000000E+00
7.634873E+03	9.058661E-18	0.000000E+00
7.644775E+03	9.142841E-18	0.000000E+00
7.654678E+03	9.226582E-18	0.000000E+00
7.664581E+03	9.309574E-18	0.000000E+00
7.674483E+03	9.391971E-18	0.000000E+00
7.684386E+03	9.473698E-18	0.000000E+00
