#wls	flux	fluxerr
1.584409E+03	3.686279E-18	7.492119E-19
1.624020E+03	3.737390E-18	7.588456E-19
1.663630E+03	3.776477E-18	7.660204E-19
1.703240E+03	3.803214E-18	7.706775E-19
1.742850E+03	3.816429E-18	7.725872E-19
1.782461E+03	3.815974E-18	7.716746E-19
1.822071E+03	3.797337E-18	7.670902E-19
1.861681E+03	3.757867E-18	7.583107E-19
1.901291E+03	3.694125E-18	7.446561E-19
1.940902E+03	3.604680E-18	7.258004E-19
1.980512E+03	3.489032E-18	7.017165E-19
2.020122E+03	3.353496E-18	6.736911E-19
2.059732E+03	3.212572E-18	6.446471E-19
2.099342E+03	3.089601E-18	6.192175E-19
2.138953E+03	3.007059E-18	6.019418E-19
2.178563E+03	2.978496E-18	5.954993E-19
2.218173E+03	3.000430E-18	5.991551E-19
2.257783E+03	3.057190E-18	6.096953E-19
2.297394E+03	3.127869E-18	6.229794E-19
2.337004E+03	3.195567E-18	6.356344E-19
2.376614E+03	3.250222E-18	6.456645E-19
2.416224E+03	3.287827E-18	6.522254E-19
2.455835E+03	3.306516E-18	6.550193E-19
2.495445E+03	3.307063E-18	6.542152E-19
2.535055E+03	3.290917E-18	6.501140E-19
2.574665E+03	3.260812E-18	6.432066E-19
2.614276E+03	3.217634E-18	6.337431E-19
2.653886E+03	3.162792E-18	6.220123E-19
2.693496E+03	3.097705E-18	6.083030E-19
2.733106E+03	3.024069E-18	5.928950E-19
2.772716E+03	2.942071E-18	5.758975E-19
2.812327E+03	2.852519E-18	5.574762E-19
2.851937E+03	2.756277E-18	5.378065E-19
2.891547E+03	2.655565E-18	5.172752E-19
2.931157E+03	2.551848E-18	4.962274E-19
2.970768E+03	2.447355E-18	4.750986E-19
2.980670E+03	2.421320E-18	4.698447E-19
2.990573E+03	2.395515E-18	4.646323E-19
3.000475E+03	2.369745E-18	4.594313E-19
3.010378E+03	2.344182E-18	4.542750E-19
3.020280E+03	2.318768E-18	4.491517E-19
3.030183E+03	2.293536E-18	4.440649E-19
3.040086E+03	2.268526E-18	4.390257E-19
3.049988E+03	2.243877E-18	4.340604E-19
3.059891E+03	2.219618E-18	4.291750E-19
3.069793E+03	2.195836E-18	4.243829E-19
3.079696E+03	2.172410E-18	4.196638E-19
3.089598E+03	2.149352E-18	4.150200E-19
3.099501E+03	2.126673E-18	4.104533E-19
3.109403E+03	2.104375E-18	4.059611E-19
3.119306E+03	2.082356E-18	4.015268E-19
3.129209E+03	2.060716E-18	3.971695E-19
3.139111E+03	2.039350E-18	3.928689E-19
3.149014E+03	2.018348E-18	3.886395E-19
3.158916E+03	1.997661E-18	3.844743E-19
3.168819E+03	1.977268E-18	3.803697E-19
3.178721E+03	1.957156E-18	3.763227E-19
3.188624E+03	1.937409E-18	3.723467E-19
3.198526E+03	1.917948E-18	3.684293E-19
3.208429E+03	1.898762E-18	3.645683E-19
3.218332E+03	1.879873E-18	3.607680E-19
3.228234E+03	1.861329E-18	3.570345E-19
3.238137E+03	1.843061E-18	3.533575E-19
3.248039E+03	1.825091E-18	3.497410E-19
3.257942E+03	1.807411E-18	3.461834E-19
3.267844E+03	1.790067E-18	3.426909E-19
3.277747E+03	1.772999E-18	3.392544E-19
3.287650E+03	1.756201E-18	3.358729E-19
3.297552E+03	1.739722E-18	3.325556E-19
3.307455E+03	1.723529E-18	3.292935E-19
3.317357E+03	1.707621E-18	3.260889E-19
3.327260E+03	1.692016E-18	3.229453E-19
3.337162E+03	1.676666E-18	3.198533E-19
3.347065E+03	1.661638E-18	3.168233E-19
3.356967E+03	1.646863E-18	3.138443E-19
3.366870E+03	1.632340E-18	3.109163E-19
3.376773E+03	1.618092E-18	3.080436E-19
3.386675E+03	1.604123E-18	3.052241E-19
3.396578E+03	1.590410E-18	3.024562E-19
3.406480E+03	1.576917E-18	2.997328E-19
3.416383E+03	1.563668E-18	2.970586E-19
3.426285E+03	1.550671E-18	2.944323E-19
3.436188E+03	1.537872E-18	2.918463E-19
3.446090E+03	1.525279E-18	2.893020E-19
3.455993E+03	1.512865E-18	2.867943E-19
3.465896E+03	1.500645E-18	2.843234E-19
3.475798E+03	1.488592E-18	2.818866E-19
3.485701E+03	1.476668E-18	2.794768E-19
3.495603E+03	1.464841E-18	2.770878E-19
3.505506E+03	1.453089E-18	2.747129E-19
3.515408E+03	1.441335E-18	2.723402E-19
3.525311E+03	1.429531E-18	2.699607E-19
3.535213E+03	1.417634E-18	2.675660E-19
3.545116E+03	1.405613E-18	2.651479E-19
3.555019E+03	1.393398E-18	2.626961E-19
3.564921E+03	1.380975E-18	2.602076E-19
3.574824E+03	1.368292E-18	2.576727E-19
3.584726E+03	1.355358E-18	2.550910E-19
3.594629E+03	1.342195E-18	2.524691E-19
3.604531E+03	1.328817E-18	2.498097E-19
3.614434E+03	1.315261E-18	2.471198E-19
3.624337E+03	1.301582E-18	2.444073E-19
3.634239E+03	1.287803E-18	2.416790E-19
3.644142E+03	1.273951E-18	2.389403E-19
3.654044E+03	1.260044E-18	2.361942E-19
3.663947E+03	1.246156E-18	2.334526E-19
3.673849E+03	1.232269E-18	2.307143E-19
3.683752E+03	1.218424E-18	2.279869E-19
3.693654E+03	1.204638E-18	2.252737E-19
3.703557E+03	1.190955E-18	2.225807E-19
3.713460E+03	1.177371E-18	2.199092E-19
3.723362E+03	1.163898E-18	2.172617E-19
3.733265E+03	1.150566E-18	2.146434E-19
3.743167E+03	1.137401E-18	2.120574E-19
3.753070E+03	1.124404E-18	2.095054E-19
3.762972E+03	1.111570E-18	2.069871E-19
3.772875E+03	1.098933E-18	2.045084E-19
3.782777E+03	1.086505E-18	2.020693E-19
3.792680E+03	1.074289E-18	1.996725E-19
3.802583E+03	1.062279E-18	1.973169E-19
3.812485E+03	1.050501E-18	1.950073E-19
3.822388E+03	1.038956E-18	1.927415E-19
3.832290E+03	1.027651E-18	1.905231E-19
3.842193E+03	1.016585E-18	1.883518E-19
3.852095E+03	1.005758E-18	1.862273E-19
3.861998E+03	9.951899E-19	1.841513E-19
3.871900E+03	9.848707E-19	1.821240E-19
3.881803E+03	9.748054E-19	1.801461E-19
3.891706E+03	9.649903E-19	1.782168E-19
3.901608E+03	9.554363E-19	1.763362E-19
3.911511E+03	9.461393E-19	1.745054E-19
3.921413E+03	9.371025E-19	1.727249E-19
3.931316E+03	9.283072E-19	1.709910E-19
3.941218E+03	9.197834E-19	1.693075E-19
3.951121E+03	9.115126E-19	1.676727E-19
3.961024E+03	9.034964E-19	1.660867E-19
3.970926E+03	8.957231E-19	1.645474E-19
3.980829E+03	8.882075E-19	1.630555E-19
3.990731E+03	8.809442E-19	1.616118E-19
4.000634E+03	8.739218E-19	1.602142E-19
4.010536E+03	8.671408E-19	1.588626E-19
4.020439E+03	8.606093E-19	1.575566E-19
4.030341E+03	8.543152E-19	1.562958E-19
4.040244E+03	8.482533E-19	1.550790E-19
4.050147E+03	8.424251E-19	1.539065E-19
4.060049E+03	8.368368E-19	1.527776E-19
4.069952E+03	8.314716E-19	1.516909E-19
4.079854E+03	8.263304E-19	1.506464E-19
4.089757E+03	8.214141E-19	1.496443E-19
4.099659E+03	8.167236E-19	1.486828E-19
4.109562E+03	8.122541E-19	1.477628E-19
4.119464E+03	8.079947E-19	1.468823E-19
4.129367E+03	8.039468E-19	1.460413E-19
4.139270E+03	8.001236E-19	1.452404E-19
4.149172E+03	7.965081E-19	1.444783E-19
4.159075E+03	7.930962E-19	1.437541E-19
4.168977E+03	7.898898E-19	1.430680E-19
4.178880E+03	7.868952E-19	1.424195E-19
4.188782E+03	7.841033E-19	1.418085E-19
4.198685E+03	7.815157E-19	1.412352E-19
4.208587E+03	7.791282E-19	1.406988E-19
4.218490E+03	7.769429E-19	1.401978E-19
4.228393E+03	7.749618E-19	1.397342E-19
4.238295E+03	7.731756E-19	1.393064E-19
4.248198E+03	7.715867E-19	1.389147E-19
4.258100E+03	7.701967E-19	1.385574E-19
4.268003E+03	7.690036E-19	1.382360E-19
4.277905E+03	7.680034E-19	1.379496E-19
4.287808E+03	7.671937E-19	1.376977E-19
4.297711E+03	7.665886E-19	1.374810E-19
4.307613E+03	7.661738E-19	1.372987E-19
4.317516E+03	7.659652E-19	1.371534E-19
4.327418E+03	7.659542E-19	1.370436E-19
4.337321E+03	7.661556E-19	1.369700E-19
4.347223E+03	7.665623E-19	1.369331E-19
4.357126E+03	7.671663E-19	1.369314E-19
4.367028E+03	7.679718E-19	1.369654E-19
4.376931E+03	7.689884E-19	1.370351E-19
4.386834E+03	7.701970E-19	1.371387E-19
4.396736E+03	7.716092E-19	1.372783E-19
4.406639E+03	7.732170E-19	1.374522E-19
4.416541E+03	7.750306E-19	1.376605E-19
4.426444E+03	7.770315E-19	1.379015E-19
4.436346E+03	7.792317E-19	1.381772E-19
4.446249E+03	7.816302E-19	1.384876E-19
4.456151E+03	7.842251E-19	1.388301E-19
4.466054E+03	7.870170E-19	1.392068E-19
4.475957E+03	7.899996E-19	1.396164E-19
4.485859E+03	7.931724E-19	1.400588E-19
4.495762E+03	7.965528E-19	1.405349E-19
4.505664E+03	8.001298E-19	1.410447E-19
4.515567E+03	8.038971E-19	1.415870E-19
4.525469E+03	8.078542E-19	1.421616E-19
4.535372E+03	8.120198E-19	1.427697E-19
4.545274E+03	8.163829E-19	1.434113E-19
4.555177E+03	8.209301E-19	1.440839E-19
4.565080E+03	8.256756E-19	1.447900E-19
4.574982E+03	8.306317E-19	1.455294E-19
4.584885E+03	8.357734E-19	1.462999E-19
4.594787E+03	8.411086E-19	1.471027E-19
4.604690E+03	8.466378E-19	1.479377E-19
4.614592E+03	8.523666E-19	1.488038E-19
4.624495E+03	8.582980E-19	1.497034E-19
4.634398E+03	8.644268E-19	1.506357E-19
4.644300E+03	8.707604E-19	1.516017E-19
4.654203E+03	8.773129E-19	1.526016E-19
4.664105E+03	8.840812E-19	1.536369E-19
4.674008E+03	8.910595E-19	1.547066E-19
4.683910E+03	8.982648E-19	1.558135E-19
4.693813E+03	9.057034E-19	1.569563E-19
4.703715E+03	9.133896E-19	1.581395E-19
4.713618E+03	9.213102E-19	1.593609E-19
4.723521E+03	9.294757E-19	1.606220E-19
4.733423E+03	9.379177E-19	1.619259E-19
4.743326E+03	9.466194E-19	1.632718E-19
4.753228E+03	9.556015E-19	1.646632E-19
4.763131E+03	9.648505E-19	1.660977E-19
4.773033E+03	9.744008E-19	1.675784E-19
4.782936E+03	9.842435E-19	1.691063E-19
4.792838E+03	9.943751E-19	1.706805E-19
4.802741E+03	1.004808E-18	1.723031E-19
4.812644E+03	1.015572E-18	1.739761E-19
4.822546E+03	1.026638E-18	1.756973E-19
4.832449E+03	1.038021E-18	1.774692E-19
4.842351E+03	1.049738E-18	1.792940E-19
4.852254E+03	1.061787E-18	1.811689E-19
4.862156E+03	1.074171E-18	1.830968E-19
4.872059E+03	1.086895E-18	1.850785E-19
4.881961E+03	1.099966E-18	1.871148E-19
4.891864E+03	1.113404E-18	1.892060E-19
4.901767E+03	1.127192E-18	1.913520E-19
4.911669E+03	1.141345E-18	1.935552E-19
4.921572E+03	1.155861E-18	1.958150E-19
4.931474E+03	1.170759E-18	1.981313E-19
4.941377E+03	1.186033E-18	2.005059E-19
4.951279E+03	1.201689E-18	2.029397E-19
4.961182E+03	1.217734E-18	2.054337E-19
4.971085E+03	1.234191E-18	2.079880E-19
4.980987E+03	1.251039E-18	2.106024E-19
4.990890E+03	1.268286E-18	2.132779E-19
5.000792E+03	1.285939E-18	2.160155E-19
5.010695E+03	1.304020E-18	2.188150E-19
5.020597E+03	1.322522E-18	2.216784E-19
5.030500E+03	1.341451E-18	2.246069E-19
5.040402E+03	1.360789E-18	2.275969E-19
5.050305E+03	1.380585E-18	2.306525E-19
5.060208E+03	1.400830E-18	2.337760E-19
5.070110E+03	1.421506E-18	2.369638E-19
5.080013E+03	1.442618E-18	2.402168E-19
5.089915E+03	1.464205E-18	2.435368E-19
5.099818E+03	1.486256E-18	2.469260E-19
5.109720E+03	1.508751E-18	2.503807E-19
5.119623E+03	1.531710E-18	2.539039E-19
5.129525E+03	1.555172E-18	2.574975E-19
5.139428E+03	1.579096E-18	2.611587E-19
5.149331E+03	1.603490E-18	2.648885E-19
5.159233E+03	1.628358E-18	2.686875E-19
5.169136E+03	1.653741E-18	2.725572E-19
5.179038E+03	1.679612E-18	2.764975E-19
5.188941E+03	1.705976E-18	2.805091E-19
5.198843E+03	1.732822E-18	2.845898E-19
5.208746E+03	1.760192E-18	2.887410E-19
5.218648E+03	1.788071E-18	2.929651E-19
5.228551E+03	1.816449E-18	2.972600E-19
5.238454E+03	1.845346E-18	3.016291E-19
5.248356E+03	1.874772E-18	3.060675E-19
5.258259E+03	1.904709E-18	3.105778E-19
5.268161E+03	1.935180E-18	3.151635E-19
5.278064E+03	1.966172E-18	3.198221E-19
5.287966E+03	1.997710E-18	3.245510E-19
5.297869E+03	2.029775E-18	3.293531E-19
5.307772E+03	2.062372E-18	3.342288E-19
5.317674E+03	2.095503E-18	3.391779E-19
5.327577E+03	2.129193E-18	3.441978E-19
5.337479E+03	2.163424E-18	3.492914E-19
5.347382E+03	2.198176E-18	3.544554E-19
5.357284E+03	2.233449E-18	3.596893E-19
5.367187E+03	2.269290E-18	3.649934E-19
5.377089E+03	2.305654E-18	3.703670E-19
5.386992E+03	2.342542E-18	3.758099E-19
5.396895E+03	2.379930E-18	3.813179E-19
5.406797E+03	2.417863E-18	3.868903E-19
5.416700E+03	2.456268E-18	3.925225E-19
5.426602E+03	2.495190E-18	3.982214E-19
5.436505E+03	2.534552E-18	4.039744E-19
5.446407E+03	2.574396E-18	4.097798E-19
5.456310E+03	2.614693E-18	4.156407E-19
5.466212E+03	2.655412E-18	4.215516E-19
5.476115E+03	2.696542E-18	4.275109E-19
5.486018E+03	2.738074E-18	4.335077E-19
5.495920E+03	2.779971E-18	4.395448E-19
5.505823E+03	2.822223E-18	4.456202E-19
5.515725E+03	2.864817E-18	4.517318E-19
5.525628E+03	2.907737E-18	4.578672E-19
5.535530E+03	2.950943E-18	4.640292E-19
5.545433E+03	2.994419E-18	4.702153E-19
5.555335E+03	3.038150E-18	4.764226E-19
5.565238E+03	3.082112E-18	4.826374E-19
5.575141E+03	3.126261E-18	4.888624E-19
5.585043E+03	3.170609E-18	4.950994E-19
5.594946E+03	3.215104E-18	5.013401E-19
5.604848E+03	3.259718E-18	5.075693E-19
5.614751E+03	3.304469E-18	5.138003E-19
5.624653E+03	3.349337E-18	5.200297E-19
5.634556E+03	3.394226E-18	5.262429E-19
5.644459E+03	3.439176E-18	5.324344E-19
5.654361E+03	3.484171E-18	5.386128E-19
5.664264E+03	3.529150E-18	5.447687E-19
5.674166E+03	3.574085E-18	5.508980E-19
5.684069E+03	3.619015E-18	5.569945E-19
5.693971E+03	3.663849E-18	5.630560E-19
5.703874E+03	3.708637E-18	5.690904E-19
5.713776E+03	3.753272E-18	5.750813E-19
5.723679E+03	3.797794E-18	5.810220E-19
5.733582E+03	3.842147E-18	5.869166E-19
5.743484E+03	3.886344E-18	5.927672E-19
5.753387E+03	3.930313E-18	5.985631E-19
5.763289E+03	3.974096E-18	6.042973E-19
5.773192E+03	4.017636E-18	6.099744E-19
5.783094E+03	4.060860E-18	6.155836E-19
5.792997E+03	4.103825E-18	6.211339E-19
5.802899E+03	4.146486E-18	6.266042E-19
5.812802E+03	4.188830E-18	6.320069E-19
5.822705E+03	4.230783E-18	6.373309E-19
5.832607E+03	4.272359E-18	6.425788E-19
5.842510E+03	4.313554E-18	6.477355E-19
5.852412E+03	4.354314E-18	6.528074E-19
5.862315E+03	4.394657E-18	6.577979E-19
5.872217E+03	4.434454E-18	6.626876E-19
5.882120E+03	4.473797E-18	6.674757E-19
5.892022E+03	4.512634E-18	6.721696E-19
5.901925E+03	4.550936E-18	6.767656E-19
5.911828E+03	4.588612E-18	6.812505E-19
5.921730E+03	4.625717E-18	6.856187E-19
5.931633E+03	4.662248E-18	6.898841E-19
5.941535E+03	4.698064E-18	6.940266E-19
5.941702E+03	4.322155E-18	6.384772E-19
5.941900E+03	4.341803E-18	6.413580E-19
5.942098E+03	4.350222E-18	6.425801E-19
5.942296E+03	4.357957E-18	6.437011E-19
5.942494E+03	4.373444E-18	6.459670E-19
5.942692E+03	4.396948E-18	6.494168E-19
5.942891E+03	4.417714E-18	6.524619E-19
5.943089E+03	4.435475E-18	6.550630E-19
5.943287E+03	4.450073E-18	6.571969E-19
5.943484E+03	4.454439E-18	6.578198E-19
5.943682E+03	4.462816E-18	6.590348E-19
5.943880E+03	4.480003E-18	6.615506E-19
5.944079E+03	4.481051E-18	6.616831E-19
5.944277E+03	4.490908E-18	6.631163E-19
5.944474E+03	4.507201E-18	6.654999E-19
5.944672E+03	4.512629E-18	6.662789E-19
5.944870E+03	4.530457E-18	6.688888E-19
5.945069E+03	4.548340E-18	6.715065E-19
5.945267E+03	4.563638E-18	6.737425E-19
5.945465E+03	4.571287E-18	6.748490E-19
5.945663E+03	4.581575E-18	6.763451E-19
5.945861E+03	4.593290E-18	6.780517E-19
5.946059E+03	4.607697E-18	6.801556E-19
5.946257E+03	4.619731E-18	6.819091E-19
5.946455E+03	4.627965E-18	6.831016E-19
5.946653E+03	4.633088E-18	6.838348E-19
5.946851E+03	4.640267E-18	6.848713E-19
5.947049E+03	4.645281E-18	6.855883E-19
5.947247E+03	4.657693E-18	6.873971E-19
5.947445E+03	4.675275E-18	6.899687E-19
5.947643E+03	4.697614E-18	6.932421E-19
5.947842E+03	4.712935E-18	6.954796E-19
5.948040E+03	4.718911E-18	6.963380E-19
5.948436E+03	4.724991E-18	6.971883E-19
5.948634E+03	4.736037E-18	6.987948E-19
5.948832E+03	4.751575E-18	7.010637E-19
5.949031E+03	4.768857E-18	7.035900E-19
5.949229E+03	4.772984E-18	7.041752E-19
5.949427E+03	4.786622E-18	7.061634E-19
5.949625E+03	4.799948E-18	7.081055E-19
5.949823E+03	4.820508E-18	7.111148E-19
5.950219E+03	4.838973E-18	7.137906E-19
5.950417E+03	4.854311E-18	7.160290E-19
5.950615E+03	4.860718E-18	7.169499E-19
5.950813E+03	4.865593E-18	7.176448E-19
5.951011E+03	4.870206E-18	7.183011E-19
5.951209E+03	4.880372E-18	7.197761E-19
5.951407E+03	4.895979E-18	7.220536E-19
5.951605E+03	4.913388E-18	7.245967E-19
5.951803E+03	4.926619E-18	7.265234E-19
5.952001E+03	4.931394E-18	7.272030E-19
5.952199E+03	4.935008E-18	7.277115E-19
5.952397E+03	4.951788E-18	7.301613E-19
5.952595E+03	4.963279E-18	7.318309E-19
5.952795E+03	4.969964E-18	7.327919E-19
5.952993E+03	4.980559E-18	7.343293E-19
5.953191E+03	5.000625E-18	7.372629E-19
5.953389E+03	5.022913E-18	7.405239E-19
5.953587E+03	5.032881E-18	7.419686E-19
5.953785E+03	5.047398E-18	7.440836E-19
5.953983E+03	5.056890E-18	7.454578E-19
5.954181E+03	5.064586E-18	7.465671E-19
5.954379E+03	5.084502E-18	7.494776E-19
5.954577E+03	5.107544E-18	7.528487E-19
5.954775E+03	5.122124E-18	7.549723E-19
5.954973E+03	5.134743E-18	7.568067E-19
5.955171E+03	5.144561E-18	7.582282E-19
5.955369E+03	5.159357E-18	7.603833E-19
5.955567E+03	5.161767E-18	7.607128E-19
5.955764E+03	5.174394E-18	7.625480E-19
5.955962E+03	5.188185E-18	7.645547E-19
5.956161E+03	5.202827E-18	7.666864E-19
5.956359E+03	5.227211E-18	7.702536E-19
5.956556E+03	5.243869E-18	7.726822E-19
5.956755E+03	5.255496E-18	7.743693E-19
5.956953E+03	5.268558E-18	7.762677E-19
5.957151E+03	5.269227E-18	7.763401E-19
5.957349E+03	5.284781E-18	7.786054E-19
5.957547E+03	5.290376E-18	7.794035E-19
5.957746E+03	5.300793E-18	7.809116E-19
5.957944E+03	5.310102E-18	7.822566E-19
5.958142E+03	5.312522E-18	7.825866E-19
5.958340E+03	5.320241E-18	7.836973E-19
5.958538E+03	5.325840E-18	7.844955E-19
5.958736E+03	5.340979E-18	7.866989E-19
5.958934E+03	5.348697E-18	7.878091E-19
5.959132E+03	5.356421E-18	7.889200E-19
5.959330E+03	5.367324E-18	7.904992E-19
5.959528E+03	5.368687E-18	7.906731E-19
5.959726E+03	5.387012E-18	7.933451E-19
5.959924E+03	5.412755E-18	7.971094E-19
5.960122E+03	5.425782E-18	7.990008E-19
5.960320E+03	5.439872E-18	8.010486E-19
5.960518E+03	5.452902E-18	8.029402E-19
5.960717E+03	5.458512E-18	8.037390E-19
5.960915E+03	5.469426E-18	8.053188E-19
5.961113E+03	5.484578E-18	8.075226E-19
5.961311E+03	5.502388E-18	8.101173E-19
5.961509E+03	5.510656E-18	8.113071E-19
5.961707E+03	5.519451E-18	8.125746E-19
5.961905E+03	5.527721E-18	8.137645E-19
5.962103E+03	5.530156E-18	8.140954E-19
5.962301E+03	5.540547E-18	8.155974E-19
5.962499E+03	5.555179E-18	8.177236E-19
5.962698E+03	5.557090E-18	8.179771E-19
5.962896E+03	5.572255E-18	8.201816E-19
5.963094E+03	5.586365E-18	8.222306E-19
5.963292E+03	5.589334E-18	8.226398E-19
5.963490E+03	5.600264E-18	8.242204E-19
5.963688E+03	5.617029E-18	8.266598E-19
5.963886E+03	5.627961E-18	8.282406E-19
5.964084E+03	5.631465E-18	8.287282E-19
5.964282E+03	5.642925E-18	8.303866E-19
5.964481E+03	5.651740E-18	8.316555E-19
5.964679E+03	5.650999E-18	8.315183E-19
5.964877E+03	5.655568E-18	8.321624E-19
5.965075E+03	5.658542E-18	8.325719E-19
5.965273E+03	5.664702E-18	8.334499E-19
5.965471E+03	5.677232E-18	8.352651E-19
5.965669E+03	5.678618E-18	8.354407E-19
5.965867E+03	5.679473E-18	8.355382E-19
5.966065E+03	5.688820E-18	8.368849E-19
5.966263E+03	5.694983E-18	8.377631E-19
5.966461E+03	5.694776E-18	8.377042E-19
5.966659E+03	5.702535E-18	8.388172E-19
5.966857E+03	5.709764E-18	8.398519E-19
5.967055E+03	5.713807E-18	8.404181E-19
5.967253E+03	5.727409E-18	8.423902E-19
5.967452E+03	5.739418E-18	8.441278E-19
5.967650E+03	5.740809E-18	8.443036E-19
5.967848E+03	5.755479E-18	8.464324E-19
5.968045E+03	5.777050E-18	8.495760E-19
5.968243E+03	5.796502E-18	8.524077E-19
5.968443E+03	5.806927E-18	8.539117E-19
5.968641E+03	5.808854E-18	8.541660E-19
5.968839E+03	5.811840E-18	8.545761E-19
5.969036E+03	5.822793E-18	8.561577E-19
5.969234E+03	5.836409E-18	8.581305E-19
5.969432E+03	5.845246E-18	8.594007E-19
5.969630E+03	5.851956E-18	8.603580E-19
5.969828E+03	5.860258E-18	8.615493E-19
5.970026E+03	5.865910E-18	8.623509E-19
5.970224E+03	5.870493E-18	8.629953E-19
5.970620E+03	5.882326E-18	8.646761E-19
5.970818E+03	5.900206E-18	8.672748E-19
5.971016E+03	5.912235E-18	8.690135E-19
5.971214E+03	5.917887E-18	8.698147E-19
5.971412E+03	5.926201E-18	8.710071E-19
5.971610E+03	5.939300E-18	8.729025E-19
5.971808E+03	5.957187E-18	8.755017E-19
5.972006E+03	5.967098E-18	8.769285E-19
5.972205E+03	5.971689E-18	8.775733E-19
5.972404E+03	5.989051E-18	8.800946E-19
5.972602E+03	6.001624E-18	8.819122E-19
5.972800E+03	6.007288E-18	8.827144E-19
5.972998E+03	6.016139E-18	8.839849E-19
5.973196E+03	6.021271E-18	8.847090E-19
5.973394E+03	6.022147E-18	8.848075E-19
5.973592E+03	6.021424E-18	8.846712E-19
5.973790E+03	6.039855E-18	8.873488E-19
5.973988E+03	6.053501E-18	8.893234E-19
5.974186E+03	6.069280E-18	8.916112E-19
5.974384E+03	6.072819E-18	8.921006E-19
5.974582E+03	6.080078E-18	8.931367E-19
5.974780E+03	6.083089E-18	8.935485E-19
5.974978E+03	6.082903E-18	8.934907E-19
5.975176E+03	6.085377E-18	8.938236E-19
5.975374E+03	6.094771E-18	8.951730E-19
5.975572E+03	6.094056E-18	8.950375E-19
5.975770E+03	6.106113E-18	8.967778E-19
5.975968E+03	6.106461E-18	8.967982E-19
5.976167E+03	6.106275E-18	8.967404E-19
5.976365E+03	6.111950E-18	8.975433E-19
5.976563E+03	6.119221E-18	8.985803E-19
5.976761E+03	6.116903E-18	8.982093E-19
5.976959E+03	6.115656E-18	8.979956E-19
