#wls	flux	fluxerr
1.584409E+03	5.637299E-17	0.000000E+00
1.624020E+03	5.894651E-17	0.000000E+00
1.663630E+03	6.138483E-17	0.000000E+00
1.703240E+03	6.365014E-17	0.000000E+00
1.742850E+03	6.570763E-17	0.000000E+00
1.782461E+03	6.749097E-17	0.000000E+00
1.822071E+03	6.891984E-17	0.000000E+00
1.861681E+03	6.990090E-17	0.000000E+00
1.901291E+03	7.032874E-17	0.000000E+00
1.940902E+03	7.011803E-17	0.000000E+00
1.980512E+03	6.923850E-17	0.000000E+00
2.020122E+03	6.778002E-17	0.000000E+00
2.059732E+03	6.601520E-17	0.000000E+00
2.099342E+03	6.441036E-17	0.000000E+00
2.138953E+03	6.347017E-17	0.000000E+00
2.178563E+03	6.350301E-17	0.000000E+00
2.218173E+03	6.444029E-17	0.000000E+00
2.257783E+03	6.590779E-17	0.000000E+00
2.297394E+03	6.746736E-17	0.000000E+00
2.337004E+03	6.876277E-17	0.000000E+00
2.376614E+03	6.956623E-17	0.000000E+00
2.416224E+03	6.976787E-17	0.000000E+00
2.455835E+03	6.934038E-17	0.000000E+00
2.495445E+03	6.830960E-17	0.000000E+00
2.535055E+03	6.671984E-17	0.000000E+00
2.574665E+03	6.463303E-17	0.000000E+00
2.614276E+03	6.210944E-17	0.000000E+00
2.653886E+03	5.920713E-17	0.000000E+00
2.693496E+03	5.599093E-17	0.000000E+00
2.733106E+03	5.252076E-17	0.000000E+00
2.772716E+03	4.885744E-17	0.000000E+00
2.812327E+03	4.506148E-17	0.000000E+00
2.851937E+03	4.119596E-17	0.000000E+00
2.891547E+03	3.733077E-17	0.000000E+00
2.931157E+03	3.354057E-17	0.000000E+00
2.970768E+03	2.989156E-17	0.000000E+00
2.980670E+03	2.900774E-17	0.000000E+00
2.990573E+03	2.813795E-17	0.000000E+00
3.000475E+03	2.728128E-17	0.000000E+00
3.010378E+03	2.643885E-17	0.000000E+00
3.020280E+03	2.561224E-17	0.000000E+00
3.030183E+03	2.480062E-17	0.000000E+00
3.040086E+03	2.400572E-17	0.000000E+00
3.049988E+03	2.322872E-17	0.000000E+00
3.059891E+03	2.247061E-17	0.000000E+00
3.069793E+03	2.173112E-17	0.000000E+00
3.079696E+03	2.101089E-17	0.000000E+00
3.089598E+03	2.030921E-17	0.000000E+00
3.099501E+03	1.962630E-17	0.000000E+00
3.109403E+03	1.896194E-17	0.000000E+00
3.119306E+03	1.831596E-17	0.000000E+00
3.129209E+03	1.768852E-17	0.000000E+00
3.139111E+03	1.707975E-17	0.000000E+00
3.149014E+03	1.648881E-17	0.000000E+00
3.158916E+03	1.591641E-17	0.000000E+00
3.168819E+03	1.536200E-17	0.000000E+00
3.178721E+03	1.482562E-17	0.000000E+00
3.188624E+03	1.430697E-17	0.000000E+00
3.198526E+03	1.380553E-17	0.000000E+00
3.208429E+03	1.332173E-17	0.000000E+00
3.218332E+03	1.285454E-17	0.000000E+00
3.228234E+03	1.240430E-17	0.000000E+00
3.238137E+03	1.197062E-17	0.000000E+00
3.248039E+03	1.155274E-17	0.000000E+00
3.257942E+03	1.115086E-17	0.000000E+00
3.267844E+03	1.076421E-17	0.000000E+00
3.277747E+03	1.039258E-17	0.000000E+00
3.287650E+03	1.003556E-17	0.000000E+00
3.297552E+03	9.692875E-18	0.000000E+00
3.307455E+03	9.363974E-18	0.000000E+00
3.317357E+03	9.048443E-18	0.000000E+00
3.327260E+03	8.745877E-18	0.000000E+00
3.337162E+03	8.455989E-18	0.000000E+00
3.347065E+03	8.178241E-18	0.000000E+00
3.356967E+03	7.912236E-18	0.000000E+00
3.366870E+03	7.657596E-18	0.000000E+00
3.376773E+03	7.413820E-18	0.000000E+00
3.386675E+03	7.180549E-18	0.000000E+00
3.396578E+03	6.957426E-18	0.000000E+00
3.406480E+03	6.744001E-18	0.000000E+00
3.416383E+03	6.539949E-18	0.000000E+00
3.426285E+03	6.344854E-18	0.000000E+00
3.436188E+03	6.158329E-18	0.000000E+00
3.446090E+03	5.980016E-18	0.000000E+00
3.455993E+03	5.809496E-18	0.000000E+00
3.465896E+03	5.646506E-18	0.000000E+00
3.475798E+03	5.490670E-18	0.000000E+00
3.485701E+03	5.341577E-18	0.000000E+00
3.495603E+03	5.198795E-18	0.000000E+00
3.505506E+03	5.062086E-18	0.000000E+00
3.515408E+03	4.931071E-18	0.000000E+00
3.525311E+03	4.805302E-18	0.000000E+00
3.535213E+03	4.684516E-18	0.000000E+00
3.545116E+03	4.568421E-18	0.000000E+00
3.555019E+03	4.456704E-18	0.000000E+00
3.564921E+03	4.349036E-18	0.000000E+00
3.574824E+03	4.245274E-18	0.000000E+00
3.584726E+03	4.145203E-18	0.000000E+00
3.594629E+03	4.048620E-18	0.000000E+00
3.604531E+03	3.955512E-18	0.000000E+00
3.614434E+03	3.865750E-18	0.000000E+00
3.624337E+03	3.779238E-18	0.000000E+00
3.634239E+03	3.695912E-18	0.000000E+00
3.644142E+03	3.615702E-18	0.000000E+00
3.654044E+03	3.538503E-18	0.000000E+00
3.663947E+03	3.464298E-18	0.000000E+00
3.673849E+03	3.392946E-18	0.000000E+00
3.683752E+03	3.324396E-18	0.000000E+00
3.693654E+03	3.258616E-18	0.000000E+00
3.703557E+03	3.195439E-18	0.000000E+00
3.713460E+03	3.134884E-18	0.000000E+00
3.723362E+03	3.076786E-18	0.000000E+00
3.733265E+03	3.021135E-18	0.000000E+00
3.743167E+03	2.967842E-18	0.000000E+00
3.753070E+03	2.916822E-18	0.000000E+00
3.762972E+03	2.868013E-18	0.000000E+00
3.772875E+03	2.821333E-18	0.000000E+00
3.782777E+03	2.776720E-18	0.000000E+00
3.792680E+03	2.734117E-18	0.000000E+00
3.802583E+03	2.693445E-18	0.000000E+00
3.812485E+03	2.654649E-18	0.000000E+00
3.822388E+03	2.617672E-18	0.000000E+00
3.832290E+03	2.582444E-18	0.000000E+00
3.842193E+03	2.548912E-18	0.000000E+00
3.852095E+03	2.517028E-18	0.000000E+00
3.861998E+03	2.486724E-18	0.000000E+00
3.871900E+03	2.457954E-18	0.000000E+00
3.881803E+03	2.430656E-18	0.000000E+00
3.891706E+03	2.404805E-18	0.000000E+00
3.901608E+03	2.380341E-18	0.000000E+00
3.911511E+03	2.357226E-18	0.000000E+00
3.921413E+03	2.335386E-18	0.000000E+00
3.931316E+03	2.314820E-18	0.000000E+00
3.941218E+03	2.295458E-18	0.000000E+00
3.951121E+03	2.277267E-18	0.000000E+00
3.961024E+03	2.260199E-18	0.000000E+00
3.970926E+03	2.244239E-18	0.000000E+00
3.980829E+03	2.229325E-18	0.000000E+00
3.990731E+03	2.215446E-18	0.000000E+00
4.000634E+03	2.202543E-18	0.000000E+00
4.010536E+03	2.190607E-18	0.000000E+00
4.020439E+03	2.179581E-18	0.000000E+00
4.030341E+03	2.169443E-18	0.000000E+00
4.040244E+03	2.160171E-18	0.000000E+00
4.050147E+03	2.151747E-18	0.000000E+00
4.060049E+03	2.144116E-18	0.000000E+00
4.069952E+03	2.137264E-18	0.000000E+00
4.079854E+03	2.131155E-18	0.000000E+00
4.089757E+03	2.125775E-18	0.000000E+00
4.099659E+03	2.121110E-18	0.000000E+00
4.109562E+03	2.117113E-18	0.000000E+00
4.119464E+03	2.113787E-18	0.000000E+00
4.129367E+03	2.111090E-18	0.000000E+00
4.139270E+03	2.109010E-18	0.000000E+00
4.149172E+03	2.107537E-18	0.000000E+00
4.159075E+03	2.106630E-18	0.000000E+00
4.168977E+03	2.106282E-18	0.000000E+00
4.178880E+03	2.106469E-18	0.000000E+00
4.188782E+03	2.107199E-18	0.000000E+00
4.198685E+03	2.108420E-18	0.000000E+00
4.208587E+03	2.110143E-18	0.000000E+00
4.218490E+03	2.112330E-18	0.000000E+00
4.228393E+03	2.114994E-18	0.000000E+00
4.238295E+03	2.118083E-18	0.000000E+00
4.248198E+03	2.121595E-18	0.000000E+00
4.258100E+03	2.125527E-18	0.000000E+00
4.268003E+03	2.129829E-18	0.000000E+00
4.277905E+03	2.134515E-18	0.000000E+00
4.287808E+03	2.139520E-18	0.000000E+00
4.297711E+03	2.144858E-18	0.000000E+00
4.307613E+03	2.150445E-18	0.000000E+00
4.317516E+03	2.156282E-18	0.000000E+00
4.327418E+03	2.162419E-18	0.000000E+00
4.337321E+03	2.168857E-18	0.000000E+00
4.347223E+03	2.175616E-18	0.000000E+00
4.357126E+03	2.182699E-18	0.000000E+00
4.367028E+03	2.190075E-18	0.000000E+00
4.376931E+03	2.197784E-18	0.000000E+00
4.386834E+03	2.205795E-18	0.000000E+00
4.396736E+03	2.214114E-18	0.000000E+00
4.406639E+03	2.222730E-18	0.000000E+00
4.416541E+03	2.231652E-18	0.000000E+00
4.426444E+03	2.240849E-18	0.000000E+00
4.436346E+03	2.250349E-18	0.000000E+00
4.446249E+03	2.260126E-18	0.000000E+00
4.456151E+03	2.270171E-18	0.000000E+00
4.466054E+03	2.280515E-18	0.000000E+00
4.475957E+03	2.291113E-18	0.000000E+00
4.485859E+03	2.301979E-18	0.000000E+00
4.495762E+03	2.313126E-18	0.000000E+00
4.505664E+03	2.324530E-18	0.000000E+00
4.515567E+03	2.336207E-18	0.000000E+00
4.525469E+03	2.348135E-18	0.000000E+00
4.535372E+03	2.360331E-18	0.000000E+00
4.545274E+03	2.372793E-18	0.000000E+00
4.555177E+03	2.385519E-18	0.000000E+00
4.565080E+03	2.398490E-18	0.000000E+00
4.574982E+03	2.411745E-18	0.000000E+00
4.584885E+03	2.425244E-18	0.000000E+00
4.594787E+03	2.439006E-18	0.000000E+00
4.604690E+03	2.453036E-18	0.000000E+00
4.614592E+03	2.467311E-18	0.000000E+00
4.624495E+03	2.481877E-18	0.000000E+00
4.634398E+03	2.496692E-18	0.000000E+00
4.644300E+03	2.511781E-18	0.000000E+00
4.654203E+03	2.527189E-18	0.000000E+00
4.664105E+03	2.542898E-18	0.000000E+00
4.674008E+03	2.558936E-18	0.000000E+00
4.683910E+03	2.575328E-18	0.000000E+00
4.693813E+03	2.592081E-18	0.000000E+00
4.703715E+03	2.609199E-18	0.000000E+00
4.713618E+03	2.626737E-18	0.000000E+00
4.723521E+03	2.644653E-18	0.000000E+00
4.733423E+03	2.663002E-18	0.000000E+00
4.743326E+03	2.681792E-18	0.000000E+00
4.753228E+03	2.701007E-18	0.000000E+00
4.763131E+03	2.720703E-18	0.000000E+00
4.773033E+03	2.740868E-18	0.000000E+00
4.782936E+03	2.761507E-18	0.000000E+00
4.792838E+03	2.782632E-18	0.000000E+00
4.802741E+03	2.804252E-18	0.000000E+00
4.812644E+03	2.826428E-18	0.000000E+00
4.822546E+03	2.849096E-18	0.000000E+00
4.832449E+03	2.872315E-18	0.000000E+00
4.842351E+03	2.896071E-18	0.000000E+00
4.852254E+03	2.920403E-18	0.000000E+00
4.862156E+03	2.945294E-18	0.000000E+00
4.872059E+03	2.970755E-18	0.000000E+00
4.881961E+03	2.996826E-18	0.000000E+00
4.891864E+03	3.023461E-18	0.000000E+00
4.901767E+03	3.050701E-18	0.000000E+00
4.911669E+03	3.078555E-18	0.000000E+00
4.921572E+03	3.107035E-18	0.000000E+00
4.931474E+03	3.136122E-18	0.000000E+00
4.941377E+03	3.165826E-18	0.000000E+00
4.951279E+03	3.196186E-18	0.000000E+00
4.961182E+03	3.227153E-18	0.000000E+00
4.971085E+03	3.258796E-18	0.000000E+00
4.980987E+03	3.291061E-18	0.000000E+00
4.990890E+03	3.323958E-18	0.000000E+00
5.000792E+03	3.357526E-18	0.000000E+00
5.010695E+03	3.391739E-18	0.000000E+00
5.020597E+03	3.426605E-18	0.000000E+00
5.030500E+03	3.462097E-18	0.000000E+00
5.040402E+03	3.498253E-18	0.000000E+00
5.050305E+03	3.535080E-18	0.000000E+00
5.060208E+03	3.572513E-18	0.000000E+00
5.070110E+03	3.610591E-18	0.000000E+00
5.080013E+03	3.649317E-18	0.000000E+00
5.089915E+03	3.688693E-18	0.000000E+00
5.099818E+03	3.728688E-18	0.000000E+00
5.109720E+03	3.769302E-18	0.000000E+00
5.119623E+03	3.810498E-18	0.000000E+00
5.129525E+03	3.852352E-18	0.000000E+00
5.139428E+03	3.894788E-18	0.000000E+00
5.149331E+03	3.937804E-18	0.000000E+00
5.159233E+03	3.981398E-18	0.000000E+00
5.169136E+03	4.025605E-18	0.000000E+00
5.179038E+03	4.070344E-18	0.000000E+00
5.188941E+03	4.115608E-18	0.000000E+00
5.198843E+03	4.161470E-18	0.000000E+00
5.208746E+03	4.207803E-18	0.000000E+00
5.218648E+03	4.254678E-18	0.000000E+00
5.228551E+03	4.302043E-18	0.000000E+00
5.238454E+03	4.349885E-18	0.000000E+00
5.248356E+03	4.398236E-18	0.000000E+00
5.258259E+03	4.446992E-18	0.000000E+00
5.268161E+03	4.496179E-18	0.000000E+00
5.278064E+03	4.545777E-18	0.000000E+00
5.287966E+03	4.595765E-18	0.000000E+00
5.297869E+03	4.646166E-18	0.000000E+00
5.307772E+03	4.696861E-18	0.000000E+00
5.317674E+03	4.747867E-18	0.000000E+00
5.327577E+03	4.799155E-18	0.000000E+00
5.337479E+03	4.850641E-18	0.000000E+00
5.347382E+03	4.902385E-18	0.000000E+00
5.357284E+03	4.954299E-18	0.000000E+00
5.367187E+03	5.006292E-18	0.000000E+00
5.377089E+03	5.058317E-18	0.000000E+00
5.386992E+03	5.110374E-18	0.000000E+00
5.396895E+03	5.162310E-18	0.000000E+00
5.406797E+03	5.214117E-18	0.000000E+00
5.416700E+03	5.265737E-18	0.000000E+00
5.426602E+03	5.317001E-18	0.000000E+00
5.436505E+03	5.367840E-18	0.000000E+00
5.446407E+03	5.418237E-18	0.000000E+00
5.456310E+03	5.468065E-18	0.000000E+00
5.466212E+03	5.517190E-18	0.000000E+00
5.476115E+03	5.565476E-18	0.000000E+00
5.486018E+03	5.612951E-18	0.000000E+00
5.495920E+03	5.659361E-18	0.000000E+00
5.505823E+03	5.704672E-18	0.000000E+00
5.515725E+03	5.748739E-18	0.000000E+00
5.525628E+03	5.791469E-18	0.000000E+00
5.535530E+03	5.832770E-18	0.000000E+00
5.545433E+03	5.872492E-18	0.000000E+00
5.555335E+03	5.910603E-18	0.000000E+00
5.565238E+03	5.946953E-18	0.000000E+00
5.575141E+03	5.981392E-18	0.000000E+00
5.585043E+03	6.013958E-18	0.000000E+00
5.594946E+03	6.044505E-18	0.000000E+00
5.604848E+03	6.072894E-18	0.000000E+00
5.614751E+03	6.099112E-18	0.000000E+00
5.624653E+03	6.123153E-18	0.000000E+00
5.634556E+03	6.144826E-18	0.000000E+00
5.644459E+03	6.164136E-18	0.000000E+00
5.654361E+03	6.181098E-18	0.000000E+00
5.664264E+03	6.195602E-18	0.000000E+00
5.674166E+03	6.207674E-18	0.000000E+00
5.684069E+03	6.217221E-18	0.000000E+00
5.693971E+03	6.224284E-18	0.000000E+00
5.703874E+03	6.228849E-18	0.000000E+00
5.713776E+03	6.230975E-18	0.000000E+00
5.723679E+03	6.230529E-18	0.000000E+00
5.733582E+03	6.227721E-18	0.000000E+00
5.743484E+03	6.222432E-18	0.000000E+00
5.753387E+03	6.214754E-18	0.000000E+00
5.763289E+03	6.204716E-18	0.000000E+00
5.773192E+03	6.192359E-18	0.000000E+00
5.783094E+03	6.177794E-18	0.000000E+00
5.792997E+03	6.161073E-18	0.000000E+00
5.802899E+03	6.142255E-18	0.000000E+00
5.812802E+03	6.121334E-18	0.000000E+00
5.822705E+03	6.098517E-18	0.000000E+00
5.832607E+03	6.073808E-18	0.000000E+00
5.842510E+03	6.047353E-18	0.000000E+00
5.852412E+03	6.019167E-18	0.000000E+00
5.862315E+03	5.989402E-18	0.000000E+00
5.872217E+03	5.958144E-18	0.000000E+00
5.882120E+03	5.925483E-18	0.000000E+00
5.892022E+03	5.891510E-18	0.000000E+00
5.901925E+03	5.856314E-18	0.000000E+00
5.911828E+03	5.820055E-18	0.000000E+00
5.921730E+03	5.782689E-18	0.000000E+00
5.931633E+03	5.744439E-18	0.000000E+00
5.941535E+03	5.705329E-18	0.000000E+00
5.951438E+03	5.665444E-18	0.000000E+00
5.961340E+03	5.624939E-18	0.000000E+00
5.971243E+03	5.583760E-18	0.000000E+00
5.981146E+03	5.542125E-18	0.000000E+00
5.991048E+03	5.499977E-18	0.000000E+00
6.000951E+03	5.457458E-18	0.000000E+00
6.010853E+03	5.414641E-18	0.000000E+00
6.020756E+03	5.371530E-18	0.000000E+00
6.030658E+03	5.328192E-18	0.000000E+00
6.040561E+03	5.284690E-18	0.000000E+00
6.050463E+03	5.241085E-18	0.000000E+00
6.060366E+03	5.197434E-18	0.000000E+00
6.070269E+03	5.153790E-18	0.000000E+00
6.080171E+03	5.110205E-18	0.000000E+00
6.090074E+03	5.066727E-18	0.000000E+00
6.099976E+03	5.023465E-18	0.000000E+00
6.109879E+03	4.980521E-18	0.000000E+00
6.119781E+03	4.938000E-18	0.000000E+00
6.129684E+03	4.895934E-18	0.000000E+00
6.139586E+03	4.854355E-18	0.000000E+00
6.149489E+03	4.813229E-18	0.000000E+00
6.159392E+03	4.772583E-18	0.000000E+00
6.169294E+03	4.732442E-18	0.000000E+00
6.179197E+03	4.692766E-18	0.000000E+00
6.189099E+03	4.653637E-18	0.000000E+00
6.199002E+03	4.615199E-18	0.000000E+00
6.208904E+03	4.577404E-18	0.000000E+00
6.218807E+03	4.540330E-18	0.000000E+00
6.228709E+03	4.504111E-18	0.000000E+00
6.238612E+03	4.468698E-18	0.000000E+00
6.248515E+03	4.434283E-18	0.000000E+00
6.258417E+03	4.400937E-18	0.000000E+00
6.268320E+03	4.368602E-18	0.000000E+00
6.278222E+03	4.337469E-18	0.000000E+00
6.288125E+03	4.307604E-18	0.000000E+00
6.298027E+03	4.279009E-18	0.000000E+00
6.307930E+03	4.251749E-18	0.000000E+00
6.317833E+03	4.226012E-18	0.000000E+00
6.327735E+03	4.201738E-18	0.000000E+00
6.337638E+03	4.178990E-18	0.000000E+00
6.347540E+03	4.157896E-18	0.000000E+00
6.357443E+03	4.138271E-18	0.000000E+00
6.367345E+03	4.119996E-18	0.000000E+00
6.377248E+03	4.103012E-18	0.000000E+00
6.387150E+03	4.087260E-18	0.000000E+00
6.397053E+03	4.072618E-18	0.000000E+00
6.406956E+03	4.059088E-18	0.000000E+00
6.416858E+03	4.046612E-18	0.000000E+00
6.426761E+03	4.035191E-18	0.000000E+00
6.436663E+03	4.024765E-18	0.000000E+00
6.446566E+03	4.015335E-18	0.000000E+00
6.456468E+03	4.006905E-18	0.000000E+00
6.466371E+03	3.999410E-18	0.000000E+00
6.476273E+03	3.992917E-18	0.000000E+00
6.486176E+03	3.987428E-18	0.000000E+00
6.496079E+03	3.982879E-18	0.000000E+00
6.505981E+03	3.979336E-18	0.000000E+00
6.515884E+03	3.976737E-18	0.000000E+00
6.525786E+03	3.975083E-18	0.000000E+00
6.535689E+03	3.974439E-18	0.000000E+00
6.545591E+03	3.974676E-18	0.000000E+00
6.555494E+03	3.975990E-18	0.000000E+00
6.565396E+03	3.978189E-18	0.000000E+00
6.575299E+03	3.981402E-18	0.000000E+00
6.585202E+03	3.985565E-18	0.000000E+00
6.595104E+03	3.990680E-18	0.000000E+00
6.605007E+03	3.996813E-18	0.000000E+00
6.614909E+03	4.003900E-18	0.000000E+00
6.624812E+03	4.011939E-18	0.000000E+00
6.634714E+03	4.020932E-18	0.000000E+00
6.644617E+03	4.030949E-18	0.000000E+00
6.654520E+03	4.041852E-18	0.000000E+00
6.664422E+03	4.053779E-18	0.000000E+00
6.674325E+03	4.066663E-18	0.000000E+00
6.684227E+03	4.080503E-18	0.000000E+00
6.694130E+03	4.095298E-18	0.000000E+00
6.704032E+03	4.111050E-18	0.000000E+00
6.713935E+03	4.127831E-18	0.000000E+00
6.723837E+03	4.145495E-18	0.000000E+00
6.733740E+03	4.164114E-18	0.000000E+00
6.743643E+03	4.183689E-18	0.000000E+00
6.753545E+03	4.204218E-18	0.000000E+00
6.763448E+03	4.225701E-18	0.000000E+00
6.773350E+03	4.248137E-18	0.000000E+00
6.783253E+03	4.271526E-18	0.000000E+00
6.793155E+03	4.295788E-18	0.000000E+00
6.803058E+03	4.320999E-18	0.000000E+00
6.812960E+03	4.347158E-18	0.000000E+00
6.822863E+03	4.374184E-18	0.000000E+00
6.832766E+03	4.402154E-18	0.000000E+00
6.842668E+03	4.431067E-18	0.000000E+00
6.852571E+03	4.460840E-18	0.000000E+00
6.862473E+03	4.491467E-18	0.000000E+00
6.872376E+03	4.523032E-18	0.000000E+00
6.882278E+03	4.555446E-18	0.000000E+00
6.892181E+03	4.588706E-18	0.000000E+00
6.902083E+03	4.622898E-18	0.000000E+00
6.911986E+03	4.657931E-18	0.000000E+00
6.921889E+03	4.693801E-18	0.000000E+00
6.931791E+03	4.730415E-18	0.000000E+00
6.941694E+03	4.767951E-18	0.000000E+00
6.951596E+03	4.806316E-18	0.000000E+00
6.961499E+03	4.845508E-18	0.000000E+00
6.971401E+03	4.885428E-18	0.000000E+00
6.981304E+03	4.926168E-18	0.000000E+00
6.991207E+03	4.967629E-18	0.000000E+00
7.001109E+03	5.010003E-18	0.000000E+00
7.011012E+03	5.052991E-18	0.000000E+00
7.020914E+03	5.096789E-18	0.000000E+00
7.030817E+03	5.141292E-18	0.000000E+00
7.040719E+03	5.186601E-18	0.000000E+00
7.050622E+03	5.232503E-18	0.000000E+00
7.060524E+03	5.279205E-18	0.000000E+00
7.070427E+03	5.326489E-18	0.000000E+00
7.080330E+03	5.374458E-18	0.000000E+00
7.090232E+03	5.423108E-18	0.000000E+00
7.100135E+03	5.472436E-18	0.000000E+00
7.110037E+03	5.522320E-18	0.000000E+00
7.119940E+03	5.572755E-18	0.000000E+00
7.129842E+03	5.623850E-18	0.000000E+00
7.139745E+03	5.675480E-18	0.000000E+00
7.149647E+03	5.727758E-18	0.000000E+00
7.159550E+03	5.780434E-18	0.000000E+00
7.169453E+03	5.833742E-18	0.000000E+00
7.179355E+03	5.887551E-18	0.000000E+00
7.189258E+03	5.941850E-18	0.000000E+00
7.199160E+03	5.996628E-18	0.000000E+00
7.209063E+03	6.051875E-18	0.000000E+00
7.218965E+03	6.107575E-18	0.000000E+00
7.228868E+03	6.163854E-18	0.000000E+00
7.238770E+03	6.220427E-18	0.000000E+00
7.248673E+03	6.277692E-18	0.000000E+00
7.258576E+03	6.335505E-18	0.000000E+00
7.268478E+03	6.393710E-18	0.000000E+00
7.278381E+03	6.452729E-18	0.000000E+00
7.288283E+03	6.512265E-18	0.000000E+00
7.298186E+03	6.572756E-18	0.000000E+00
7.308088E+03	6.634053E-18	0.000000E+00
7.317991E+03	6.696311E-18	0.000000E+00
7.327894E+03	6.759690E-18	0.000000E+00
7.337796E+03	6.824200E-18	0.000000E+00
7.347699E+03	6.890173E-18	0.000000E+00
7.357601E+03	6.957796E-18	0.000000E+00
7.367504E+03	7.026933E-18	0.000000E+00
7.377406E+03	7.097608E-18	0.000000E+00
7.387309E+03	7.169842E-18	0.000000E+00
7.397211E+03	7.243488E-18	0.000000E+00
7.407114E+03	7.318383E-18	0.000000E+00
7.417017E+03	7.394356E-18	0.000000E+00
7.426919E+03	7.471409E-18	0.000000E+00
7.436822E+03	7.549354E-18	0.000000E+00
7.446724E+03	7.627996E-18	0.000000E+00
7.456627E+03	7.707503E-18	0.000000E+00
7.466529E+03	7.787480E-18	0.000000E+00
7.476432E+03	7.867893E-18	0.000000E+00
7.486334E+03	7.948713E-18	0.000000E+00
7.496237E+03	8.029909E-18	0.000000E+00
7.506140E+03	8.111434E-18	0.000000E+00
7.516042E+03	8.193053E-18	0.000000E+00
7.525945E+03	8.274720E-18	0.000000E+00
7.535847E+03	8.356583E-18	0.000000E+00
7.545750E+03	8.438382E-18	0.000000E+00
7.555652E+03	8.520283E-18	0.000000E+00
7.565555E+03	8.601806E-18	0.000000E+00
7.575457E+03	8.683303E-18	0.000000E+00
7.585360E+03	8.764508E-18	0.000000E+00
7.595263E+03	8.845348E-18	0.000000E+00
7.605165E+03	8.925760E-18	0.000000E+00
7.615068E+03	9.005900E-18	0.000000E+00
7.624970E+03	9.085460E-18	0.000000E+00
7.634873E+03	9.164369E-18	0.000000E+00
7.644775E+03	9.242790E-18	0.000000E+00
7.654678E+03	9.320644E-18	0.000000E+00
7.664581E+03	9.397605E-18	0.000000E+00
7.674483E+03	9.473839E-18	0.000000E+00
7.684386E+03	9.549273E-18	0.000000E+00
