#wls	flux	fluxerr
1.584409E+03	5.830995E-17	0.000000E+00
1.624020E+03	6.096218E-17	0.000000E+00
1.663630E+03	6.347104E-17	0.000000E+00
1.703240E+03	6.579697E-17	0.000000E+00
1.742850E+03	6.790374E-17	0.000000E+00
1.782461E+03	6.972246E-17	0.000000E+00
1.822071E+03	7.117006E-17	0.000000E+00
1.861681E+03	7.215029E-17	0.000000E+00
1.901291E+03	7.255461E-17	0.000000E+00
1.940902E+03	7.229569E-17	0.000000E+00
1.980512E+03	7.134336E-17	0.000000E+00
2.020122E+03	6.979146E-17	0.000000E+00
2.059732E+03	6.792187E-17	0.000000E+00
2.099342E+03	6.621495E-17	0.000000E+00
2.138953E+03	6.518879E-17	0.000000E+00
2.178563E+03	6.515804E-17	0.000000E+00
2.218173E+03	6.604930E-17	0.000000E+00
2.257783E+03	6.747616E-17	0.000000E+00
2.297394E+03	6.898824E-17	0.000000E+00
2.337004E+03	7.022093E-17	0.000000E+00
2.376614E+03	7.094269E-17	0.000000E+00
2.416224E+03	7.104333E-17	0.000000E+00
2.455835E+03	7.049778E-17	0.000000E+00
2.495445E+03	6.933538E-17	0.000000E+00
2.535055E+03	6.760422E-17	0.000000E+00
2.574665E+03	6.537029E-17	0.000000E+00
2.614276E+03	6.269765E-17	0.000000E+00
2.653886E+03	5.964790E-17	0.000000E+00
2.693496E+03	5.628901E-17	0.000000E+00
2.733106E+03	5.268373E-17	0.000000E+00
2.772716E+03	4.889509E-17	0.000000E+00
2.812327E+03	4.498525E-17	0.000000E+00
2.851937E+03	4.101826E-17	0.000000E+00
2.891547E+03	3.706424E-17	0.000000E+00
2.931157E+03	3.319730E-17	0.000000E+00
2.970768E+03	2.948263E-17	0.000000E+00
2.980670E+03	2.858402E-17	0.000000E+00
2.990573E+03	2.770003E-17	0.000000E+00
3.000475E+03	2.682979E-17	0.000000E+00
3.010378E+03	2.597440E-17	0.000000E+00
3.020280E+03	2.513543E-17	0.000000E+00
3.030183E+03	2.431208E-17	0.000000E+00
3.040086E+03	2.350606E-17	0.000000E+00
3.049988E+03	2.271854E-17	0.000000E+00
3.059891E+03	2.195052E-17	0.000000E+00
3.069793E+03	2.120176E-17	0.000000E+00
3.079696E+03	2.047290E-17	0.000000E+00
3.089598E+03	1.976327E-17	0.000000E+00
3.099501E+03	1.907311E-17	0.000000E+00
3.109403E+03	1.840224E-17	0.000000E+00
3.119306E+03	1.775049E-17	0.000000E+00
3.129209E+03	1.711805E-17	0.000000E+00
3.139111E+03	1.650505E-17	0.000000E+00
3.149014E+03	1.591068E-17	0.000000E+00
3.158916E+03	1.533562E-17	0.000000E+00
3.168819E+03	1.477934E-17	0.000000E+00
3.178721E+03	1.424184E-17	0.000000E+00
3.188624E+03	1.372283E-17	0.000000E+00
3.198526E+03	1.322177E-17	0.000000E+00
3.208429E+03	1.273903E-17	0.000000E+00
3.218332E+03	1.227361E-17	0.000000E+00
3.228234E+03	1.182575E-17	0.000000E+00
3.238137E+03	1.139506E-17	0.000000E+00
3.248039E+03	1.098075E-17	0.000000E+00
3.257942E+03	1.058296E-17	0.000000E+00
3.267844E+03	1.020089E-17	0.000000E+00
3.277747E+03	9.834275E-18	0.000000E+00
3.287650E+03	9.482677E-18	0.000000E+00
3.297552E+03	9.145781E-18	0.000000E+00
3.307455E+03	8.822978E-18	0.000000E+00
3.317357E+03	8.513832E-18	0.000000E+00
3.327260E+03	8.217899E-18	0.000000E+00
3.337162E+03	7.934837E-18	0.000000E+00
3.347065E+03	7.664091E-18	0.000000E+00
3.356967E+03	7.405239E-18	0.000000E+00
3.366870E+03	7.157845E-18	0.000000E+00
3.376773E+03	6.921403E-18	0.000000E+00
3.386675E+03	6.695529E-18	0.000000E+00
3.396578E+03	6.479819E-18	0.000000E+00
3.406480E+03	6.273832E-18	0.000000E+00
3.416383E+03	6.077192E-18	0.000000E+00
3.426285E+03	5.889488E-18	0.000000E+00
3.436188E+03	5.710316E-18	0.000000E+00
3.446090E+03	5.539298E-18	0.000000E+00
3.455993E+03	5.376011E-18	0.000000E+00
3.465896E+03	5.220178E-18	0.000000E+00
3.475798E+03	5.071417E-18	0.000000E+00
3.485701E+03	4.929321E-18	0.000000E+00
3.495603E+03	4.793457E-18	0.000000E+00
3.505506E+03	4.663583E-18	0.000000E+00
3.515408E+03	4.539320E-18	0.000000E+00
3.525311E+03	4.420235E-18	0.000000E+00
3.535213E+03	4.306061E-18	0.000000E+00
3.545116E+03	4.196510E-18	0.000000E+00
3.555019E+03	4.091275E-18	0.000000E+00
3.564921E+03	3.990034E-18	0.000000E+00
3.574824E+03	3.892639E-18	0.000000E+00
3.584726E+03	3.798876E-18	0.000000E+00
3.594629E+03	3.708542E-18	0.000000E+00
3.604531E+03	3.621611E-18	0.000000E+00
3.614434E+03	3.537948E-18	0.000000E+00
3.624337E+03	3.457453E-18	0.000000E+00
3.634239E+03	3.380053E-18	0.000000E+00
3.644142E+03	3.305671E-18	0.000000E+00
3.654044E+03	3.234199E-18	0.000000E+00
3.663947E+03	3.165608E-18	0.000000E+00
3.673849E+03	3.099761E-18	0.000000E+00
3.683752E+03	3.036596E-18	0.000000E+00
3.693654E+03	2.976078E-18	0.000000E+00
3.703557E+03	2.918043E-18	0.000000E+00
3.713460E+03	2.862500E-18	0.000000E+00
3.723362E+03	2.809290E-18	0.000000E+00
3.733265E+03	2.758395E-18	0.000000E+00
3.743167E+03	2.709729E-18	0.000000E+00
3.753070E+03	2.663206E-18	0.000000E+00
3.762972E+03	2.618764E-18	0.000000E+00
3.772875E+03	2.576322E-18	0.000000E+00
3.782777E+03	2.535820E-18	0.000000E+00
3.792680E+03	2.497201E-18	0.000000E+00
3.802583E+03	2.460388E-18	0.000000E+00
3.812485E+03	2.425327E-18	0.000000E+00
3.822388E+03	2.391966E-18	0.000000E+00
3.832290E+03	2.360235E-18	0.000000E+00
3.842193E+03	2.330085E-18	0.000000E+00
3.852095E+03	2.301469E-18	0.000000E+00
3.861998E+03	2.274323E-18	0.000000E+00
3.871900E+03	2.248604E-18	0.000000E+00
3.881803E+03	2.224253E-18	0.000000E+00
3.891706E+03	2.201247E-18	0.000000E+00
3.901608E+03	2.179529E-18	0.000000E+00
3.911511E+03	2.159063E-18	0.000000E+00
3.921413E+03	2.139781E-18	0.000000E+00
3.931316E+03	2.121680E-18	0.000000E+00
3.941218E+03	2.104695E-18	0.000000E+00
3.951121E+03	2.088796E-18	0.000000E+00
3.961024E+03	2.073936E-18	0.000000E+00
3.970926E+03	2.060102E-18	0.000000E+00
3.980829E+03	2.047236E-18	0.000000E+00
3.990731E+03	2.035327E-18	0.000000E+00
4.000634E+03	2.024319E-18	0.000000E+00
4.010536E+03	2.014204E-18	0.000000E+00
4.020439E+03	2.004929E-18	0.000000E+00
4.030341E+03	1.996472E-18	0.000000E+00
4.040244E+03	1.988814E-18	0.000000E+00
4.050147E+03	1.981935E-18	0.000000E+00
4.060049E+03	1.975787E-18	0.000000E+00
4.069952E+03	1.970353E-18	0.000000E+00
4.079854E+03	1.965603E-18	0.000000E+00
4.089757E+03	1.961520E-18	0.000000E+00
4.099659E+03	1.958093E-18	0.000000E+00
4.109562E+03	1.955277E-18	0.000000E+00
4.119464E+03	1.953077E-18	0.000000E+00
4.129367E+03	1.951450E-18	0.000000E+00
4.139270E+03	1.950386E-18	0.000000E+00
4.149172E+03	1.949878E-18	0.000000E+00
4.159075E+03	1.949886E-18	0.000000E+00
4.168977E+03	1.950403E-18	0.000000E+00
4.178880E+03	1.951407E-18	0.000000E+00
4.188782E+03	1.952906E-18	0.000000E+00
4.198685E+03	1.954852E-18	0.000000E+00
4.208587E+03	1.957254E-18	0.000000E+00
4.218490E+03	1.960078E-18	0.000000E+00
4.228393E+03	1.963335E-18	0.000000E+00
4.238295E+03	1.966978E-18	0.000000E+00
4.248198E+03	1.971004E-18	0.000000E+00
4.258100E+03	1.975411E-18	0.000000E+00
4.268003E+03	1.980151E-18	0.000000E+00
4.277905E+03	1.985241E-18	0.000000E+00
4.287808E+03	1.990615E-18	0.000000E+00
4.297711E+03	1.996289E-18	0.000000E+00
4.307613E+03	2.002185E-18	0.000000E+00
4.317516E+03	2.008301E-18	0.000000E+00
4.327418E+03	2.014685E-18	0.000000E+00
4.337321E+03	2.021338E-18	0.000000E+00
4.347223E+03	2.028277E-18	0.000000E+00
4.357126E+03	2.035504E-18	0.000000E+00
4.367028E+03	2.042991E-18	0.000000E+00
4.376931E+03	2.050772E-18	0.000000E+00
4.386834E+03	2.058821E-18	0.000000E+00
4.396736E+03	2.067141E-18	0.000000E+00
4.406639E+03	2.075721E-18	0.000000E+00
4.416541E+03	2.084567E-18	0.000000E+00
4.426444E+03	2.093652E-18	0.000000E+00
4.436346E+03	2.103002E-18	0.000000E+00
4.446249E+03	2.112591E-18	0.000000E+00
4.456151E+03	2.122410E-18	0.000000E+00
4.466054E+03	2.132487E-18	0.000000E+00
4.475957E+03	2.142781E-18	0.000000E+00
4.485859E+03	2.153303E-18	0.000000E+00
4.495762E+03	2.164067E-18	0.000000E+00
4.505664E+03	2.175051E-18	0.000000E+00
4.515567E+03	2.186270E-18	0.000000E+00
4.525469E+03	2.197702E-18	0.000000E+00
4.535372E+03	2.209365E-18	0.000000E+00
4.545274E+03	2.221258E-18	0.000000E+00
4.555177E+03	2.233379E-18	0.000000E+00
4.565080E+03	2.245711E-18	0.000000E+00
4.574982E+03	2.258291E-18	0.000000E+00
4.584885E+03	2.271084E-18	0.000000E+00
4.594787E+03	2.284108E-18	0.000000E+00
4.604690E+03	2.297367E-18	0.000000E+00
4.614592E+03	2.310841E-18	0.000000E+00
4.624495E+03	2.324574E-18	0.000000E+00
4.634398E+03	2.338528E-18	0.000000E+00
4.644300E+03	2.352724E-18	0.000000E+00
4.654203E+03	2.367209E-18	0.000000E+00
4.664105E+03	2.381965E-18	0.000000E+00
4.674008E+03	2.397017E-18	0.000000E+00
4.683910E+03	2.412392E-18	0.000000E+00
4.693813E+03	2.428094E-18	0.000000E+00
4.703715E+03	2.444129E-18	0.000000E+00
4.713618E+03	2.460547E-18	0.000000E+00
4.723521E+03	2.477312E-18	0.000000E+00
4.733423E+03	2.494474E-18	0.000000E+00
4.743326E+03	2.512040E-18	0.000000E+00
4.753228E+03	2.529998E-18	0.000000E+00
4.763131E+03	2.548400E-18	0.000000E+00
4.773033E+03	2.567232E-18	0.000000E+00
4.782936E+03	2.586504E-18	0.000000E+00
4.792838E+03	2.606225E-18	0.000000E+00
4.802741E+03	2.626405E-18	0.000000E+00
4.812644E+03	2.647102E-18	0.000000E+00
4.822546E+03	2.668255E-18	0.000000E+00
4.832449E+03	2.689923E-18	0.000000E+00
4.842351E+03	2.712092E-18	0.000000E+00
4.852254E+03	2.734799E-18	0.000000E+00
4.862156E+03	2.758030E-18	0.000000E+00
4.872059E+03	2.781796E-18	0.000000E+00
4.881961E+03	2.806135E-18	0.000000E+00
4.891864E+03	2.831006E-18	0.000000E+00
4.901767E+03	2.856447E-18	0.000000E+00
4.911669E+03	2.882469E-18	0.000000E+00
4.921572E+03	2.909081E-18	0.000000E+00
4.931474E+03	2.936269E-18	0.000000E+00
4.941377E+03	2.964042E-18	0.000000E+00
4.951279E+03	2.992438E-18	0.000000E+00
4.961182E+03	3.021409E-18	0.000000E+00
4.971085E+03	3.051023E-18	0.000000E+00
4.980987E+03	3.081230E-18	0.000000E+00
4.990890E+03	3.112037E-18	0.000000E+00
5.000792E+03	3.143483E-18	0.000000E+00
5.010695E+03	3.175543E-18	0.000000E+00
5.020597E+03	3.208226E-18	0.000000E+00
5.030500E+03	3.241505E-18	0.000000E+00
5.040402E+03	3.275416E-18	0.000000E+00
5.050305E+03	3.309966E-18	0.000000E+00
5.060208E+03	3.345096E-18	0.000000E+00
5.070110E+03	3.380839E-18	0.000000E+00
5.080013E+03	3.417201E-18	0.000000E+00
5.089915E+03	3.454183E-18	0.000000E+00
5.099818E+03	3.491756E-18	0.000000E+00
5.109720E+03	3.529921E-18	0.000000E+00
5.119623E+03	3.568646E-18	0.000000E+00
5.129525E+03	3.607999E-18	0.000000E+00
5.139428E+03	3.647913E-18	0.000000E+00
5.149331E+03	3.688385E-18	0.000000E+00
5.159233E+03	3.729417E-18	0.000000E+00
5.169136E+03	3.771042E-18	0.000000E+00
5.179038E+03	3.813185E-18	0.000000E+00
5.188941E+03	3.855842E-18	0.000000E+00
5.198843E+03	3.899084E-18	0.000000E+00
5.208746E+03	3.942793E-18	0.000000E+00
5.218648E+03	3.987037E-18	0.000000E+00
5.228551E+03	4.031770E-18	0.000000E+00
5.238454E+03	4.076984E-18	0.000000E+00
5.248356E+03	4.122707E-18	0.000000E+00
5.258259E+03	4.168847E-18	0.000000E+00
5.268161E+03	4.215428E-18	0.000000E+00
5.278064E+03	4.262434E-18	0.000000E+00
5.287966E+03	4.309848E-18	0.000000E+00
5.297869E+03	4.357692E-18	0.000000E+00
5.307772E+03	4.405857E-18	0.000000E+00
5.317674E+03	4.454360E-18	0.000000E+00
5.327577E+03	4.503172E-18	0.000000E+00
5.337479E+03	4.552219E-18	0.000000E+00
5.347382E+03	4.601555E-18	0.000000E+00
5.357284E+03	4.651100E-18	0.000000E+00
5.367187E+03	4.700766E-18	0.000000E+00
5.377089E+03	4.750510E-18	0.000000E+00
5.386992E+03	4.800331E-18	0.000000E+00
5.396895E+03	4.850082E-18	0.000000E+00
5.406797E+03	4.899757E-18	0.000000E+00
5.416700E+03	4.949297E-18	0.000000E+00
5.426602E+03	4.998543E-18	0.000000E+00
5.436505E+03	5.047425E-18	0.000000E+00
5.446407E+03	5.095924E-18	0.000000E+00
5.456310E+03	5.143916E-18	0.000000E+00
5.466212E+03	5.191272E-18	0.000000E+00
5.476115E+03	5.237857E-18	0.000000E+00
5.486018E+03	5.283692E-18	0.000000E+00
5.495920E+03	5.328531E-18	0.000000E+00
5.505823E+03	5.372335E-18	0.000000E+00
5.515725E+03	5.414958E-18	0.000000E+00
5.525628E+03	5.456306E-18	0.000000E+00
5.535530E+03	5.496282E-18	0.000000E+00
5.545433E+03	5.534737E-18	0.000000E+00
5.555335E+03	5.571629E-18	0.000000E+00
5.565238E+03	5.606808E-18	0.000000E+00
5.575141E+03	5.640122E-18	0.000000E+00
5.585043E+03	5.671598E-18	0.000000E+00
5.594946E+03	5.701088E-18	0.000000E+00
5.604848E+03	5.728452E-18	0.000000E+00
5.614751E+03	5.753668E-18	0.000000E+00
5.624653E+03	5.776724E-18	0.000000E+00
5.634556E+03	5.797432E-18	0.000000E+00
5.644459E+03	5.815791E-18	0.000000E+00
5.654361E+03	5.831808E-18	0.000000E+00
5.664264E+03	5.845374E-18	0.000000E+00
5.674166E+03	5.856513E-18	0.000000E+00
5.684069E+03	5.865131E-18	0.000000E+00
5.693971E+03	5.871267E-18	0.000000E+00
5.703874E+03	5.874904E-18	0.000000E+00
5.713776E+03	5.876099E-18	0.000000E+00
5.723679E+03	5.874727E-18	0.000000E+00
5.733582E+03	5.870986E-18	0.000000E+00
5.743484E+03	5.864767E-18	0.000000E+00
5.753387E+03	5.856159E-18	0.000000E+00
5.763289E+03	5.845195E-18	0.000000E+00
5.773192E+03	5.831915E-18	0.000000E+00
5.783094E+03	5.816431E-18	0.000000E+00
5.792997E+03	5.798798E-18	0.000000E+00
5.802899E+03	5.779079E-18	0.000000E+00
5.812802E+03	5.757276E-18	0.000000E+00
5.822705E+03	5.733593E-18	0.000000E+00
5.832607E+03	5.708044E-18	0.000000E+00
5.842510E+03	5.680777E-18	0.000000E+00
5.852412E+03	5.651816E-18	0.000000E+00
5.862315E+03	5.621314E-18	0.000000E+00
5.872217E+03	5.589364E-18	0.000000E+00
5.882120E+03	5.556061E-18	0.000000E+00
5.892022E+03	5.521502E-18	0.000000E+00
5.901925E+03	5.485782E-18	0.000000E+00
5.911828E+03	5.449059E-18	0.000000E+00
5.921730E+03	5.411302E-18	0.000000E+00
5.931633E+03	5.372731E-18	0.000000E+00
5.941535E+03	5.333376E-18	0.000000E+00
5.951438E+03	5.293324E-18	0.000000E+00
5.961340E+03	5.252727E-18	0.000000E+00
5.971243E+03	5.211544E-18	0.000000E+00
5.981146E+03	5.169981E-18	0.000000E+00
5.991048E+03	5.127992E-18	0.000000E+00
6.000951E+03	5.085717E-18	0.000000E+00
6.010853E+03	5.043225E-18	0.000000E+00
6.020756E+03	5.000526E-18	0.000000E+00
6.030658E+03	4.957684E-18	0.000000E+00
6.040561E+03	4.914763E-18	0.000000E+00
6.050463E+03	4.871821E-18	0.000000E+00
6.060366E+03	4.828913E-18	0.000000E+00
6.070269E+03	4.786094E-18	0.000000E+00
6.080171E+03	4.743410E-18	0.000000E+00
6.090074E+03	4.700908E-18	0.000000E+00
6.099976E+03	4.658691E-18	0.000000E+00
6.109879E+03	4.616855E-18	0.000000E+00
6.119781E+03	4.575496E-18	0.000000E+00
6.129684E+03	4.534646E-18	0.000000E+00
6.139586E+03	4.494332E-18	0.000000E+00
6.149489E+03	4.454526E-18	0.000000E+00
6.159392E+03	4.415250E-18	0.000000E+00
6.169294E+03	4.376528E-18	0.000000E+00
6.179197E+03	4.338322E-18	0.000000E+00
6.189099E+03	4.300708E-18	0.000000E+00
6.199002E+03	4.263818E-18	0.000000E+00
6.208904E+03	4.227607E-18	0.000000E+00
6.218807E+03	4.192146E-18	0.000000E+00
6.228709E+03	4.157559E-18	0.000000E+00
6.238612E+03	4.123796E-18	0.000000E+00
6.248515E+03	4.091036E-18	0.000000E+00
6.258417E+03	4.059341E-18	0.000000E+00
6.268320E+03	4.028657E-18	0.000000E+00
6.278222E+03	3.999161E-18	0.000000E+00
6.288125E+03	3.970908E-18	0.000000E+00
6.298027E+03	3.943901E-18	0.000000E+00
6.307930E+03	3.918197E-18	0.000000E+00
6.317833E+03	3.893969E-18	0.000000E+00
6.327735E+03	3.871159E-18	0.000000E+00
6.337638E+03	3.849824E-18	0.000000E+00
6.347540E+03	3.830080E-18	0.000000E+00
6.357443E+03	3.811755E-18	0.000000E+00
6.367345E+03	3.794739E-18	0.000000E+00
6.377248E+03	3.778975E-18	0.000000E+00
6.387150E+03	3.764409E-18	0.000000E+00
6.397053E+03	3.750926E-18	0.000000E+00
6.406956E+03	3.738529E-18	0.000000E+00
6.416858E+03	3.727160E-18	0.000000E+00
6.426761E+03	3.716822E-18	0.000000E+00
6.436663E+03	3.707458E-18	0.000000E+00
6.446566E+03	3.699069E-18	0.000000E+00
6.456468E+03	3.691653E-18	0.000000E+00
6.466371E+03	3.685156E-18	0.000000E+00
6.476273E+03	3.679636E-18	0.000000E+00
6.486176E+03	3.675093E-18	0.000000E+00
6.496079E+03	3.671469E-18	0.000000E+00
6.505981E+03	3.668825E-18	0.000000E+00
6.515884E+03	3.667100E-18	0.000000E+00
6.525786E+03	3.666298E-18	0.000000E+00
6.535689E+03	3.666475E-18	0.000000E+00
6.545591E+03	3.667516E-18	0.000000E+00
6.555494E+03	3.669600E-18	0.000000E+00
6.565396E+03	3.672547E-18	0.000000E+00
6.575299E+03	3.676479E-18	0.000000E+00
6.585202E+03	3.681337E-18	0.000000E+00
6.595104E+03	3.687121E-18	0.000000E+00
6.605007E+03	3.693893E-18	0.000000E+00
6.614909E+03	3.701593E-18	0.000000E+00
6.624812E+03	3.710222E-18	0.000000E+00
6.634714E+03	3.719781E-18	0.000000E+00
6.644617E+03	3.730334E-18	0.000000E+00
6.654520E+03	3.741755E-18	0.000000E+00
6.664422E+03	3.754172E-18	0.000000E+00
6.674325E+03	3.767523E-18	0.000000E+00
6.684227E+03	3.781809E-18	0.000000E+00
6.694130E+03	3.797031E-18	0.000000E+00
6.704032E+03	3.813188E-18	0.000000E+00
6.713935E+03	3.830351E-18	0.000000E+00
6.723837E+03	3.848385E-18	0.000000E+00
6.733740E+03	3.867358E-18	0.000000E+00
6.743643E+03	3.887270E-18	0.000000E+00
6.753545E+03	3.908122E-18	0.000000E+00
6.763448E+03	3.929916E-18	0.000000E+00
6.773350E+03	3.952652E-18	0.000000E+00
6.783253E+03	3.976330E-18	0.000000E+00
6.793155E+03	4.000878E-18	0.000000E+00
6.803058E+03	4.026368E-18	0.000000E+00
6.812960E+03	4.052801E-18	0.000000E+00
6.822863E+03	4.080101E-18	0.000000E+00
6.832766E+03	4.108343E-18	0.000000E+00
6.842668E+03	4.137527E-18	0.000000E+00
6.852571E+03	4.167576E-18	0.000000E+00
6.862473E+03	4.198486E-18	0.000000E+00
6.872376E+03	4.230338E-18	0.000000E+00
6.882278E+03	4.263048E-18	0.000000E+00
6.892181E+03	4.296616E-18	0.000000E+00
6.902083E+03	4.331122E-18	0.000000E+00
6.911986E+03	4.366483E-18	0.000000E+00
6.921889E+03	4.402698E-18	0.000000E+00
6.931791E+03	4.439677E-18	0.000000E+00
6.941694E+03	4.477591E-18	0.000000E+00
6.951596E+03	4.516352E-18	0.000000E+00
6.961499E+03	4.555960E-18	0.000000E+00
6.971401E+03	4.596324E-18	0.000000E+00
6.981304E+03	4.637528E-18	0.000000E+00
6.991207E+03	4.679481E-18	0.000000E+00
7.001109E+03	4.722365E-18	0.000000E+00
7.011012E+03	4.765900E-18	0.000000E+00
7.020914E+03	4.810267E-18	0.000000E+00
7.030817E+03	4.855372E-18	0.000000E+00
7.040719E+03	4.901309E-18	0.000000E+00
7.050622E+03	4.947875E-18	0.000000E+00
7.060524E+03	4.995270E-18	0.000000E+00
7.070427E+03	5.043285E-18	0.000000E+00
7.080330E+03	5.092017E-18	0.000000E+00
7.090232E+03	5.141464E-18	0.000000E+00
7.100135E+03	5.191620E-18	0.000000E+00
7.110037E+03	5.242375E-18	0.000000E+00
7.119940E+03	5.293719E-18	0.000000E+00
7.129842E+03	5.345757E-18	0.000000E+00
7.139745E+03	5.398370E-18	0.000000E+00
7.149647E+03	5.451665E-18	0.000000E+00
7.159550E+03	5.505403E-18	0.000000E+00
7.169453E+03	5.559807E-18	0.000000E+00
7.179355E+03	5.614752E-18	0.000000E+00
7.189258E+03	5.670228E-18	0.000000E+00
7.199160E+03	5.726221E-18	0.000000E+00
7.209063E+03	5.782723E-18	0.000000E+00
7.218965E+03	5.839718E-18	0.000000E+00
7.228868E+03	5.897326E-18	0.000000E+00
7.238770E+03	5.955272E-18	0.000000E+00
7.248673E+03	6.013939E-18	0.000000E+00
7.258576E+03	6.073188E-18	0.000000E+00
7.268478E+03	6.132867E-18	0.000000E+00
7.278381E+03	6.193383E-18	0.000000E+00
7.288283E+03	6.254448E-18	0.000000E+00
7.298186E+03	6.316484E-18	0.000000E+00
7.308088E+03	6.379348E-18	0.000000E+00
7.317991E+03	6.443189E-18	0.000000E+00
7.327894E+03	6.508161E-18	0.000000E+00
7.337796E+03	6.574274E-18	0.000000E+00
7.347699E+03	6.641850E-18	0.000000E+00
7.357601E+03	6.711070E-18	0.000000E+00
7.367504E+03	6.781806E-18	0.000000E+00
7.377406E+03	6.854081E-18	0.000000E+00
7.387309E+03	6.927920E-18	0.000000E+00
7.397211E+03	7.003179E-18	0.000000E+00
7.407114E+03	7.079707E-18	0.000000E+00
7.417017E+03	7.157337E-18	0.000000E+00
7.426919E+03	7.236074E-18	0.000000E+00
7.436822E+03	7.315740E-18	0.000000E+00
7.446724E+03	7.396145E-18	0.000000E+00
7.456627E+03	7.477456E-18	0.000000E+00
7.466529E+03	7.559290E-18	0.000000E+00
7.476432E+03	7.641621E-18	0.000000E+00
7.486334E+03	7.724419E-18	0.000000E+00
7.496237E+03	7.807652E-18	0.000000E+00
7.506140E+03	7.891285E-18	0.000000E+00
7.516042E+03	7.975090E-18	0.000000E+00
7.525945E+03	8.059014E-18	0.000000E+00
7.535847E+03	8.143225E-18	0.000000E+00
7.545750E+03	8.227453E-18	0.000000E+00
7.555652E+03	8.311873E-18	0.000000E+00
7.565555E+03	8.396008E-18	0.000000E+00
7.575457E+03	8.480216E-18	0.000000E+00
7.585360E+03	8.564234E-18	0.000000E+00
7.595263E+03	8.647983E-18	0.000000E+00
7.605165E+03	8.731407E-18	0.000000E+00
7.615068E+03	8.814663E-18	0.000000E+00
7.624970E+03	8.897450E-18	0.000000E+00
7.634873E+03	8.979687E-18	0.000000E+00
7.644775E+03	9.061540E-18	0.000000E+00
7.654678E+03	9.142937E-18	0.000000E+00
7.664581E+03	9.223551E-18	0.000000E+00
7.674483E+03	9.303539E-18	0.000000E+00
7.684386E+03	9.382830E-18	0.000000E+00
