#wls	flux	fluxerr
1.584409E+03	2.216898E-16	2.214170E-17
1.624020E+03	2.311218E-16	2.307834E-17
1.663630E+03	2.399054E-16	2.394980E-17
1.703240E+03	2.479157E-16	2.474368E-17
1.742850E+03	2.549662E-16	2.544139E-17
1.782461E+03	2.608342E-16	2.602000E-17
1.822071E+03	2.651816E-16	2.644664E-17
1.861681E+03	2.676885E-16	2.668954E-17
1.901291E+03	2.679712E-16	2.671061E-17
1.940902E+03	2.656890E-16	2.647513E-17
1.980512E+03	2.607907E-16	2.597919E-17
2.020122E+03	2.536617E-16	2.526140E-17
2.059732E+03	2.453630E-16	2.442757E-17
2.099342E+03	2.376036E-16	2.364702E-17
2.138953E+03	2.322675E-16	2.310808E-17
2.178563E+03	2.304488E-16	2.291932E-17
2.218173E+03	2.318782E-16	2.305361E-17
2.257783E+03	2.351916E-16	2.337408E-17
2.297394E+03	2.387807E-16	2.372168E-17
2.337004E+03	2.412720E-16	2.395997E-17
2.376614E+03	2.418602E-16	2.400916E-17
2.416224E+03	2.401502E-16	2.382915E-17
2.455835E+03	2.361577E-16	2.342289E-17
2.495445E+03	2.300322E-16	2.280551E-17
2.535055E+03	2.220024E-16	2.199992E-17
2.574665E+03	2.123136E-16	2.102964E-17
2.614276E+03	2.012893E-16	1.992807E-17
2.653886E+03	1.892023E-16	1.872238E-17
2.693496E+03	1.763300E-16	1.744017E-17
2.733106E+03	1.628920E-16	1.610238E-17
2.772716E+03	1.491710E-16	1.473806E-17
2.812327E+03	1.353983E-16	1.337009E-17
2.851937E+03	1.217949E-16	1.202030E-17
2.891547E+03	1.085771E-16	1.070942E-17
2.931157E+03	9.598971E-17	9.462228E-18
2.970768E+03	8.421753E-17	8.296826E-18
2.980670E+03	8.141759E-17	8.019788E-18
2.990573E+03	7.867814E-17	7.748725E-18
3.000475E+03	7.599829E-17	7.483614E-18
3.010378E+03	7.338388E-17	7.225030E-18
3.020280E+03	7.083331E-17	6.972812E-18
3.030183E+03	6.834581E-17	6.726852E-18
3.040086E+03	6.592473E-17	6.487508E-18
3.049988E+03	6.357380E-17	6.255143E-18
3.059891E+03	6.129334E-17	6.029787E-18
3.069793E+03	5.908340E-17	5.811414E-18
3.079696E+03	5.694175E-17	5.599830E-18
3.089598E+03	5.486798E-17	5.394990E-18
3.099501E+03	5.286162E-17	5.196845E-18
3.109403E+03	5.092032E-17	5.005139E-18
3.119306E+03	4.904240E-17	4.819728E-18
3.129209E+03	4.722929E-17	4.640747E-18
3.139111E+03	4.547762E-17	4.467863E-18
3.149014E+03	4.378712E-17	4.301028E-18
3.158916E+03	4.215694E-17	4.140175E-18
3.168819E+03	4.058554E-17	3.985149E-18
3.178721E+03	3.907152E-17	3.835811E-18
3.188624E+03	3.761425E-17	3.692080E-18
3.198526E+03	3.621203E-17	3.553802E-18
3.208429E+03	3.486341E-17	3.420832E-18
3.218332E+03	3.356743E-17	3.293076E-18
3.228234E+03	3.232271E-17	3.170378E-18
3.238137E+03	3.112759E-17	3.052589E-18
3.248039E+03	2.998103E-17	2.939605E-18
3.257942E+03	2.888152E-17	2.831274E-18
3.267844E+03	2.782757E-17	2.727436E-18
3.277747E+03	2.681761E-17	2.627948E-18
3.287650E+03	2.585013E-17	2.532661E-18
3.297552E+03	2.492447E-17	2.441504E-18
3.307455E+03	2.403803E-17	2.354213E-18
3.317357E+03	2.319012E-17	2.270729E-18
3.327260E+03	2.237962E-17	2.190938E-18
3.337162E+03	2.160450E-17	2.114642E-18
3.347065E+03	2.086375E-17	2.041729E-18
3.356967E+03	2.015578E-17	1.972052E-18
3.366870E+03	1.947934E-17	1.905487E-18
3.376773E+03	1.883348E-17	1.841938E-18
3.386675E+03	1.821648E-17	1.781230E-18
3.396578E+03	1.762749E-17	1.723283E-18
3.406480E+03	1.706497E-17	1.667947E-18
3.416383E+03	1.652810E-17	1.615141E-18
3.426285E+03	1.601545E-17	1.564714E-18
3.436188E+03	1.552593E-17	1.516569E-18
3.446090E+03	1.505867E-17	1.470616E-18
3.455993E+03	1.461246E-17	1.426739E-18
3.465896E+03	1.418616E-17	1.384816E-18
3.475798E+03	1.377908E-17	1.344787E-18
3.485701E+03	1.339007E-17	1.306538E-18
3.495603E+03	1.301807E-17	1.269965E-18
3.505506E+03	1.266181E-17	1.234936E-18
3.515408E+03	1.232032E-17	1.201364E-18
3.525311E+03	1.199260E-17	1.169147E-18
3.535213E+03	1.167769E-17	1.138194E-18
3.545116E+03	1.137446E-17	1.108386E-18
3.555019E+03	1.108221E-17	1.079662E-18
3.564921E+03	1.080034E-17	1.051962E-18
3.574824E+03	1.052800E-17	1.025202E-18
3.584726E+03	1.026455E-17	9.993139E-19
3.594629E+03	1.001004E-17	9.743084E-19
3.604531E+03	9.764168E-18	9.501550E-19
3.614434E+03	9.526800E-18	9.268399E-19
3.624337E+03	9.297646E-18	9.043294E-19
3.634239E+03	9.076747E-18	8.826323E-19
3.644142E+03	8.863908E-18	8.617290E-19
3.654044E+03	8.658842E-18	8.415911E-19
3.663947E+03	8.461433E-18	8.222020E-19
3.673849E+03	8.271434E-18	8.035422E-19
3.683752E+03	8.088748E-18	7.856017E-19
3.693654E+03	7.913136E-18	7.683567E-19
3.703557E+03	7.744308E-18	7.517743E-19
3.713460E+03	7.582134E-18	7.358459E-19
3.723362E+03	7.426370E-18	7.205473E-19
3.733265E+03	7.276899E-18	7.058667E-19
3.743167E+03	7.133368E-18	6.917654E-19
3.753070E+03	6.995707E-18	6.782403E-19
3.762972E+03	6.863624E-18	6.652627E-19
3.772875E+03	6.737054E-18	6.528259E-19
3.782777E+03	6.615620E-18	6.408891E-19
3.792680E+03	6.499303E-18	6.294540E-19
3.802583E+03	6.387836E-18	6.184945E-19
3.812485E+03	6.281160E-18	6.080045E-19
3.822388E+03	6.178880E-18	5.979416E-19
3.832290E+03	6.081036E-18	5.883132E-19
3.842193E+03	5.987431E-18	5.790999E-19
3.852095E+03	5.897881E-18	5.702836E-19
3.861998E+03	5.812163E-18	5.618389E-19
3.871900E+03	5.730235E-18	5.537650E-19
3.881803E+03	5.651969E-18	5.460493E-19
3.891706E+03	5.577201E-18	5.386756E-19
3.901608E+03	5.505690E-18	5.316170E-19
3.911511E+03	5.437452E-18	5.248782E-19
3.921413E+03	5.372378E-18	5.184485E-19
3.931316E+03	5.310244E-18	5.123060E-19
3.941218E+03	5.250956E-18	5.064381E-19
3.951121E+03	5.194459E-18	5.008425E-19
3.961024E+03	5.140663E-18	4.955105E-19
3.970926E+03	5.089407E-18	4.904263E-19
3.980829E+03	5.040535E-18	4.855713E-19
3.990731E+03	4.994083E-18	4.809522E-19
4.000634E+03	4.949904E-18	4.765546E-19
4.010536E+03	4.907925E-18	4.723712E-19
4.020439E+03	4.867977E-18	4.683824E-19
4.030341E+03	4.830065E-18	4.645919E-19
4.040244E+03	4.794097E-18	4.609904E-19
4.050147E+03	4.760014E-18	4.575723E-19
4.060049E+03	4.727661E-18	4.543192E-19
4.069952E+03	4.697022E-18	4.512327E-19
4.079854E+03	4.668048E-18	4.483081E-19
4.089757E+03	4.640699E-18	4.455411E-19
4.099659E+03	4.614792E-18	4.429109E-19
4.109562E+03	4.590395E-18	4.404272E-19
4.119464E+03	4.567400E-18	4.380795E-19
4.129367E+03	4.545774E-18	4.358644E-19
4.139270E+03	4.525420E-18	4.337695E-19
4.149172E+03	4.506342E-18	4.317980E-19
4.159075E+03	4.488477E-18	4.299439E-19
4.168977E+03	4.471803E-18	4.282051E-19
4.178880E+03	4.456195E-18	4.265661E-19
4.188782E+03	4.441703E-18	4.250348E-19
4.198685E+03	4.428303E-18	4.236090E-19
4.208587E+03	4.415949E-18	4.222840E-19
4.218490E+03	4.404489E-18	4.210421E-19
4.228393E+03	4.394047E-18	4.198982E-19
4.238295E+03	4.384540E-18	4.188442E-19
4.248198E+03	4.375962E-18	4.178797E-19
4.258100E+03	4.368169E-18	4.169873E-19
4.268003E+03	4.361254E-18	4.161793E-19
4.277905E+03	4.355180E-18	4.154519E-19
4.287808E+03	4.349907E-18	4.148013E-19
4.297711E+03	4.345369E-18	4.142178E-19
4.307613E+03	4.341597E-18	4.137076E-19
4.317516E+03	4.338656E-18	4.132768E-19
4.327418E+03	4.336486E-18	4.129196E-19
4.337321E+03	4.335020E-18	4.126263E-19
4.347223E+03	4.334334E-18	4.124072E-19
4.357126E+03	4.334362E-18	4.122560E-19
4.367028E+03	4.335113E-18	4.121735E-19
4.376931E+03	4.336501E-18	4.121483E-19
4.386834E+03	4.338532E-18	4.121838E-19
4.396736E+03	4.341253E-18	4.122848E-19
4.406639E+03	4.344608E-18	4.124458E-19
4.416541E+03	4.348515E-18	4.126554E-19
4.426444E+03	4.352985E-18	4.129181E-19
4.436346E+03	4.358072E-18	4.132389E-19
4.446249E+03	4.363759E-18	4.136163E-19
4.456151E+03	4.369899E-18	4.140326E-19
4.466054E+03	4.376611E-18	4.145024E-19
4.475957E+03	4.383849E-18	4.150216E-19
4.485859E+03	4.391603E-18	4.155892E-19
4.495762E+03	4.399835E-18	4.161976E-19
4.505664E+03	4.408599E-18	4.168557E-19
4.515567E+03	4.417855E-18	4.175597E-19
4.525469E+03	4.427595E-18	4.183085E-19
4.535372E+03	4.437787E-18	4.190956E-19
4.545274E+03	4.448490E-18	4.199301E-19
4.555177E+03	4.459630E-18	4.208049E-19
4.565080E+03	4.471277E-18	4.217267E-19
4.574982E+03	4.483366E-18	4.226854E-19
4.584885E+03	4.495887E-18	4.236837E-19
4.594787E+03	4.508879E-18	4.247254E-19
4.604690E+03	4.522339E-18	4.258102E-19
4.614592E+03	4.536171E-18	4.269248E-19
4.624495E+03	4.550516E-18	4.280866E-19
4.634398E+03	4.565342E-18	4.292923E-19
4.644300E+03	4.580692E-18	4.305461E-19
4.654203E+03	4.596503E-18	4.318379E-19
4.664105E+03	4.612892E-18	4.331825E-19
4.674008E+03	4.629821E-18	4.345764E-19
4.683910E+03	4.647383E-18	4.360283E-19
4.693813E+03	4.665478E-18	4.375245E-19
4.703715E+03	4.684309E-18	4.390880E-19
4.713618E+03	4.703800E-18	4.407117E-19
4.723521E+03	4.724008E-18	4.424009E-19
4.733423E+03	4.744964E-18	4.441540E-19
4.743326E+03	4.766704E-18	4.459786E-19
4.753228E+03	4.789335E-18	4.478845E-19
4.763131E+03	4.812782E-18	4.498647E-19
4.773033E+03	4.837086E-18	4.519185E-19
4.782936E+03	4.862332E-18	4.540580E-19
4.792838E+03	4.888497E-18	4.562809E-19
4.802741E+03	4.915644E-18	4.585930E-19
4.812644E+03	4.943771E-18	4.609894E-19
4.822546E+03	4.972881E-18	4.634748E-19
4.832449E+03	5.003039E-18	4.660551E-19
4.842351E+03	5.034317E-18	4.687369E-19
4.852254E+03	5.066577E-18	4.715024E-19
4.862156E+03	5.099960E-18	4.743692E-19
4.872059E+03	5.134490E-18	4.773395E-19
4.881961E+03	5.170196E-18	4.804158E-19
4.891864E+03	5.207032E-18	4.835886E-19
4.901767E+03	5.245047E-18	4.868673E-19
4.911669E+03	5.284318E-18	4.902588E-19
4.921572E+03	5.324825E-18	4.937611E-19
4.931474E+03	5.366523E-18	4.973647E-19
4.941377E+03	5.409513E-18	5.010837E-19
4.951279E+03	5.453822E-18	5.049206E-19
4.961182E+03	5.499481E-18	5.088781E-19
4.971085E+03	5.546447E-18	5.129463E-19
4.980987E+03	5.594768E-18	5.171351E-19
4.990890E+03	5.644478E-18	5.214474E-19
5.000792E+03	5.695604E-18	5.258854E-19
5.010695E+03	5.748103E-18	5.304391E-19
5.020597E+03	5.802081E-18	5.351237E-19
5.030500E+03	5.857570E-18	5.399422E-19
5.040402E+03	5.914488E-18	5.448865E-19
5.050305E+03	5.972904E-18	5.499569E-19
5.060208E+03	6.032927E-18	5.551689E-19
5.070110E+03	6.094474E-18	5.605149E-19
5.080013E+03	6.157581E-18	5.659976E-19
5.089915E+03	6.222256E-18	5.716114E-19
5.099818E+03	6.288614E-18	5.773729E-19
5.109720E+03	6.356568E-18	5.832736E-19
5.119623E+03	6.426213E-18	5.893220E-19
5.129525E+03	6.497564E-18	5.955127E-19
5.139428E+03	6.570613E-18	6.018510E-19
5.149331E+03	6.645393E-18	6.083397E-19
5.159233E+03	6.721940E-18	6.149820E-19
5.169136E+03	6.800269E-18	6.217715E-19
5.179038E+03	6.880435E-18	6.287202E-19
5.188941E+03	6.962471E-18	6.358307E-19
5.198843E+03	7.046347E-18	6.431000E-19
5.208746E+03	7.132076E-18	6.505214E-19
5.218648E+03	7.219781E-18	6.581130E-19
5.228551E+03	7.309424E-18	6.658712E-19
5.238454E+03	7.401111E-18	6.738052E-19
5.248356E+03	7.494712E-18	6.818949E-19
5.258259E+03	7.590346E-18	6.901585E-19
5.268161E+03	7.688117E-18	6.986052E-19
5.278064E+03	7.787981E-18	7.072305E-19
5.287966E+03	7.889869E-18	7.160194E-19
5.297869E+03	7.993902E-18	7.249906E-19
5.307772E+03	8.100099E-18	7.341456E-19
5.317674E+03	8.208480E-18	7.434859E-19
5.327577E+03	8.318971E-18	7.529952E-19
5.337479E+03	8.431678E-18	7.626915E-19
5.347382E+03	8.546531E-18	7.725682E-19
5.357284E+03	8.663535E-18	7.826253E-19
5.367187E+03	8.782681E-18	7.928517E-19
5.377089E+03	8.903977E-18	8.032574E-19
5.386992E+03	9.027419E-18	8.138417E-19
5.396895E+03	9.152905E-18	8.245949E-19
5.406797E+03	9.280404E-18	8.355034E-19
5.416700E+03	9.409809E-18	8.465672E-19
5.426602E+03	9.541278E-18	8.578005E-19
5.436505E+03	9.674487E-18	8.691735E-19
5.446407E+03	9.809381E-18	8.806698E-19
5.456310E+03	9.946011E-18	8.923045E-19
5.466212E+03	1.008422E-17	9.040631E-19
5.476115E+03	1.022393E-17	9.159392E-19
5.486018E+03	1.036487E-17	9.278946E-19
5.495920E+03	1.050704E-17	9.399426E-19
5.505823E+03	1.065037E-17	9.520746E-19
5.515725E+03	1.079474E-17	9.642816E-19
5.525628E+03	1.093984E-17	9.765213E-19
5.535530E+03	1.108564E-17	9.888053E-19
5.545433E+03	1.123204E-17	1.001123E-18
5.555335E+03	1.137890E-17	1.013462E-18
5.565238E+03	1.152586E-17	1.025776E-18
5.575141E+03	1.167288E-17	1.038076E-18
5.585043E+03	1.181994E-17	1.050360E-18
5.594946E+03	1.196676E-17	1.062602E-18
5.604848E+03	1.211295E-17	1.074754E-18
5.614751E+03	1.225871E-17	1.086848E-18
5.624653E+03	1.240388E-17	1.098869E-18
5.634556E+03	1.254804E-17	1.110781E-18
5.644459E+03	1.269102E-17	1.122554E-18
5.654361E+03	1.283292E-17	1.134210E-18
5.664264E+03	1.297343E-17	1.145724E-18
5.674166E+03	1.311238E-17	1.157080E-18
5.684069E+03	1.324962E-17	1.168250E-18
5.693971E+03	1.338495E-17	1.179232E-18
5.703874E+03	1.351850E-17	1.190038E-18
5.713776E+03	1.364982E-17	1.200629E-18
5.723679E+03	1.377878E-17	1.210975E-18
5.733582E+03	1.390532E-17	1.221091E-18
5.743484E+03	1.402944E-17	1.230976E-18
5.753387E+03	1.415084E-17	1.240605E-18
5.763289E+03	1.426942E-17	1.249950E-18
5.773192E+03	1.438513E-17	1.259027E-18
5.783094E+03	1.449768E-17	1.267811E-18
5.792997E+03	1.460726E-17	1.276318E-18
5.802899E+03	1.471346E-17	1.284495E-18
5.812802E+03	1.481643E-17	1.292374E-18
5.822705E+03	1.491587E-17	1.299930E-18
5.832607E+03	1.501185E-17	1.307169E-18
5.842510E+03	1.510414E-17	1.314054E-18
5.852412E+03	1.519273E-17	1.320603E-18
5.862315E+03	1.527771E-17	1.326824E-18
5.872217E+03	1.535860E-17	1.332677E-18
5.882120E+03	1.543557E-17	1.338158E-18
5.892022E+03	1.550863E-17	1.343289E-18
5.901925E+03	1.557769E-17	1.348062E-18
5.911828E+03	1.564247E-17	1.352454E-18
5.921730E+03	1.570299E-17	1.356449E-18
5.931633E+03	1.575941E-17	1.360082E-18
5.941535E+03	1.581131E-17	1.363315E-18
5.941702E+03	1.392250E-17	1.200435E-18
5.941900E+03	1.398436E-17	1.205747E-18
5.942098E+03	1.401005E-17	1.207940E-18
5.942296E+03	1.403353E-17	1.209942E-18
5.942494E+03	1.408197E-17	1.214096E-18
5.942692E+03	1.415621E-17	1.220474E-18
5.942891E+03	1.422161E-17	1.226090E-18
5.943089E+03	1.427733E-17	1.230871E-18
5.943287E+03	1.432286E-17	1.234773E-18
5.943484E+03	1.433546E-17	1.235837E-18
5.943682E+03	1.436095E-17	1.238012E-18
5.943880E+03	1.441479E-17	1.242630E-18
5.944079E+03	1.441669E-17	1.242771E-18
5.944277E+03	1.444693E-17	1.245355E-18
5.944474E+03	1.449787E-17	1.249723E-18
5.944672E+03	1.451385E-17	1.251078E-18
5.944870E+03	1.456971E-17	1.255869E-18
5.945069E+03	1.462573E-17	1.260675E-18
5.945267E+03	1.467343E-17	1.264763E-18
5.945465E+03	1.469652E-17	1.266730E-18
5.945663E+03	1.472810E-17	1.269428E-18
5.945861E+03	1.476425E-17	1.272521E-18
5.946059E+03	1.480905E-17	1.276359E-18
5.946257E+03	1.484622E-17	1.279538E-18
5.946455E+03	1.487116E-17	1.281664E-18
5.946653E+03	1.488609E-17	1.282928E-18
5.946851E+03	1.490765E-17	1.284762E-18
5.947049E+03	1.492224E-17	1.285996E-18
5.947247E+03	1.496059E-17	1.289277E-18
5.947445E+03	1.501553E-17	1.293988E-18
5.947643E+03	1.508575E-17	1.300015E-18
5.947842E+03	1.513339E-17	1.304096E-18
5.948040E+03	1.515102E-17	1.305592E-18
5.948436E+03	1.516746E-17	1.306960E-18
5.948634E+03	1.520137E-17	1.309858E-18
5.948832E+03	1.524969E-17	1.313997E-18
5.949031E+03	1.530358E-17	1.318616E-18
5.949229E+03	1.531527E-17	1.319599E-18
5.949427E+03	1.535748E-17	1.323211E-18
5.949625E+03	1.539865E-17	1.326734E-18
5.949823E+03	1.546304E-17	1.332258E-18
5.950219E+03	1.551911E-17	1.337039E-18
5.950417E+03	1.556672E-17	1.341116E-18
5.950615E+03	1.558567E-17	1.342723E-18
5.950813E+03	1.559971E-17	1.343909E-18
5.951011E+03	1.561290E-17	1.345020E-18
5.951209E+03	1.564389E-17	1.347665E-18
5.951407E+03	1.569232E-17	1.351812E-18
5.951605E+03	1.574652E-17	1.356456E-18
5.951803E+03	1.578731E-17	1.359945E-18
5.952001E+03	1.580101E-17	1.361099E-18
5.952199E+03	1.581097E-17	1.361932E-18
5.952397E+03	1.586311E-17	1.366398E-18
5.952595E+03	1.589830E-17	1.369404E-18
5.952795E+03	1.591809E-17	1.371083E-18
5.952993E+03	1.595040E-17	1.373840E-18
5.953191E+03	1.601302E-17	1.379208E-18
5.953389E+03	1.608276E-17	1.385190E-18
5.953587E+03	1.611303E-17	1.387771E-18
5.953785E+03	1.615786E-17	1.391606E-18
5.953983E+03	1.618659E-17	1.394055E-18
5.954181E+03	1.620957E-17	1.396008E-18
5.954379E+03	1.627166E-17	1.401329E-18
5.954577E+03	1.634374E-17	1.407511E-18
5.954775E+03	1.638871E-17	1.411358E-18
5.954973E+03	1.642742E-17	1.414666E-18
5.955171E+03	1.645715E-17	1.417199E-18
5.955369E+03	1.650280E-17	1.421104E-18
5.955567E+03	1.650883E-17	1.421597E-18
5.955764E+03	1.654753E-17	1.424904E-18
5.955962E+03	1.658994E-17	1.428529E-18
5.956161E+03	1.663506E-17	1.432388E-18
5.956359E+03	1.671132E-17	1.438927E-18
5.956556E+03	1.676286E-17	1.443338E-18
5.956755E+03	1.679833E-17	1.446365E-18
5.956953E+03	1.683836E-17	1.449785E-18
5.957151E+03	1.683878E-17	1.449795E-18
5.957349E+03	1.688675E-17	1.453898E-18
5.957547E+03	1.690291E-17	1.455262E-18
5.957746E+03	1.693447E-17	1.457952E-18
5.957944E+03	1.696246E-17	1.460335E-18
5.958142E+03	1.696846E-17	1.460824E-18
5.958340E+03	1.699139E-17	1.462772E-18
5.958538E+03	1.700755E-17	1.464135E-18
5.958736E+03	1.705414E-17	1.468119E-18
5.958934E+03	1.707705E-17	1.470064E-18
5.959132E+03	1.709996E-17	1.472008E-18
5.959330E+03	1.713301E-17	1.474827E-18
5.959528E+03	1.713563E-17	1.475025E-18
5.959726E+03	1.719236E-17	1.479880E-18
5.959924E+03	1.727275E-17	1.486773E-18
5.960122E+03	1.731256E-17	1.490171E-18
5.960320E+03	1.735575E-17	1.493861E-18
5.960518E+03	1.739554E-17	1.497259E-18
5.960717E+03	1.741167E-17	1.498619E-18
5.960915E+03	1.744470E-17	1.501434E-18
5.961113E+03	1.749125E-17	1.505412E-18
5.961311E+03	1.754624E-17	1.510117E-18
5.961509E+03	1.757081E-17	1.512203E-18
5.961707E+03	1.759707E-17	1.514435E-18
5.961905E+03	1.762163E-17	1.516521E-18
5.962103E+03	1.762759E-17	1.517006E-18
5.962301E+03	1.765891E-17	1.519673E-18
5.962499E+03	1.770375E-17	1.523504E-18
5.962698E+03	1.770802E-17	1.523842E-18
5.962896E+03	1.775455E-17	1.527818E-18
5.963094E+03	1.779767E-17	1.531500E-18
5.963292E+03	1.780532E-17	1.532130E-18
5.963490E+03	1.783831E-17	1.534940E-18
5.963688E+03	1.788989E-17	1.539350E-18
5.963886E+03	1.792288E-17	1.542159E-18
5.964084E+03	1.793221E-17	1.542934E-18
5.964282E+03	1.796687E-17	1.545887E-18
5.964481E+03	1.799309E-17	1.548115E-18
5.964679E+03	1.798891E-17	1.547726E-18
5.964877E+03	1.800161E-17	1.548790E-18
5.965075E+03	1.800924E-17	1.549418E-18
5.965273E+03	1.802701E-17	1.550918E-18
5.965471E+03	1.806504E-17	1.554160E-18
5.965669E+03	1.806761E-17	1.554352E-18
5.965867E+03	1.806847E-17	1.554398E-18
5.966065E+03	1.809637E-17	1.556769E-18
5.966263E+03	1.811414E-17	1.558268E-18
5.966461E+03	1.811163E-17	1.558023E-18
5.966659E+03	1.813445E-17	1.559957E-18
5.966857E+03	1.815557E-17	1.561745E-18
5.967055E+03	1.816658E-17	1.562663E-18
5.967253E+03	1.820797E-17	1.566194E-18
5.967452E+03	1.824427E-17	1.569287E-18
5.967650E+03	1.824683E-17	1.569478E-18
5.967848E+03	1.829159E-17	1.573299E-18
5.968045E+03	1.835828E-17	1.579005E-18
5.968243E+03	1.841822E-17	1.584131E-18
5.968443E+03	1.844945E-17	1.586788E-18
5.968641E+03	1.845369E-17	1.587123E-18
5.968839E+03	1.846130E-17	1.587747E-18
5.969036E+03	1.849422E-17	1.590549E-18
5.969234E+03	1.853556E-17	1.594075E-18
5.969432E+03	1.856172E-17	1.596295E-18
5.969630E+03	1.858114E-17	1.597935E-18
5.969828E+03	1.860561E-17	1.600010E-18
5.970026E+03	1.862165E-17	1.601359E-18
5.970224E+03	1.863430E-17	1.602417E-18
5.970620E+03	1.866804E-17	1.605259E-18
5.970818E+03	1.872287E-17	1.609943E-18
5.971016E+03	1.875914E-17	1.613032E-18
5.971214E+03	1.877516E-17	1.614379E-18
5.971412E+03	1.879960E-17	1.616450E-18
5.971610E+03	1.883924E-17	1.619829E-18
5.971808E+03	1.889404E-17	1.624510E-18
5.972006E+03	1.892354E-17	1.627016E-18
5.972205E+03	1.893618E-17	1.628073E-18
5.972404E+03	1.898928E-17	1.632607E-18
5.972602E+03	1.902720E-17	1.635837E-18
5.972800E+03	1.904320E-17	1.637182E-18
5.972998E+03	1.906932E-17	1.639397E-18
5.973196E+03	1.908363E-17	1.640596E-18
5.973394E+03	1.908446E-17	1.640637E-18
5.973592E+03	1.908023E-17	1.640243E-18
5.973790E+03	1.913668E-17	1.645065E-18
5.973988E+03	1.917796E-17	1.648583E-18
5.974186E+03	1.922598E-17	1.652679E-18
5.974384E+03	1.923521E-17	1.653442E-18
5.974582E+03	1.925626E-17	1.655220E-18
5.974780E+03	1.926382E-17	1.655839E-18
5.974978E+03	1.926126E-17	1.655588E-18
5.975176E+03	1.926713E-17	1.656061E-18
5.975374E+03	1.929491E-17	1.658418E-18
5.975572E+03	1.929066E-17	1.658022E-18
5.975770E+03	1.932687E-17	1.661103E-18
5.975968E+03	1.932599E-17	1.660997E-18
5.976167E+03	1.932343E-17	1.660746E-18
5.976365E+03	1.933941E-17	1.662087E-18
5.976563E+03	1.936043E-17	1.663863E-18
5.976761E+03	1.935113E-17	1.663033E-18
5.976959E+03	1.934521E-17	1.662492E-18
