#wls	flux	fluxerr
1.584409E+03	7.248009E-17	9.079195E-17
1.624020E+03	7.510540E-17	9.421897E-17
1.663630E+03	7.747864E-17	9.733232E-17
1.703240E+03	7.955269E-17	1.000702E-16
1.742850E+03	8.128610E-17	1.023776E-16
1.782461E+03	8.260066E-17	1.041532E-16
1.822071E+03	8.340545E-17	1.052791E-16
1.861681E+03	8.359885E-17	1.056240E-16
1.901291E+03	8.307159E-17	1.050466E-16
1.940902E+03	8.174597E-17	1.034455E-16
1.980512E+03	7.961479E-17	1.008092E-16
2.020122E+03	7.681184E-17	9.730551E-17
2.059732E+03	7.367138E-17	9.335737E-17
2.099342E+03	7.072361E-17	8.963719E-17
2.138953E+03	6.850686E-17	8.682825E-17
2.178563E+03	6.731211E-17	8.529974E-17
2.218173E+03	6.701111E-17	8.488841E-17
2.257783E+03	6.716613E-17	8.503805E-17
2.297394E+03	6.730438E-17	8.514841E-17
2.337004E+03	6.707039E-17	8.476909E-17
2.376614E+03	6.626388E-17	8.364770E-17
2.416224E+03	6.481727E-17	8.170132E-17
2.455835E+03	6.275104E-17	7.895948E-17
2.495445E+03	6.013775E-17	7.551835E-17
2.535055E+03	5.706571E-17	7.149437E-17
2.574665E+03	5.363534E-17	6.701938E-17
2.614276E+03	4.994066E-17	6.221706E-17
2.653886E+03	4.606826E-17	5.720150E-17
2.693496E+03	4.210388E-17	5.208508E-17
2.733106E+03	3.812211E-17	4.696553E-17
2.772716E+03	3.419072E-17	4.193117E-17
2.812327E+03	3.036923E-17	3.705900E-17
2.851937E+03	2.671055E-17	3.241657E-17
2.891547E+03	2.326307E-17	2.806450E-17
2.931157E+03	2.006876E-17	2.405391E-17
2.965052E+03	2.660881E-16	3.170152E-16
2.969608E+03	2.659174E-16	3.165457E-16
2.969805E+03	2.658409E-16	3.164430E-16
2.970201E+03	2.657351E-16	3.162939E-16
2.973173E+03	2.655601E-16	3.159108E-16
2.977531E+03	2.653245E-16	3.153727E-16
2.977729E+03	2.651767E-16	3.151853E-16
2.977927E+03	2.650052E-16	3.149697E-16
2.980106E+03	2.647809E-16	3.145737E-16
2.980502E+03	2.645567E-16	3.142837E-16
2.980897E+03	2.643325E-16	3.139939E-16
2.981887E+03	2.640451E-16	3.135935E-16
2.982679E+03	2.637630E-16	3.132113E-16
2.982878E+03	2.634730E-16	3.128550E-16
2.983275E+03	2.631302E-16	3.124244E-16
2.983473E+03	2.628165E-16	3.120401E-16
2.985651E+03	2.624032E-16	3.114198E-16
2.986245E+03	2.620317E-16	3.109436E-16
2.986641E+03	2.616180E-16	3.104291E-16
2.986839E+03	2.612095E-16	3.099326E-16
2.987830E+03	2.607566E-16	3.093364E-16
2.988425E+03	2.602904E-16	3.087480E-16
2.989019E+03	2.598006E-16	3.081317E-16
2.989613E+03	2.593109E-16	3.075156E-16
2.989811E+03	2.588077E-16	3.069072E-16
2.990603E+03	2.582655E-16	3.062173E-16
2.990802E+03	2.577387E-16	3.055810E-16
2.991198E+03	2.571594E-16	3.048708E-16
2.992782E+03	2.565261E-16	3.040266E-16
2.994763E+03	2.558830E-16	3.031476E-16
2.994961E+03	2.552617E-16	3.023998E-16
2.995159E+03	2.546166E-16	3.016239E-16
2.995753E+03	2.539616E-16	3.008131E-16
2.995951E+03	2.532692E-16	2.999814E-16
2.996149E+03	2.525532E-16	2.991217E-16
2.996347E+03	2.518609E-16	2.982902E-16
2.996743E+03	2.511162E-16	2.973853E-16
2.996941E+03	2.503529E-16	2.964698E-16
2.997535E+03	2.495798E-16	2.955199E-16
2.998327E+03	2.487783E-16	2.945250E-16
2.998526E+03	2.479677E-16	2.935539E-16
2.999121E+03	2.471238E-16	2.925206E-16
2.999319E+03	2.462659E-16	2.914938E-16
2.999517E+03	2.453844E-16	2.904391E-16
2.999913E+03	2.445218E-16	2.893956E-16
3.000111E+03	2.436167E-16	2.883131E-16
3.001497E+03	2.426595E-16	2.871018E-16
3.002091E+03	2.417215E-16	2.859583E-16
3.002289E+03	2.407693E-16	2.848207E-16
3.004270E+03	2.397514E-16	2.835052E-16
3.004667E+03	2.387474E-16	2.822957E-16
3.005260E+03	2.377389E-16	2.810701E-16
3.005458E+03	2.367350E-16	2.798721E-16
3.005854E+03	2.356862E-16	2.786103E-16
3.006052E+03	2.346232E-16	2.773427E-16
3.006250E+03	2.335436E-16	2.760556E-16
3.006449E+03	2.324664E-16	2.747715E-16
3.006647E+03	2.313656E-16	2.734596E-16
3.007241E+03	2.302489E-16	2.721073E-16
3.008033E+03	2.290994E-16	2.707060E-16
3.008429E+03	2.279471E-16	2.693230E-16
3.009419E+03	2.267510E-16	2.678566E-16
3.010213E+03	2.255452E-16	2.663898E-16
3.010807E+03	2.243369E-16	2.649310E-16
3.011401E+03	2.231193E-16	2.634616E-16
3.011599E+03	2.218938E-16	2.620040E-16
3.011797E+03	2.206423E-16	2.605159E-16
3.012193E+03	2.193796E-16	2.590042E-16
3.012787E+03	2.180891E-16	2.574497E-16
3.013975E+03	2.167721E-16	2.558335E-16
3.014174E+03	2.154642E-16	2.542798E-16
3.014966E+03	2.141275E-16	2.526617E-16
3.015165E+03	2.127891E-16	2.510722E-16
3.015363E+03	2.114341E-16	2.494635E-16
3.015957E+03	2.100546E-16	2.478059E-16
3.016353E+03	2.086651E-16	2.461468E-16
3.017540E+03	2.072433E-16	2.444105E-16
3.018531E+03	2.058116E-16	2.426730E-16
3.019323E+03	2.043675E-16	2.409312E-16
3.019719E+03	2.029196E-16	2.392048E-16
3.019917E+03	2.014614E-16	2.374762E-16
3.020313E+03	1.999853E-16	2.357171E-16
3.020710E+03	1.984950E-16	2.339415E-16
3.020908E+03	1.969993E-16	2.321692E-16
3.021502E+03	1.954819E-16	2.303528E-16
3.021899E+03	1.939566E-16	2.285368E-16
3.022295E+03	1.924196E-16	2.267073E-16
3.022889E+03	1.908672E-16	2.248508E-16
3.023087E+03	1.893104E-16	2.230077E-16
3.023483E+03	1.877336E-16	2.211321E-16
3.023681E+03	1.861651E-16	2.192756E-16
3.025067E+03	1.845569E-16	2.173191E-16
3.025861E+03	1.829524E-16	2.153943E-16
3.026653E+03	1.813222E-16	2.134400E-16
3.028039E+03	1.796774E-16	2.114428E-16
3.030019E+03	1.780089E-16	2.093929E-16
3.030217E+03	1.763613E-16	2.074462E-16
3.034179E+03	1.746680E-16	2.052836E-16
3.035763E+03	1.729880E-16	2.032411E-16
3.036159E+03	1.713168E-16	2.012607E-16
3.036357E+03	1.696371E-16	1.992790E-16
3.036556E+03	1.679622E-16	1.973032E-16
3.037348E+03	1.662449E-16	1.952531E-16
3.037943E+03	1.645263E-16	1.932103E-16
3.038537E+03	1.628033E-16	1.911628E-16
3.038735E+03	1.610700E-16	1.891196E-16
3.039527E+03	1.593209E-16	1.870343E-16
3.041110E+03	1.575609E-16	1.849057E-16
3.041309E+03	1.558022E-16	1.828341E-16
3.041508E+03	1.540436E-16	1.807626E-16
3.043290E+03	1.522567E-16	1.785975E-16
3.043686E+03	1.505006E-16	1.765227E-16
3.044874E+03	1.487181E-16	1.743874E-16
3.045865E+03	1.469268E-16	1.722502E-16
3.047053E+03	1.451384E-16	1.701098E-16
3.050025E+03	1.433229E-16	1.678738E-16
3.050817E+03	1.415005E-16	1.657107E-16
3.051411E+03	1.396758E-16	1.635526E-16
3.052203E+03	1.378540E-16	1.613915E-16
3.052798E+03	1.360228E-16	1.592269E-16
3.054976E+03	1.341712E-16	1.569845E-16
3.055174E+03	1.323493E-16	1.548461E-16
3.056164E+03	1.305058E-16	1.526560E-16
3.056362E+03	1.286653E-16	1.504966E-16
3.057155E+03	1.268100E-16	1.483006E-16
3.057749E+03	1.249662E-16	1.461252E-16
3.057948E+03	1.231166E-16	1.439561E-16
3.060721E+03	1.212336E-16	1.416674E-16
3.061513E+03	1.193680E-16	1.394628E-16
3.061909E+03	1.174986E-16	1.372667E-16
3.063494E+03	1.156227E-16	1.350274E-16
3.064881E+03	1.137371E-16	1.327842E-16
3.065078E+03	1.118628E-16	1.305903E-16
3.065672E+03	1.099952E-16	1.283929E-16
3.067652E+03	1.081043E-16	1.261297E-16
3.068246E+03	1.062184E-16	1.239128E-16
3.069832E+03	1.043501E-16	1.216897E-16
3.070822E+03	1.024624E-16	1.194616E-16
3.072407E+03	1.005691E-16	1.172121E-16
3.074388E+03	9.867666E-17	1.149547E-16
3.075378E+03	9.679011E-17	1.127314E-16
3.077160E+03	9.490689E-17	1.104930E-16
3.077359E+03	9.303672E-17	1.083108E-16
3.078744E+03	9.115383E-17	1.060851E-16
3.080924E+03	8.926066E-17	1.038297E-16
3.081122E+03	8.738158E-17	1.016392E-16
3.082508E+03	8.550688E-17	9.942679E-17
3.083102E+03	8.364282E-17	9.724591E-17
3.084489E+03	8.176636E-17	9.503370E-17
3.085876E+03	7.990673E-17	9.284237E-17
3.086866E+03	7.804419E-17	9.065738E-17
3.088055E+03	7.617413E-17	8.846054E-17
3.088846E+03	7.431741E-17	8.628836E-17
3.090629E+03	7.245770E-17	8.409390E-17
3.090827E+03	7.061265E-17	8.194874E-17
3.091025E+03	6.875822E-17	7.979288E-17
3.091421E+03	6.691973E-17	7.765210E-17
3.092016E+03	6.507839E-17	7.550489E-17
3.092808E+03	6.324136E-17	7.335983E-17
3.093006E+03	6.140600E-17	7.122750E-17
3.093204E+03	5.957537E-17	6.910083E-17
3.095383E+03	5.774710E-17	6.694572E-17
3.096176E+03	5.592947E-17	6.482636E-17
3.097364E+03	5.411817E-17	6.270922E-17
3.100930E+03	5.230711E-17	6.055906E-17
3.101524E+03	5.051173E-17	5.847212E-17
3.101721E+03	4.872416E-17	5.640017E-17
3.102711E+03	4.693999E-17	5.432200E-17
3.103107E+03	4.516871E-17	5.226718E-17
3.103702E+03	4.340419E-17	5.021818E-17
3.105286E+03	4.164540E-17	4.816487E-17
3.105484E+03	3.990050E-17	4.614459E-17
3.105682E+03	3.816267E-17	4.413269E-17
3.105881E+03	3.643427E-17	4.213188E-17
3.106079E+03	3.471530E-17	4.014218E-17
3.106475E+03	3.300789E-17	3.816420E-17
3.107267E+03	3.130951E-17	3.619356E-17
3.107664E+03	2.962103E-17	3.423840E-17
3.107862E+03	2.794454E-17	3.229903E-17
3.108456E+03	2.627713E-17	3.036741E-17
3.108852E+03	2.462406E-17	2.845428E-17
3.110832E+03	2.298020E-17	2.654191E-17
3.111230E+03	2.134987E-17	2.465651E-17
3.111428E+03	1.972982E-17	2.278444E-17
3.111626E+03	1.812554E-17	2.093077E-17
3.111824E+03	1.652504E-17	1.908164E-17
3.112418E+03	1.493730E-17	1.724576E-17
3.112813E+03	1.336758E-17	1.543195E-17
3.113408E+03	1.181192E-17	1.363406E-17
3.113605E+03	1.027079E-17	1.185461E-17
3.114595E+03	8.744269E-18	1.009024E-17
3.115190E+03	7.232974E-18	8.345098E-18
3.115586E+03	5.737047E-18	6.618516E-18
3.115784E+03	4.256690E-18	4.910470E-18
3.116775E+03	2.792506E-18	3.220616E-18
3.118161E+03	1.344538E-18	1.550133E-18
3.118755E+03	-8.660958E-20	-9.983851E-20
3.119152E+03	-1.500815E-18	-1.729883E-18
3.119746E+03	-2.897796E-18	-3.339591E-18
3.120538E+03	-4.262698E-18	-4.911618E-18
3.121132E+03	-5.619819E-18	-6.474381E-18
3.121330E+03	-6.955350E-18	-8.012601E-18
3.121925E+03	-8.262108E-18	-9.516582E-18
3.122123E+03	-9.560938E-18	-1.101208E-17
3.122321E+03	-1.084236E-17	-1.248737E-17
3.122916E+03	-1.210414E-17	-1.393853E-17
3.123114E+03	-1.333524E-17	-1.535544E-17
3.123312E+03	-1.455645E-17	-1.676083E-17
3.123708E+03	-1.576794E-17	-1.815398E-17
3.123906E+03	-1.695364E-17	-1.951813E-17
3.124698E+03	-1.811367E-17	-2.084951E-17
3.126479E+03	-1.925111E-17	-2.214883E-17
3.126677E+03	-2.037655E-17	-2.344252E-17
3.126876E+03	-2.146815E-17	-2.469714E-17
3.127471E+03	-2.252616E-17	-2.591040E-17
3.127669E+03	-2.358179E-17	-2.712326E-17
3.127867E+03	-2.460380E-17	-2.829734E-17
3.128461E+03	-2.560441E-17	-2.944376E-17
3.129649E+03	-2.657878E-17	-3.055506E-17
3.129847E+03	-2.753964E-17	-3.165809E-17
3.131630E+03	-2.847597E-17	-3.271967E-17
3.132224E+03	-2.937779E-17	-3.375079E-17
3.132423E+03	-3.026341E-17	-3.476647E-17
3.132621E+03	-3.110673E-17	-3.573348E-17
3.132819E+03	-3.193830E-17	-3.668688E-17
3.133215E+03	-3.273682E-17	-3.760034E-17
3.133413E+03	-3.351198E-17	-3.848873E-17
3.133809E+03	-3.426350E-17	-3.934788E-17
3.134403E+03	-3.498901E-17	-4.017497E-17
3.134602E+03	-3.568662E-17	-4.097390E-17
3.134800E+03	-3.633489E-17	-4.171611E-17
3.135988E+03	-3.697063E-17	-4.243312E-17
3.136186E+03	-3.757426E-17	-4.312375E-17
3.137770E+03	-3.813214E-17	-4.374626E-17
3.137968E+03	-3.868168E-17	-4.437446E-17
3.139949E+03	-3.920403E-17	-4.495077E-17
3.140543E+03	-3.969217E-17	-4.550350E-17
3.140741E+03	-4.014303E-17	-4.601801E-17
3.141335E+03	-4.056776E-17	-4.649778E-17
3.141533E+03	-4.096694E-17	-4.695291E-17
3.141929E+03	-4.132135E-17	-4.735424E-17
3.142326E+03	-4.164753E-17	-4.772316E-17
3.142524E+03	-4.193633E-17	-4.805162E-17
3.143515E+03	-4.221038E-17	-4.835322E-17
3.143713E+03	-4.243806E-17	-4.861154E-17
3.144307E+03	-4.263258E-17	-4.882682E-17
3.144505E+03	-4.279919E-17	-4.901512E-17
3.144703E+03	-4.292822E-17	-4.916036E-17
3.144901E+03	-4.302439E-17	-4.926795E-17
3.146486E+03	-4.309364E-17	-4.932689E-17
3.146684E+03	-4.312874E-17	-4.936452E-17
3.147476E+03	-4.312344E-17	-4.934825E-17
3.148070E+03	-4.307839E-17	-4.928904E-17
3.148665E+03	-4.298872E-17	-4.917878E-17
3.148862E+03	-4.287114E-17	-4.904173E-17
3.149061E+03	-4.271365E-17	-4.885903E-17
3.149654E+03	-4.252532E-17	-4.863605E-17
3.151833E+03	-4.229841E-17	-4.834883E-17
3.153219E+03	-4.203210E-17	-4.802687E-17
3.153417E+03	-4.172667E-17	-4.767538E-17
3.153616E+03	-4.138367E-17	-4.728100E-17
3.154805E+03	-4.100010E-17	-4.682805E-17
3.155003E+03	-4.057493E-17	-4.634001E-17
3.156191E+03	-4.011157E-17	-4.579639E-17
3.156389E+03	-3.960655E-17	-4.521741E-17
3.157775E+03	-3.906095E-17	-4.457808E-17
3.157974E+03	-3.847373E-17	-4.390560E-17
3.159361E+03	-3.784132E-17	-4.316794E-17
3.159757E+03	-3.716949E-17	-4.239705E-17
3.160350E+03	-3.645531E-17	-4.157583E-17
3.160944E+03	-3.569418E-17	-4.070132E-17
3.162133E+03	-3.489522E-17	-3.977762E-17
3.162331E+03	-3.405211E-17	-3.881448E-17
3.162529E+03	-3.315969E-17	-3.779524E-17
3.163717E+03	-3.223166E-17	-3.672573E-17
3.164510E+03	-3.125450E-17	-3.560472E-17
3.164708E+03	-3.022826E-17	-3.443381E-17
3.164906E+03	-2.916446E-17	-3.322023E-17
3.165104E+03	-2.805605E-17	-3.195598E-17
3.165302E+03	-2.690303E-17	-3.064104E-17
3.165500E+03	-2.569132E-17	-2.925940E-17
3.165699E+03	-2.444438E-17	-2.783780E-17
3.166095E+03	-2.314762E-17	-2.635820E-17
3.168867E+03	-2.180473E-17	-2.481040E-17
3.169065E+03	-2.040453E-17	-2.321594E-17
3.169263E+03	-1.896042E-17	-2.157170E-17
3.169462E+03	-1.747241E-17	-1.987768E-17
3.169661E+03	-1.592876E-17	-1.812055E-17
3.170057E+03	-1.433696E-17	-1.630796E-17
3.171839E+03	-1.270084E-17	-1.443989E-17
3.172037E+03	-1.101424E-17	-1.252168E-17
3.172235E+03	-9.275290E-18	-1.054416E-17
3.172829E+03	-7.484665E-18	-8.507192E-18
3.173423E+03	-5.641700E-18	-6.411407E-18
3.174215E+03	-3.746154E-18	-4.256324E-18
3.174413E+03	-1.798104E-18	-2.042868E-18
3.174810E+03	2.026482E-19	2.302082E-19
3.175008E+03	2.256833E-18	2.563622E-18
3.175602E+03	4.366192E-18	4.958912E-18
3.176196E+03	6.529060E-18	7.414182E-18
3.176394E+03	8.746645E-18	9.931855E-18
3.176988E+03	1.141779E-17	1.296283E-17
3.177979E+03	1.402078E-17	1.591370E-17
3.178177E+03	1.670108E-17	1.895483E-17
3.178375E+03	1.837953E-17	2.085864E-17
3.178573E+03	1.969266E-17	2.234767E-17
3.178771E+03	2.007345E-17	2.277855E-17
3.178969E+03	2.137905E-17	2.425876E-17
3.179563E+03	1.656917E-17	1.879791E-17
3.179761E+03	9.991445E-18	1.133478E-17
3.179959E+03	1.132899E-17	1.285145E-17
3.180356E+03	1.086291E-17	1.232138E-17
3.180554E+03	1.150314E-17	1.304686E-17
3.180752E+03	1.232298E-17	1.397595E-17
3.181148E+03	1.033153E-17	1.171608E-17
3.181941E+03	1.212095E-17	1.374228E-17
3.182139E+03	1.389798E-17	1.575614E-17
3.182535E+03	1.570080E-17	1.779803E-17
3.182733E+03	1.753533E-17	1.987652E-17
3.182931E+03	1.940436E-17	2.199388E-17
3.183129E+03	2.128913E-17	2.412883E-17
3.183723E+03	2.319729E-17	2.628716E-17
3.184515E+03	2.513030E-17	2.847134E-17
3.184712E+03	2.708593E-17	3.068529E-17
3.185506E+03	2.907665E-17	3.293324E-17
3.186694E+03	3.108371E-17	3.519478E-17
3.188278E+03	3.310239E-17	3.746377E-17
3.189071E+03	2.885763E-17	3.265246E-17
3.189863E+03	2.578440E-17	2.916857E-17
3.190061E+03	2.433351E-17	2.752572E-17
3.190854E+03	2.294452E-17	2.594870E-17
3.191250E+03	2.161148E-17	2.443838E-17
3.191448E+03	2.071771E-17	2.342639E-17
3.191646E+03	1.991737E-17	2.252015E-17
3.191844E+03	1.922128E-17	2.173188E-17
3.192042E+03	1.864256E-17	2.107639E-17
3.192438E+03	1.835799E-17	2.075233E-17
3.192636E+03	1.821875E-17	2.059378E-17
3.194023E+03	1.856794E-17	2.098023E-17
3.194419E+03	1.897169E-17	2.143402E-17
3.194617E+03	1.783919E-17	2.015340E-17
3.195013E+03	1.745509E-17	1.971724E-17
3.195211E+03	1.523049E-17	1.720337E-17
3.195409E+03	1.605331E-17	1.813175E-17
3.195607E+03	1.344512E-17	1.518502E-17
3.196202E+03	1.138319E-17	1.285408E-17
3.196994E+03	7.935035E-18	8.958341E-18
3.197390E+03	7.928449E-18	8.949892E-18
3.198182E+03	8.483619E-18	9.574414E-18
3.198776E+03	7.701625E-18	8.690394E-18
3.200757E+03	7.831854E-18	8.832317E-18
3.202738E+03	7.855738E-18	8.854193E-18
3.204521E+03	8.137393E-18	9.166919E-18
3.204719E+03	8.570972E-18	9.654800E-18
3.205115E+03	8.437389E-18	9.503233E-18
3.205313E+03	8.217656E-18	9.255211E-18
3.206700E+03	8.328190E-18	9.375923E-18
3.206898E+03	8.568806E-18	9.646254E-18
3.207096E+03	8.995572E-18	1.012610E-17
3.207294E+03	8.613396E-18	9.695333E-18
3.207492E+03	8.236855E-18	9.270960E-18
3.207888E+03	7.304897E-18	8.221049E-18
3.208086E+03	6.913099E-18	7.779665E-18
3.208284E+03	6.389374E-18	7.189874E-18
3.208879E+03	6.304619E-18	7.093271E-18
3.209275E+03	6.140761E-18	6.908117E-18
3.209472E+03	5.818450E-18	6.545152E-18
3.210858E+03	5.176869E-18	5.821078E-18
3.211056E+03	5.367719E-18	6.035327E-18
3.211651E+03	5.548466E-18	6.237466E-18
3.211849E+03	5.635321E-18	6.334739E-18
3.212246E+03	5.887433E-18	6.617372E-18
3.212444E+03	5.555501E-18	6.243923E-18
3.213236E+03	5.719345E-18	6.426573E-18
3.214028E+03	5.927324E-18	6.658716E-18
3.214424E+03	5.884362E-18	6.609682E-18
3.214622E+03	5.634122E-18	6.328226E-18
3.215018E+03	5.717456E-18	6.421076E-18
3.215414E+03	5.840693E-18	6.558713E-18
3.215612E+03	5.782943E-18	6.493484E-18
3.215810E+03	5.494208E-18	6.168911E-18
3.216008E+03	5.624254E-18	6.314557E-18
3.217594E+03	5.681523E-18	6.375861E-18
3.217792E+03	5.308280E-18	5.956654E-18
3.218386E+03	5.485510E-18	6.154447E-18
3.218584E+03	5.634573E-18	6.321316E-18
3.219178E+03	5.753116E-18	6.453167E-18
3.219772E+03	5.837624E-18	6.546801E-18
3.219970E+03	5.905934E-18	6.623019E-18
3.220762E+03	5.941848E-18	6.661723E-18
3.221554E+03	5.959922E-18	6.680407E-18
3.222545E+03	5.869314E-18	6.576898E-18
3.222743E+03	5.709688E-18	6.397649E-18
3.223139E+03	5.478932E-18	6.138361E-18
3.224130E+03	5.129401E-18	5.745056E-18
3.224526E+03	4.611555E-18	5.164442E-18
3.224724E+03	4.593950E-18	5.144421E-18
3.225318E+03	4.597240E-18	5.147185E-18
3.225516E+03	4.386204E-18	4.910612E-18
3.226110E+03	4.398649E-18	4.923665E-18
3.226902E+03	4.113438E-18	4.603312E-18
3.227100E+03	3.714135E-18	4.156209E-18
3.227497E+03	3.595356E-18	4.022810E-18
3.228290E+03	3.640665E-18	4.072532E-18
3.228488E+03	3.548881E-18	3.969622E-18
3.229082E+03	3.560621E-18	3.982038E-18
3.229280E+03	3.402169E-18	3.804604E-18
3.229478E+03	3.382451E-18	3.782327E-18
3.230468E+03	3.366494E-18	3.763354E-18
3.230666E+03	3.405698E-18	3.806951E-18
3.231062E+03	3.411803E-18	3.813317E-18
3.231260E+03	3.309924E-18	3.699226E-18
3.232449E+03	3.281058E-18	3.665640E-18
3.232647E+03	3.143498E-18	3.511744E-18
3.233439E+03	3.168856E-18	3.539218E-18
3.234231E+03	3.145387E-18	3.512157E-18
3.234627E+03	3.068157E-18	3.425508E-18
3.234825E+03	3.021209E-18	3.372888E-18
3.235023E+03	3.009473E-18	3.359582E-18
3.235419E+03	3.028491E-18	3.380403E-18
3.235618E+03	3.015112E-18	3.365265E-18
3.235816E+03	2.957365E-18	3.300612E-18
3.236806E+03	2.980848E-18	3.325811E-18
3.237598E+03	3.002452E-18	3.349101E-18
3.239183E+03	2.887439E-18	3.219238E-18
3.239976E+03	2.897306E-18	3.229451E-18
3.240570E+03	2.908580E-18	3.241423E-18
3.241164E+03	2.871261E-18	3.199246E-18
3.241362E+03	2.856004E-18	3.182051E-18
3.241956E+03	2.865635E-18	3.192195E-18
3.242550E+03	2.849678E-18	3.173836E-18
3.243144E+03	2.868231E-18	3.193910E-18
3.243343E+03	2.874337E-18	3.200512E-18
3.243542E+03	2.808608E-18	3.127132E-18
3.243938E+03	2.798987E-18	3.116037E-18
3.244135E+03	2.748987E-18	3.060186E-18
3.244334E+03	2.708611E-18	3.015053E-18
3.244531E+03	2.688424E-18	2.992399E-18
3.244729E+03	2.699225E-18	3.004236E-18
3.245323E+03	2.704632E-18	3.009697E-18
3.245521E+03	2.696183E-18	3.000110E-18
3.245719E+03	2.680222E-18	2.982166E-18
3.245917E+03	2.638437E-18	2.935493E-18
3.246115E+03	2.615199E-18	2.909458E-18
3.246511E+03	2.570834E-18	2.859749E-18
3.249087E+03	2.571102E-18	2.857743E-18
3.249681E+03	2.573692E-18	2.860089E-18
3.250077E+03	2.564541E-18	2.849567E-18
3.250473E+03	2.546470E-18	2.829135E-18
3.250671E+03	2.542952E-18	2.825050E-18
3.251067E+03	2.553052E-18	2.835917E-18
3.252652E+03	2.552370E-18	2.833746E-18
3.253444E+03	2.555904E-18	2.836960E-18
3.254039E+03	2.547696E-18	2.827318E-18
3.254435E+03	2.522582E-18	2.799097E-18
3.255030E+03	2.539965E-18	2.817855E-18
3.255228E+03	2.558749E-18	2.838517E-18
3.256020E+03	2.567918E-18	2.847973E-18
3.257010E+03	2.579204E-18	2.859590E-18
3.258197E+03	2.583920E-18	2.863737E-18
3.258991E+03	2.601778E-18	2.882800E-18
3.260179E+03	2.602035E-18	2.881991E-18
3.260377E+03	2.612838E-18	2.893774E-18
3.260971E+03	2.596650E-18	2.875299E-18
3.261169E+03	2.608862E-18	2.888639E-18
3.261565E+03	2.627887E-18	2.909335E-18
3.261961E+03	2.593852E-18	2.871290E-18
3.262754E+03	2.607955E-18	2.886168E-18
3.262952E+03	2.622281E-18	2.901837E-18
3.263546E+03	2.588249E-18	2.863631E-18
3.264339E+03	2.565022E-18	2.837209E-18
3.265131E+03	2.577013E-18	2.849745E-18
