#wls	flux	fluxerr
1.584409E+03	7.001321E-17	0.000000E+00
1.624020E+03	7.314435E-17	0.000000E+00
1.663630E+03	7.608809E-17	0.000000E+00
1.703240E+03	7.879564E-17	0.000000E+00
1.742850E+03	8.122236E-17	0.000000E+00
1.782461E+03	8.328516E-17	0.000000E+00
1.822071E+03	8.488461E-17	0.000000E+00
1.861681E+03	8.590637E-17	0.000000E+00
1.901291E+03	8.622306E-17	0.000000E+00
1.940902E+03	8.573423E-17	0.000000E+00
1.980512E+03	8.440850E-17	0.000000E+00
2.020122E+03	8.236252E-17	0.000000E+00
2.059732E+03	7.993400E-17	0.000000E+00
2.099342E+03	7.769068E-17	0.000000E+00
2.138953E+03	7.623754E-17	0.000000E+00
2.178563E+03	7.593387E-17	0.000000E+00
2.218173E+03	7.668182E-17	0.000000E+00
2.257783E+03	7.802131E-17	0.000000E+00
2.297394E+03	7.942471E-17	0.000000E+00
2.337004E+03	8.047133E-17	0.000000E+00
2.376614E+03	8.090028E-17	0.000000E+00
2.416224E+03	8.059455E-17	0.000000E+00
2.455835E+03	7.953694E-17	0.000000E+00
2.495445E+03	7.777314E-17	0.000000E+00
2.535055E+03	7.537033E-17	0.000000E+00
2.574665E+03	7.241522E-17	0.000000E+00
2.614276E+03	6.899159E-17	0.000000E+00
2.653886E+03	6.517934E-17	0.000000E+00
2.693496E+03	6.106415E-17	0.000000E+00
2.733106E+03	5.672394E-17	0.000000E+00
2.772716E+03	5.223531E-17	0.000000E+00
2.812327E+03	4.767150E-17	0.000000E+00
2.851937E+03	4.310519E-17	0.000000E+00
2.891547E+03	3.861232E-17	0.000000E+00
2.931157E+03	3.426916E-17	0.000000E+00
2.970768E+03	3.013867E-17	0.000000E+00
2.980670E+03	2.914491E-17	0.000000E+00
2.990573E+03	2.816913E-17	0.000000E+00
3.000475E+03	2.721032E-17	0.000000E+00
3.010378E+03	2.626951E-17	0.000000E+00
3.020280E+03	2.534818E-17	0.000000E+00
3.030183E+03	2.444542E-17	0.000000E+00
3.040086E+03	2.356289E-17	0.000000E+00
3.049988E+03	2.270169E-17	0.000000E+00
3.059891E+03	2.186279E-17	0.000000E+00
3.069793E+03	2.104597E-17	0.000000E+00
3.079696E+03	2.025198E-17	0.000000E+00
3.089598E+03	1.948031E-17	0.000000E+00
3.099501E+03	1.873133E-17	0.000000E+00
3.109403E+03	1.800502E-17	0.000000E+00
3.119306E+03	1.730136E-17	0.000000E+00
3.129209E+03	1.662061E-17	0.000000E+00
3.139111E+03	1.596294E-17	0.000000E+00
3.149014E+03	1.532755E-17	0.000000E+00
3.158916E+03	1.471508E-17	0.000000E+00
3.168819E+03	1.412494E-17	0.000000E+00
3.178721E+03	1.355702E-17	0.000000E+00
3.188624E+03	1.301093E-17	0.000000E+00
3.198526E+03	1.248602E-17	0.000000E+00
3.208429E+03	1.198248E-17	0.000000E+00
3.218332E+03	1.149921E-17	0.000000E+00
3.228234E+03	1.103628E-17	0.000000E+00
3.238137E+03	1.059313E-17	0.000000E+00
3.248039E+03	1.016885E-17	0.000000E+00
3.257942E+03	9.763353E-18	0.000000E+00
3.267844E+03	9.375740E-18	0.000000E+00
3.277747E+03	9.005558E-18	0.000000E+00
3.287650E+03	8.652203E-18	0.000000E+00
3.297552E+03	8.315189E-18	0.000000E+00
3.307455E+03	7.993767E-18	0.000000E+00
3.317357E+03	7.687359E-18	0.000000E+00
3.327260E+03	7.395368E-18	0.000000E+00
3.337162E+03	7.117314E-18	0.000000E+00
3.347065E+03	6.852525E-18	0.000000E+00
3.356967E+03	6.600459E-18	0.000000E+00
3.366870E+03	6.360565E-18	0.000000E+00
3.376773E+03	6.132255E-18	0.000000E+00
3.386675E+03	5.915036E-18	0.000000E+00
3.396578E+03	5.708429E-18	0.000000E+00
3.406480E+03	5.511908E-18	0.000000E+00
3.416383E+03	5.325038E-18	0.000000E+00
3.426285E+03	5.147339E-18	0.000000E+00
3.436188E+03	4.978358E-18	0.000000E+00
3.446090E+03	4.817671E-18	0.000000E+00
3.455993E+03	4.664821E-18	0.000000E+00
3.465896E+03	4.519486E-18	0.000000E+00
3.475798E+03	4.381260E-18	0.000000E+00
3.485701E+03	4.249720E-18	0.000000E+00
3.495603E+03	4.124431E-18	0.000000E+00
3.505506E+03	4.005124E-18	0.000000E+00
3.515408E+03	3.891416E-18	0.000000E+00
3.525311E+03	3.782885E-18	0.000000E+00
3.535213E+03	3.679256E-18	0.000000E+00
3.545116E+03	3.580233E-18	0.000000E+00
3.555019E+03	3.485511E-18	0.000000E+00
3.564921E+03	3.394775E-18	0.000000E+00
3.574824E+03	3.307861E-18	0.000000E+00
3.584726E+03	3.224548E-18	0.000000E+00
3.594629E+03	3.144630E-18	0.000000E+00
3.604531E+03	3.068053E-18	0.000000E+00
3.614434E+03	2.994668E-18	0.000000E+00
3.624337E+03	2.924361E-18	0.000000E+00
3.634239E+03	2.857042E-18	0.000000E+00
3.644142E+03	2.792616E-18	0.000000E+00
3.654044E+03	2.730965E-18	0.000000E+00
3.663947E+03	2.672041E-18	0.000000E+00
3.673849E+03	2.615700E-18	0.000000E+00
3.683752E+03	2.561869E-18	0.000000E+00
3.693654E+03	2.510493E-18	0.000000E+00
3.703557E+03	2.461412E-18	0.000000E+00
3.713460E+03	2.414615E-18	0.000000E+00
3.723362E+03	2.369947E-18	0.000000E+00
3.733265E+03	2.327379E-18	0.000000E+00
3.743167E+03	2.286819E-18	0.000000E+00
3.753070E+03	2.248182E-18	0.000000E+00
3.762972E+03	2.211402E-18	0.000000E+00
3.772875E+03	2.176401E-18	0.000000E+00
3.782777E+03	2.143118E-18	0.000000E+00
3.792680E+03	2.111498E-18	0.000000E+00
3.802583E+03	2.081467E-18	0.000000E+00
3.812485E+03	2.052977E-18	0.000000E+00
3.822388E+03	2.025978E-18	0.000000E+00
3.832290E+03	2.000408E-18	0.000000E+00
3.842193E+03	1.976224E-18	0.000000E+00
3.852095E+03	1.953385E-18	0.000000E+00
3.861998E+03	1.931837E-18	0.000000E+00
3.871900E+03	1.911541E-18	0.000000E+00
3.881803E+03	1.892448E-18	0.000000E+00
3.891706E+03	1.874537E-18	0.000000E+00
3.901608E+03	1.857759E-18	0.000000E+00
3.911511E+03	1.842082E-18	0.000000E+00
3.921413E+03	1.827447E-18	0.000000E+00
3.931316E+03	1.813850E-18	0.000000E+00
3.941218E+03	1.801234E-18	0.000000E+00
3.951121E+03	1.789570E-18	0.000000E+00
3.961024E+03	1.778815E-18	0.000000E+00
3.970926E+03	1.768959E-18	0.000000E+00
3.980829E+03	1.759946E-18	0.000000E+00
3.990731E+03	1.751767E-18	0.000000E+00
4.000634E+03	1.744372E-18	0.000000E+00
4.010536E+03	1.737750E-18	0.000000E+00
4.020439E+03	1.731856E-18	0.000000E+00
4.030341E+03	1.726668E-18	0.000000E+00
4.040244E+03	1.722168E-18	0.000000E+00
4.050147E+03	1.718337E-18	0.000000E+00
4.060049E+03	1.715133E-18	0.000000E+00
4.069952E+03	1.712539E-18	0.000000E+00
4.079854E+03	1.710528E-18	0.000000E+00
4.089757E+03	1.709085E-18	0.000000E+00
4.099659E+03	1.708197E-18	0.000000E+00
4.109562E+03	1.707826E-18	0.000000E+00
4.119464E+03	1.707974E-18	0.000000E+00
4.129367E+03	1.708605E-18	0.000000E+00
4.139270E+03	1.709708E-18	0.000000E+00
4.149172E+03	1.711276E-18	0.000000E+00
4.159075E+03	1.713275E-18	0.000000E+00
4.168977E+03	1.715698E-18	0.000000E+00
4.178880E+03	1.718525E-18	0.000000E+00
4.188782E+03	1.721765E-18	0.000000E+00
4.198685E+03	1.725373E-18	0.000000E+00
4.208587E+03	1.729360E-18	0.000000E+00
4.218490E+03	1.733696E-18	0.000000E+00
4.228393E+03	1.738392E-18	0.000000E+00
4.238295E+03	1.743407E-18	0.000000E+00
4.248198E+03	1.748739E-18	0.000000E+00
4.258100E+03	1.754387E-18	0.000000E+00
4.268003E+03	1.760310E-18	0.000000E+00
4.277905E+03	1.766522E-18	0.000000E+00
4.287808E+03	1.772966E-18	0.000000E+00
4.297711E+03	1.779655E-18	0.000000E+00
4.307613E+03	1.786520E-18	0.000000E+00
4.317516E+03	1.793558E-18	0.000000E+00
4.327418E+03	1.800810E-18	0.000000E+00
4.337321E+03	1.808275E-18	0.000000E+00
4.347223E+03	1.815968E-18	0.000000E+00
4.357126E+03	1.823890E-18	0.000000E+00
4.367028E+03	1.832011E-18	0.000000E+00
4.376931E+03	1.840362E-18	0.000000E+00
4.386834E+03	1.848914E-18	0.000000E+00
4.396736E+03	1.857671E-18	0.000000E+00
4.406639E+03	1.866618E-18	0.000000E+00
4.416541E+03	1.875760E-18	0.000000E+00
4.426444E+03	1.885067E-18	0.000000E+00
4.436346E+03	1.894559E-18	0.000000E+00
4.446249E+03	1.904210E-18	0.000000E+00
4.456151E+03	1.914010E-18	0.000000E+00
4.466054E+03	1.923979E-18	0.000000E+00
4.475957E+03	1.934078E-18	0.000000E+00
4.485859E+03	1.944316E-18	0.000000E+00
4.495762E+03	1.954705E-18	0.000000E+00
4.505664E+03	1.965224E-18	0.000000E+00
4.515567E+03	1.975891E-18	0.000000E+00
4.525469E+03	1.986687E-18	0.000000E+00
4.535372E+03	1.997633E-18	0.000000E+00
4.545274E+03	2.008730E-18	0.000000E+00
4.555177E+03	2.019983E-18	0.000000E+00
4.565080E+03	2.031377E-18	0.000000E+00
4.574982E+03	2.042952E-18	0.000000E+00
4.584885E+03	2.054676E-18	0.000000E+00
4.594787E+03	2.066570E-18	0.000000E+00
4.604690E+03	2.078639E-18	0.000000E+00
4.614592E+03	2.090866E-18	0.000000E+00
4.624495E+03	2.103292E-18	0.000000E+00
4.634398E+03	2.115883E-18	0.000000E+00
4.644300E+03	2.128662E-18	0.000000E+00
4.654203E+03	2.141669E-18	0.000000E+00
4.664105E+03	2.154889E-18	0.000000E+00
4.674008E+03	2.168347E-18	0.000000E+00
4.683910E+03	2.182065E-18	0.000000E+00
4.693813E+03	2.196049E-18	0.000000E+00
4.703715E+03	2.210306E-18	0.000000E+00
4.713618E+03	2.224880E-18	0.000000E+00
4.723521E+03	2.239738E-18	0.000000E+00
4.733423E+03	2.254926E-18	0.000000E+00
4.743326E+03	2.270450E-18	0.000000E+00
4.753228E+03	2.286295E-18	0.000000E+00
4.763131E+03	2.302512E-18	0.000000E+00
4.773033E+03	2.319086E-18	0.000000E+00
4.782936E+03	2.336027E-18	0.000000E+00
4.792838E+03	2.353343E-18	0.000000E+00
4.802741E+03	2.371045E-18	0.000000E+00
4.812644E+03	2.389187E-18	0.000000E+00
4.822546E+03	2.407717E-18	0.000000E+00
4.832449E+03	2.426691E-18	0.000000E+00
4.842351E+03	2.446100E-18	0.000000E+00
4.852254E+03	2.465978E-18	0.000000E+00
4.862156E+03	2.486317E-18	0.000000E+00
4.872059E+03	2.507132E-18	0.000000E+00
4.881961E+03	2.528458E-18	0.000000E+00
4.891864E+03	2.550262E-18	0.000000E+00
4.901767E+03	2.572580E-18	0.000000E+00
4.911669E+03	2.595426E-18	0.000000E+00
4.921572E+03	2.618812E-18	0.000000E+00
4.931474E+03	2.642726E-18	0.000000E+00
4.941377E+03	2.667177E-18	0.000000E+00
4.951279E+03	2.692202E-18	0.000000E+00
4.961182E+03	2.717760E-18	0.000000E+00
4.971085E+03	2.743910E-18	0.000000E+00
4.980987E+03	2.770610E-18	0.000000E+00
4.990890E+03	2.797867E-18	0.000000E+00
5.000792E+03	2.825714E-18	0.000000E+00
5.010695E+03	2.854132E-18	0.000000E+00
5.020597E+03	2.883124E-18	0.000000E+00
5.030500E+03	2.912671E-18	0.000000E+00
5.040402E+03	2.942801E-18	0.000000E+00
5.050305E+03	2.973518E-18	0.000000E+00
5.060208E+03	3.004767E-18	0.000000E+00
5.070110E+03	3.036577E-18	0.000000E+00
5.080013E+03	3.068949E-18	0.000000E+00
5.089915E+03	3.101885E-18	0.000000E+00
5.099818E+03	3.135355E-18	0.000000E+00
5.109720E+03	3.169358E-18	0.000000E+00
5.119623E+03	3.203866E-18	0.000000E+00
5.129525E+03	3.238944E-18	0.000000E+00
5.139428E+03	3.274532E-18	0.000000E+00
5.149331E+03	3.310634E-18	0.000000E+00
5.159233E+03	3.347254E-18	0.000000E+00
5.169136E+03	3.384429E-18	0.000000E+00
5.179038E+03	3.422097E-18	0.000000E+00
5.188941E+03	3.460261E-18	0.000000E+00
5.198843E+03	3.498988E-18	0.000000E+00
5.208746E+03	3.538179E-18	0.000000E+00
5.218648E+03	3.577901E-18	0.000000E+00
5.228551E+03	3.618117E-18	0.000000E+00
5.238454E+03	3.658823E-18	0.000000E+00
5.248356E+03	3.700051E-18	0.000000E+00
5.258259E+03	3.741724E-18	0.000000E+00
5.268161E+03	3.783868E-18	0.000000E+00
5.278064E+03	3.826479E-18	0.000000E+00
5.287966E+03	3.869543E-18	0.000000E+00
5.297869E+03	3.913089E-18	0.000000E+00
5.307772E+03	3.957025E-18	0.000000E+00
5.317674E+03	4.001372E-18	0.000000E+00
5.327577E+03	4.046109E-18	0.000000E+00
5.337479E+03	4.091169E-18	0.000000E+00
5.347382E+03	4.136604E-18	0.000000E+00
5.357284E+03	4.182341E-18	0.000000E+00
5.367187E+03	4.228299E-18	0.000000E+00
5.377089E+03	4.274436E-18	0.000000E+00
5.386992E+03	4.320751E-18	0.000000E+00
5.396895E+03	4.367109E-18	0.000000E+00
5.406797E+03	4.413504E-18	0.000000E+00
5.416700E+03	4.459884E-18	0.000000E+00
5.426602E+03	4.506101E-18	0.000000E+00
5.436505E+03	4.552094E-18	0.000000E+00
5.446407E+03	4.597843E-18	0.000000E+00
5.456310E+03	4.643232E-18	0.000000E+00
5.466212E+03	4.688137E-18	0.000000E+00
5.476115E+03	4.732429E-18	0.000000E+00
5.486018E+03	4.776118E-18	0.000000E+00
5.495920E+03	4.818967E-18	0.000000E+00
5.505823E+03	4.860927E-18	0.000000E+00
5.515725E+03	4.901847E-18	0.000000E+00
5.525628E+03	4.941625E-18	0.000000E+00
5.535530E+03	4.980152E-18	0.000000E+00
5.545433E+03	5.017266E-18	0.000000E+00
5.555335E+03	5.052905E-18	0.000000E+00
5.565238E+03	5.086904E-18	0.000000E+00
5.575141E+03	5.119093E-18	0.000000E+00
5.585043E+03	5.149463E-18	0.000000E+00
5.594946E+03	5.177851E-18	0.000000E+00
5.604848E+03	5.204100E-18	0.000000E+00
5.614751E+03	5.228166E-18	0.000000E+00
5.624653E+03	5.250016E-18	0.000000E+00
5.634556E+03	5.269465E-18	0.000000E+00
5.644459E+03	5.286498E-18	0.000000E+00
5.654361E+03	5.301113E-18	0.000000E+00
5.664264E+03	5.313209E-18	0.000000E+00
5.674166E+03	5.322804E-18	0.000000E+00
5.684069E+03	5.329816E-18	0.000000E+00
5.693971E+03	5.334284E-18	0.000000E+00
5.703874E+03	5.336196E-18	0.000000E+00
5.713776E+03	5.335607E-18	0.000000E+00
5.723679E+03	5.332404E-18	0.000000E+00
5.733582E+03	5.326768E-18	0.000000E+00
5.743484E+03	5.318601E-18	0.000000E+00
5.753387E+03	5.307984E-18	0.000000E+00
5.763289E+03	5.294942E-18	0.000000E+00
5.773192E+03	5.279517E-18	0.000000E+00
5.783094E+03	5.261812E-18	0.000000E+00
5.792997E+03	5.241881E-18	0.000000E+00
5.802899E+03	5.219792E-18	0.000000E+00
5.812802E+03	5.195565E-18	0.000000E+00
5.822705E+03	5.169403E-18	0.000000E+00
5.832607E+03	5.141353E-18	0.000000E+00
5.842510E+03	5.111578E-18	0.000000E+00
5.852412E+03	5.080140E-18	0.000000E+00
5.862315E+03	5.047213E-18	0.000000E+00
5.872217E+03	5.012920E-18	0.000000E+00
5.882120E+03	4.977377E-18	0.000000E+00
5.892022E+03	4.940702E-18	0.000000E+00
5.901925E+03	4.903007E-18	0.000000E+00
5.911828E+03	4.864458E-18	0.000000E+00
5.921730E+03	4.825048E-18	0.000000E+00
5.931633E+03	4.784992E-18	0.000000E+00
5.941535E+03	4.744333E-18	0.000000E+00
5.951438E+03	4.703163E-18	0.000000E+00
5.961340E+03	4.661629E-18	0.000000E+00
5.971243E+03	4.619706E-18	0.000000E+00
5.981146E+03	4.577585E-18	0.000000E+00
5.991048E+03	4.535235E-18	0.000000E+00
6.000951E+03	4.492783E-18	0.000000E+00
6.010853E+03	4.450299E-18	0.000000E+00
6.020756E+03	4.407796E-18	0.000000E+00
6.030658E+03	4.365335E-18	0.000000E+00
6.040561E+03	4.322974E-18	0.000000E+00
6.050463E+03	4.280769E-18	0.000000E+00
6.060366E+03	4.238771E-18	0.000000E+00
6.070269E+03	4.197027E-18	0.000000E+00
6.080171E+03	4.155581E-18	0.000000E+00
6.090074E+03	4.114474E-18	0.000000E+00
6.099976E+03	4.073796E-18	0.000000E+00
6.109879E+03	4.033633E-18	0.000000E+00
6.119781E+03	3.994065E-18	0.000000E+00
6.129684E+03	3.955121E-18	0.000000E+00
6.139586E+03	3.916824E-18	0.000000E+00
6.149489E+03	3.879144E-18	0.000000E+00
6.159392E+03	3.842104E-18	0.000000E+00
6.169294E+03	3.805720E-18	0.000000E+00
6.179197E+03	3.769957E-18	0.000000E+00
6.189099E+03	3.734881E-18	0.000000E+00
6.199002E+03	3.700603E-18	0.000000E+00
6.208904E+03	3.667082E-18	0.000000E+00
6.218807E+03	3.634376E-18	0.000000E+00
6.228709E+03	3.602591E-18	0.000000E+00
6.238612E+03	3.571682E-18	0.000000E+00
6.248515E+03	3.541797E-18	0.000000E+00
6.258417E+03	3.512991E-18	0.000000E+00
6.268320E+03	3.485212E-18	0.000000E+00
6.278222E+03	3.458608E-18	0.000000E+00
6.288125E+03	3.433226E-18	0.000000E+00
6.298027E+03	3.409065E-18	0.000000E+00
6.307930E+03	3.386170E-18	0.000000E+00
6.317833E+03	3.364688E-18	0.000000E+00
6.327735E+03	3.344565E-18	0.000000E+00
6.337638E+03	3.325848E-18	0.000000E+00
6.347540E+03	3.308635E-18	0.000000E+00
6.357443E+03	3.292775E-18	0.000000E+00
6.367345E+03	3.278170E-18	0.000000E+00
6.377248E+03	3.264769E-18	0.000000E+00
6.387150E+03	3.252522E-18	0.000000E+00
6.397053E+03	3.241330E-18	0.000000E+00
6.406956E+03	3.231192E-18	0.000000E+00
6.416858E+03	3.222058E-18	0.000000E+00
6.426761E+03	3.213928E-18	0.000000E+00
6.436663E+03	3.206751E-18	0.000000E+00
6.446566E+03	3.200527E-18	0.000000E+00
6.456468E+03	3.195255E-18	0.000000E+00
6.466371E+03	3.190886E-18	0.000000E+00
6.476273E+03	3.187468E-18	0.000000E+00
6.486176E+03	3.185001E-18	0.000000E+00
6.496079E+03	3.183436E-18	0.000000E+00
6.505981E+03	3.182824E-18	0.000000E+00
6.515884E+03	3.183112E-18	0.000000E+00
6.525786E+03	3.184301E-18	0.000000E+00
6.535689E+03	3.186443E-18	0.000000E+00
6.545591E+03	3.189435E-18	0.000000E+00
6.555494E+03	3.193435E-18	0.000000E+00
6.565396E+03	3.198285E-18	0.000000E+00
6.575299E+03	3.204093E-18	0.000000E+00
6.585202E+03	3.210806E-18	0.000000E+00
6.595104E+03	3.218426E-18	0.000000E+00
6.605007E+03	3.227008E-18	0.000000E+00
6.614909E+03	3.236500E-18	0.000000E+00
6.624812E+03	3.246904E-18	0.000000E+00
6.634714E+03	3.258221E-18	0.000000E+00
6.644617E+03	3.270511E-18	0.000000E+00
6.654520E+03	3.283663E-18	0.000000E+00
6.664422E+03	3.297792E-18	0.000000E+00
6.674325E+03	3.312845E-18	0.000000E+00
6.684227E+03	3.328825E-18	0.000000E+00
6.694130E+03	3.345736E-18	0.000000E+00
6.704032E+03	3.363578E-18	0.000000E+00
6.713935E+03	3.382418E-18	0.000000E+00
6.723837E+03	3.402138E-18	0.000000E+00
6.733740E+03	3.422801E-18	0.000000E+00
6.743643E+03	3.444413E-18	0.000000E+00
6.753545E+03	3.466975E-18	0.000000E+00
6.763448E+03	3.490493E-18	0.000000E+00
6.773350E+03	3.514972E-18	0.000000E+00
6.783253E+03	3.540413E-18	0.000000E+00
6.793155E+03	3.566757E-18	0.000000E+00
6.803058E+03	3.594071E-18	0.000000E+00
6.812960E+03	3.622358E-18	0.000000E+00
6.822863E+03	3.651555E-18	0.000000E+00
6.832766E+03	3.681730E-18	0.000000E+00
6.842668E+03	3.712888E-18	0.000000E+00
6.852571E+03	3.744960E-18	0.000000E+00
6.862473E+03	3.777947E-18	0.000000E+00
6.872376E+03	3.811922E-18	0.000000E+00
6.882278E+03	3.846813E-18	0.000000E+00
6.892181E+03	3.882622E-18	0.000000E+00
6.902083E+03	3.919423E-18	0.000000E+00
6.911986E+03	3.957144E-18	0.000000E+00
6.921889E+03	3.995783E-18	0.000000E+00
6.931791E+03	4.035265E-18	0.000000E+00
6.941694E+03	4.075745E-18	0.000000E+00
6.951596E+03	4.117147E-18	0.000000E+00
6.961499E+03	4.159471E-18	0.000000E+00
6.971401E+03	4.202636E-18	0.000000E+00
6.981304E+03	4.246726E-18	0.000000E+00
6.991207E+03	4.291652E-18	0.000000E+00
7.001109E+03	4.337588E-18	0.000000E+00
7.011012E+03	4.384275E-18	0.000000E+00
7.020914E+03	4.431884E-18	0.000000E+00
7.030817E+03	4.480326E-18	0.000000E+00
7.040719E+03	4.529690E-18	0.000000E+00
7.050622E+03	4.579792E-18	0.000000E+00
7.060524E+03	4.630812E-18	0.000000E+00
7.070427E+03	4.682561E-18	0.000000E+00
7.080330E+03	4.735129E-18	0.000000E+00
7.090232E+03	4.788513E-18	0.000000E+00
7.100135E+03	4.842710E-18	0.000000E+00
7.110037E+03	4.897614E-18	0.000000E+00
7.119940E+03	4.953217E-18	0.000000E+00
7.129842E+03	5.009616E-18	0.000000E+00
7.139745E+03	5.066700E-18	0.000000E+00
7.149647E+03	5.124569E-18	0.000000E+00
7.159550E+03	5.182997E-18	0.000000E+00
7.169453E+03	5.242196E-18	0.000000E+00
7.179355E+03	5.302044E-18	0.000000E+00
7.189258E+03	5.362533E-18	0.000000E+00
7.199160E+03	5.423651E-18	0.000000E+00
7.209063E+03	5.485386E-18	0.000000E+00
7.218965E+03	5.547725E-18	0.000000E+00
7.228868E+03	5.610781E-18	0.000000E+00
7.238770E+03	5.674292E-18	0.000000E+00
7.248673E+03	5.738622E-18	0.000000E+00
7.258576E+03	5.803636E-18	0.000000E+00
7.268478E+03	5.869190E-18	0.000000E+00
7.278381E+03	5.935671E-18	0.000000E+00
7.288283E+03	6.002803E-18	0.000000E+00
7.298186E+03	6.070987E-18	0.000000E+00
7.308088E+03	6.140088E-18	0.000000E+00
7.317991E+03	6.210246E-18	0.000000E+00
7.327894E+03	6.281609E-18	0.000000E+00
7.337796E+03	6.354186E-18	0.000000E+00
7.347699E+03	6.428289E-18	0.000000E+00
7.357601E+03	6.504096E-18	0.000000E+00
7.367504E+03	6.581482E-18	0.000000E+00
7.377406E+03	6.660476E-18	0.000000E+00
7.387309E+03	6.741104E-18	0.000000E+00
7.397211E+03	6.823230E-18	0.000000E+00
7.407114E+03	6.906709E-18	0.000000E+00
7.417017E+03	6.991385E-18	0.000000E+00
7.426919E+03	7.077261E-18	0.000000E+00
7.436822E+03	7.164167E-18	0.000000E+00
7.446724E+03	7.251920E-18	0.000000E+00
7.456627E+03	7.340686E-18	0.000000E+00
7.466529E+03	7.430093E-18	0.000000E+00
7.476432E+03	7.520118E-18	0.000000E+00
7.486334E+03	7.610740E-18	0.000000E+00
7.496237E+03	7.701937E-18	0.000000E+00
7.506140E+03	7.793686E-18	0.000000E+00
7.516042E+03	7.885767E-18	0.000000E+00
7.525945E+03	7.978147E-18	0.000000E+00
7.535847E+03	8.070990E-18	0.000000E+00
7.545750E+03	8.164063E-18	0.000000E+00
7.555652E+03	8.257529E-18	0.000000E+00
7.565555E+03	8.350926E-18	0.000000E+00
7.575457E+03	8.444625E-18	0.000000E+00
7.585360E+03	8.538361E-18	0.000000E+00
7.595263E+03	8.632074E-18	0.000000E+00
7.605165E+03	8.725699E-18	0.000000E+00
7.615068E+03	8.819397E-18	0.000000E+00
7.624970E+03	8.912871E-18	0.000000E+00
7.634873E+03	9.006041E-18	0.000000E+00
7.644775E+03	9.099078E-18	0.000000E+00
7.654678E+03	9.191884E-18	0.000000E+00
7.664581E+03	9.284149E-18	0.000000E+00
7.674483E+03	9.376030E-18	0.000000E+00
7.684386E+03	9.467420E-18	0.000000E+00
