#wls	flux	fluxerr
1.584409E+03	4.516341E-17	0.000000E+00
1.624020E+03	4.718319E-17	0.000000E+00
1.663630E+03	4.909589E-17	0.000000E+00
1.703240E+03	5.087884E-17	0.000000E+00
1.742850E+03	5.249636E-17	0.000000E+00
1.782461E+03	5.391379E-17	0.000000E+00
1.822071E+03	5.505381E-17	0.000000E+00
1.861681E+03	5.584961E-17	0.000000E+00
1.901291E+03	5.621871E-17	0.000000E+00
1.940902E+03	5.609433E-17	0.000000E+00
1.980512E+03	5.544777E-17	0.000000E+00
2.020122E+03	5.435101E-17	0.000000E+00
2.059732E+03	5.302190E-17	0.000000E+00
2.099342E+03	5.183504E-17	0.000000E+00
2.138953E+03	5.119832E-17	0.000000E+00
2.178563E+03	5.137249E-17	0.000000E+00
2.218173E+03	5.232576E-17	0.000000E+00
2.257783E+03	5.378827E-17	0.000000E+00
2.297394E+03	5.540181E-17	0.000000E+00
2.337004E+03	5.685335E-17	0.000000E+00
2.376614E+03	5.794580E-17	0.000000E+00
2.416224E+03	5.857761E-17	0.000000E+00
2.455835E+03	5.871618E-17	0.000000E+00
2.495445E+03	5.836917E-17	0.000000E+00
2.535055E+03	5.756249E-17	0.000000E+00
2.574665E+03	5.633722E-17	0.000000E+00
2.614276E+03	5.473368E-17	0.000000E+00
2.653886E+03	5.279289E-17	0.000000E+00
2.693496E+03	5.056041E-17	0.000000E+00
2.733106E+03	4.807857E-17	0.000000E+00
2.772716E+03	4.539186E-17	0.000000E+00
2.812327E+03	4.254582E-17	0.000000E+00
2.851937E+03	3.958863E-17	0.000000E+00
2.891547E+03	3.658024E-17	0.000000E+00
2.931157E+03	3.358339E-17	0.000000E+00
2.970768E+03	3.065779E-17	0.000000E+00
2.980670E+03	2.994324E-17	0.000000E+00
2.990573E+03	2.923757E-17	0.000000E+00
3.000475E+03	2.853969E-17	0.000000E+00
3.010378E+03	2.785194E-17	0.000000E+00
3.020280E+03	2.717386E-17	0.000000E+00
3.030183E+03	2.650568E-17	0.000000E+00
3.040086E+03	2.584852E-17	0.000000E+00
3.049988E+03	2.520408E-17	0.000000E+00
3.059891E+03	2.457280E-17	0.000000E+00
3.069793E+03	2.395533E-17	0.000000E+00
3.079696E+03	2.335077E-17	0.000000E+00
3.089598E+03	2.275928E-17	0.000000E+00
3.099501E+03	2.218103E-17	0.000000E+00
3.109403E+03	2.161571E-17	0.000000E+00
3.119306E+03	2.106264E-17	0.000000E+00
3.129209E+03	2.052284E-17	0.000000E+00
3.139111E+03	1.999526E-17	0.000000E+00
3.149014E+03	1.948048E-17	0.000000E+00
3.158916E+03	1.897825E-17	0.000000E+00
3.168819E+03	1.848837E-17	0.000000E+00
3.178721E+03	1.801064E-17	0.000000E+00
3.188624E+03	1.754551E-17	0.000000E+00
3.198526E+03	1.709246E-17	0.000000E+00
3.208429E+03	1.665128E-17	0.000000E+00
3.218332E+03	1.622208E-17	0.000000E+00
3.228234E+03	1.580490E-17	0.000000E+00
3.238137E+03	1.539928E-17	0.000000E+00
3.248039E+03	1.500526E-17	0.000000E+00
3.257942E+03	1.462263E-17	0.000000E+00
3.267844E+03	1.425140E-17	0.000000E+00
3.277747E+03	1.389112E-17	0.000000E+00
3.287650E+03	1.354161E-17	0.000000E+00
3.297552E+03	1.320304E-17	0.000000E+00
3.307455E+03	1.287481E-17	0.000000E+00
3.317357E+03	1.255688E-17	0.000000E+00
3.327260E+03	1.224923E-17	0.000000E+00
3.337162E+03	1.195131E-17	0.000000E+00
3.347065E+03	1.166321E-17	0.000000E+00
3.356967E+03	1.138442E-17	0.000000E+00
3.366870E+03	1.111476E-17	0.000000E+00
3.376773E+03	1.085418E-17	0.000000E+00
3.386675E+03	1.060232E-17	0.000000E+00
3.396578E+03	1.035902E-17	0.000000E+00
3.406480E+03	1.012382E-17	0.000000E+00
3.416383E+03	9.896707E-18	0.000000E+00
3.426285E+03	9.677380E-18	0.000000E+00
3.436188E+03	9.465452E-18	0.000000E+00
3.446090E+03	9.260799E-18	0.000000E+00
3.455993E+03	9.063067E-18	0.000000E+00
3.465896E+03	8.872043E-18	0.000000E+00
3.475798E+03	8.687519E-18	0.000000E+00
3.485701E+03	8.509112E-18	0.000000E+00
3.495603E+03	8.336474E-18	0.000000E+00
3.505506E+03	8.169204E-18	0.000000E+00
3.515408E+03	8.006865E-18	0.000000E+00
3.525311E+03	7.849058E-18	0.000000E+00
3.535213E+03	7.695422E-18	0.000000E+00
3.545116E+03	7.545566E-18	0.000000E+00
3.555019E+03	7.399137E-18	0.000000E+00
3.564921E+03	7.255939E-18	0.000000E+00
3.574824E+03	7.115622E-18	0.000000E+00
3.584726E+03	6.978040E-18	0.000000E+00
3.594629E+03	6.843316E-18	0.000000E+00
3.604531E+03	6.711420E-18	0.000000E+00
3.614434E+03	6.582448E-18	0.000000E+00
3.624337E+03	6.456460E-18	0.000000E+00
3.634239E+03	6.333557E-18	0.000000E+00
3.644142E+03	6.213767E-18	0.000000E+00
3.654044E+03	6.097048E-18	0.000000E+00
3.663947E+03	5.983565E-18	0.000000E+00
3.673849E+03	5.873195E-18	0.000000E+00
3.683752E+03	5.766013E-18	0.000000E+00
3.693654E+03	5.661984E-18	0.000000E+00
3.703557E+03	5.561109E-18	0.000000E+00
3.713460E+03	5.463337E-18	0.000000E+00
3.723362E+03	5.368611E-18	0.000000E+00
3.733265E+03	5.276955E-18	0.000000E+00
3.743167E+03	5.188299E-18	0.000000E+00
3.753070E+03	5.102613E-18	0.000000E+00
3.762972E+03	5.019779E-18	0.000000E+00
3.772875E+03	4.939840E-18	0.000000E+00
3.782777E+03	4.862675E-18	0.000000E+00
3.792680E+03	4.788279E-18	0.000000E+00
3.802583E+03	4.716530E-18	0.000000E+00
3.812485E+03	4.647455E-18	0.000000E+00
3.822388E+03	4.580896E-18	0.000000E+00
3.832290E+03	4.516877E-18	0.000000E+00
3.842193E+03	4.455311E-18	0.000000E+00
3.852095E+03	4.396115E-18	0.000000E+00
3.861998E+03	4.339240E-18	0.000000E+00
3.871900E+03	4.284638E-18	0.000000E+00
3.881803E+03	4.232259E-18	0.000000E+00
3.891706E+03	4.182023E-18	0.000000E+00
3.901608E+03	4.133852E-18	0.000000E+00
3.911511E+03	4.087732E-18	0.000000E+00
3.921413E+03	4.043619E-18	0.000000E+00
3.931316E+03	4.001376E-18	0.000000E+00
3.941218E+03	3.961023E-18	0.000000E+00
3.951121E+03	3.922490E-18	0.000000E+00
3.961024E+03	3.885736E-18	0.000000E+00
3.970926E+03	3.850664E-18	0.000000E+00
3.980829E+03	3.817241E-18	0.000000E+00
3.990731E+03	3.785459E-18	0.000000E+00
4.000634E+03	3.755228E-18	0.000000E+00
4.010536E+03	3.726515E-18	0.000000E+00
4.020439E+03	3.699264E-18	0.000000E+00
4.030341E+03	3.673444E-18	0.000000E+00
4.040244E+03	3.649001E-18	0.000000E+00
4.050147E+03	3.625908E-18	0.000000E+00
4.060049E+03	3.604116E-18	0.000000E+00
4.069952E+03	3.583571E-18	0.000000E+00
4.079854E+03	3.564253E-18	0.000000E+00
4.089757E+03	3.546142E-18	0.000000E+00
4.099659E+03	3.529165E-18	0.000000E+00
4.109562E+03	3.513330E-18	0.000000E+00
4.119464E+03	3.498567E-18	0.000000E+00
4.129367E+03	3.484862E-18	0.000000E+00
4.139270E+03	3.472199E-18	0.000000E+00
4.149172E+03	3.460540E-18	0.000000E+00
4.159075E+03	3.449846E-18	0.000000E+00
4.168977E+03	3.440106E-18	0.000000E+00
4.178880E+03	3.431285E-18	0.000000E+00
4.188782E+03	3.423373E-18	0.000000E+00
4.198685E+03	3.416362E-18	0.000000E+00
4.208587E+03	3.410221E-18	0.000000E+00
4.218490E+03	3.404892E-18	0.000000E+00
4.228393E+03	3.400422E-18	0.000000E+00
4.238295E+03	3.396756E-18	0.000000E+00
4.248198E+03	3.393890E-18	0.000000E+00
4.258100E+03	3.391772E-18	0.000000E+00
4.268003E+03	3.390426E-18	0.000000E+00
4.277905E+03	3.389828E-18	0.000000E+00
4.287808E+03	3.389951E-18	0.000000E+00
4.297711E+03	3.390800E-18	0.000000E+00
4.307613E+03	3.392350E-18	0.000000E+00
4.317516E+03	3.394660E-18	0.000000E+00
4.327418E+03	3.397682E-18	0.000000E+00
4.337321E+03	3.401422E-18	0.000000E+00
4.347223E+03	3.405888E-18	0.000000E+00
4.357126E+03	3.411037E-18	0.000000E+00
4.367028E+03	3.416876E-18	0.000000E+00
4.376931E+03	3.423391E-18	0.000000E+00
4.386834E+03	3.430536E-18	0.000000E+00
4.396736E+03	3.438352E-18	0.000000E+00
4.406639E+03	3.446798E-18	0.000000E+00
4.416541E+03	3.455860E-18	0.000000E+00
4.426444E+03	3.465497E-18	0.000000E+00
4.436346E+03	3.475751E-18	0.000000E+00
4.446249E+03	3.486612E-18	0.000000E+00
4.456151E+03	3.498012E-18	0.000000E+00
4.466054E+03	3.509998E-18	0.000000E+00
4.475957E+03	3.522529E-18	0.000000E+00
4.485859E+03	3.535599E-18	0.000000E+00
4.495762E+03	3.549225E-18	0.000000E+00
4.505664E+03	3.563401E-18	0.000000E+00
4.515567E+03	3.578090E-18	0.000000E+00
4.525469E+03	3.593283E-18	0.000000E+00
4.535372E+03	3.609005E-18	0.000000E+00
4.545274E+03	3.625248E-18	0.000000E+00
4.555177E+03	3.641947E-18	0.000000E+00
4.565080E+03	3.659155E-18	0.000000E+00
4.574982E+03	3.676871E-18	0.000000E+00
4.584885E+03	3.695025E-18	0.000000E+00
4.594787E+03	3.713645E-18	0.000000E+00
4.604690E+03	3.732725E-18	0.000000E+00
4.614592E+03	3.752230E-18	0.000000E+00
4.624495E+03	3.772222E-18	0.000000E+00
4.634398E+03	3.792663E-18	0.000000E+00
4.644300E+03	3.813584E-18	0.000000E+00
4.654203E+03	3.834983E-18	0.000000E+00
4.664105E+03	3.856893E-18	0.000000E+00
4.674008E+03	3.879278E-18	0.000000E+00
4.683910E+03	3.902206E-18	0.000000E+00
4.693813E+03	3.925644E-18	0.000000E+00
4.703715E+03	3.949695E-18	0.000000E+00
4.713618E+03	3.974293E-18	0.000000E+00
4.723521E+03	3.999475E-18	0.000000E+00
4.733423E+03	4.025316E-18	0.000000E+00
4.743326E+03	4.051784E-18	0.000000E+00
4.753228E+03	4.078957E-18	0.000000E+00
4.763131E+03	4.106767E-18	0.000000E+00
4.773033E+03	4.135295E-18	0.000000E+00
4.782936E+03	4.164547E-18	0.000000E+00
4.792838E+03	4.194493E-18	0.000000E+00
4.802741E+03	4.225178E-18	0.000000E+00
4.812644E+03	4.256648E-18	0.000000E+00
4.822546E+03	4.288835E-18	0.000000E+00
4.832449E+03	4.321785E-18	0.000000E+00
4.842351E+03	4.355547E-18	0.000000E+00
4.852254E+03	4.390049E-18	0.000000E+00
4.862156E+03	4.425341E-18	0.000000E+00
4.872059E+03	4.461430E-18	0.000000E+00
4.881961E+03	4.498326E-18	0.000000E+00
4.891864E+03	4.536038E-18	0.000000E+00
4.901767E+03	4.574532E-18	0.000000E+00
4.911669E+03	4.613858E-18	0.000000E+00
4.921572E+03	4.653983E-18	0.000000E+00
4.931474E+03	4.694913E-18	0.000000E+00
4.941377E+03	4.736656E-18	0.000000E+00
4.951279E+03	4.779219E-18	0.000000E+00
4.961182E+03	4.822609E-18	0.000000E+00
4.971085E+03	4.866832E-18	0.000000E+00
4.980987E+03	4.911850E-18	0.000000E+00
4.990890E+03	4.957665E-18	0.000000E+00
5.000792E+03	5.004285E-18	0.000000E+00
5.010695E+03	5.051711E-18	0.000000E+00
5.020597E+03	5.099947E-18	0.000000E+00
5.030500E+03	5.148997E-18	0.000000E+00
5.040402E+03	5.198764E-18	0.000000E+00
5.050305E+03	5.249348E-18	0.000000E+00
5.060208E+03	5.300749E-18	0.000000E+00
5.070110E+03	5.352867E-18	0.000000E+00
5.080013E+03	5.405697E-18	0.000000E+00
5.089915E+03	5.459288E-18	0.000000E+00
5.099818E+03	5.513639E-18	0.000000E+00
5.109720E+03	5.568636E-18	0.000000E+00
5.119623E+03	5.624326E-18	0.000000E+00
5.129525E+03	5.680757E-18	0.000000E+00
5.139428E+03	5.737812E-18	0.000000E+00
5.149331E+03	5.795478E-18	0.000000E+00
5.159233E+03	5.853743E-18	0.000000E+00
5.169136E+03	5.912651E-18	0.000000E+00
5.179038E+03	5.972131E-18	0.000000E+00
5.188941E+03	6.032166E-18	0.000000E+00
5.198843E+03	6.092680E-18	0.000000E+00
5.208746E+03	6.153713E-18	0.000000E+00
5.218648E+03	6.215242E-18	0.000000E+00
5.228551E+03	6.277187E-18	0.000000E+00
5.238454E+03	6.339581E-18	0.000000E+00
5.248356E+03	6.402340E-18	0.000000E+00
5.258259E+03	6.465434E-18	0.000000E+00
5.268161E+03	6.528895E-18	0.000000E+00
5.278064E+03	6.592632E-18	0.000000E+00
5.287966E+03	6.656609E-18	0.000000E+00
5.297869E+03	6.720791E-18	0.000000E+00
5.307772E+03	6.785141E-18	0.000000E+00
5.317674E+03	6.849620E-18	0.000000E+00
5.327577E+03	6.914188E-18	0.000000E+00
5.337479E+03	6.978801E-18	0.000000E+00
5.347382E+03	7.043350E-18	0.000000E+00
5.357284E+03	7.107779E-18	0.000000E+00
5.367187E+03	7.172121E-18	0.000000E+00
5.377089E+03	7.236243E-18	0.000000E+00
5.386992E+03	7.300094E-18	0.000000E+00
5.396895E+03	7.363556E-18	0.000000E+00
5.406797E+03	7.426640E-18	0.000000E+00
5.416700E+03	7.489135E-18	0.000000E+00
5.426602E+03	7.551137E-18	0.000000E+00
5.436505E+03	7.612351E-18	0.000000E+00
5.446407E+03	7.672788E-18	0.000000E+00
5.456310E+03	7.732383E-18	0.000000E+00
5.466212E+03	7.791001E-18	0.000000E+00
5.476115E+03	7.848562E-18	0.000000E+00
5.486018E+03	7.904923E-18	0.000000E+00
5.495920E+03	7.960018E-18	0.000000E+00
5.505823E+03	8.013767E-18	0.000000E+00
5.515725E+03	8.066110E-18	0.000000E+00
5.525628E+03	8.116882E-18	0.000000E+00
5.535530E+03	8.166031E-18	0.000000E+00
5.545433E+03	8.213484E-18	0.000000E+00
5.555335E+03	8.259165E-18	0.000000E+00
5.565238E+03	8.302931E-18	0.000000E+00
5.575141E+03	8.344721E-18	0.000000E+00
5.585043E+03	8.384553E-18	0.000000E+00
5.594946E+03	8.422288E-18	0.000000E+00
5.604848E+03	8.457782E-18	0.000000E+00
5.614751E+03	8.491158E-18	0.000000E+00
5.624653E+03	8.522362E-18	0.000000E+00
5.634556E+03	8.551186E-18	0.000000E+00
5.644459E+03	8.577660E-18	0.000000E+00
5.654361E+03	8.601852E-18	0.000000E+00
5.664264E+03	8.623637E-18	0.000000E+00
5.674166E+03	8.642976E-18	0.000000E+00
5.684069E+03	8.659950E-18	0.000000E+00
5.693971E+03	8.674449E-18	0.000000E+00
5.703874E+03	8.686640E-18	0.000000E+00
5.713776E+03	8.696326E-18	0.000000E+00
5.723679E+03	8.703605E-18	0.000000E+00
5.733582E+03	8.708480E-18	0.000000E+00
5.743484E+03	8.711039E-18	0.000000E+00
5.753387E+03	8.711215E-18	0.000000E+00
5.763289E+03	8.709113E-18	0.000000E+00
5.773192E+03	8.704757E-18	0.000000E+00
5.783094E+03	8.698073E-18	0.000000E+00
5.792997E+03	8.689279E-18	0.000000E+00
5.802899E+03	8.678323E-18	0.000000E+00
5.812802E+03	8.665346E-18	0.000000E+00
5.822705E+03	8.650272E-18	0.000000E+00
5.832607E+03	8.633264E-18	0.000000E+00
5.842510E+03	8.614355E-18	0.000000E+00
5.852412E+03	8.593616E-18	0.000000E+00
5.862315E+03	8.571180E-18	0.000000E+00
5.872217E+03	8.546923E-18	0.000000E+00
5.882120E+03	8.521095E-18	0.000000E+00
5.892022E+03	8.493751E-18	0.000000E+00
5.901925E+03	8.464963E-18	0.000000E+00
5.911828E+03	8.434692E-18	0.000000E+00
5.921730E+03	8.403109E-18	0.000000E+00
5.931633E+03	8.370365E-18	0.000000E+00
5.941535E+03	8.336337E-18	0.000000E+00
5.951438E+03	8.301282E-18	0.000000E+00
5.961340E+03	8.265171E-18	0.000000E+00
5.971243E+03	8.228169E-18	0.000000E+00
5.981146E+03	8.190131E-18	0.000000E+00
5.991048E+03	8.151330E-18	0.000000E+00
6.000951E+03	8.111818E-18	0.000000E+00
6.010853E+03	8.071557E-18	0.000000E+00
6.020756E+03	8.030597E-18	0.000000E+00
6.030658E+03	7.989106E-18	0.000000E+00
6.040561E+03	7.947023E-18	0.000000E+00
6.050463E+03	7.904503E-18	0.000000E+00
6.060366E+03	7.861500E-18	0.000000E+00
6.070269E+03	7.818138E-18	0.000000E+00
6.080171E+03	7.774578E-18	0.000000E+00
6.090074E+03	7.730754E-18	0.000000E+00
6.099976E+03	7.686790E-18	0.000000E+00
6.109879E+03	7.642933E-18	0.000000E+00
6.119781E+03	7.599200E-18	0.000000E+00
6.129684E+03	7.555728E-18	0.000000E+00
6.139586E+03	7.512447E-18	0.000000E+00
6.149489E+03	7.469371E-18	0.000000E+00
6.159392E+03	7.426435E-18	0.000000E+00
6.169294E+03	7.383647E-18	0.000000E+00
6.179197E+03	7.341139E-18	0.000000E+00
6.189099E+03	7.298821E-18	0.000000E+00
6.199002E+03	7.256721E-18	0.000000E+00
6.208904E+03	7.214953E-18	0.000000E+00
6.218807E+03	7.173636E-18	0.000000E+00
6.228709E+03	7.132784E-18	0.000000E+00
6.238612E+03	7.092419E-18	0.000000E+00
6.248515E+03	7.052853E-18	0.000000E+00
6.258417E+03	7.013905E-18	0.000000E+00
6.268320E+03	6.975990E-18	0.000000E+00
6.278222E+03	6.939024E-18	0.000000E+00
6.288125E+03	6.903124E-18	0.000000E+00
6.298027E+03	6.868606E-18	0.000000E+00
6.307930E+03	6.835488E-18	0.000000E+00
6.317833E+03	6.803885E-18	0.000000E+00
6.327735E+03	6.773915E-18	0.000000E+00
6.337638E+03	6.745799E-18	0.000000E+00
6.347540E+03	6.719451E-18	0.000000E+00
6.357443E+03	6.694693E-18	0.000000E+00
6.367345E+03	6.671439E-18	0.000000E+00
6.377248E+03	6.649609E-18	0.000000E+00
6.387150E+03	6.629120E-18	0.000000E+00
6.397053E+03	6.609789E-18	0.000000E+00
6.406956E+03	6.591534E-18	0.000000E+00
6.416858E+03	6.574271E-18	0.000000E+00
6.426761E+03	6.558021E-18	0.000000E+00
6.436663E+03	6.542702E-18	0.000000E+00
6.446566E+03	6.528227E-18	0.000000E+00
6.456468E+03	6.514720E-18	0.000000E+00
6.466371E+03	6.501994E-18	0.000000E+00
6.476273E+03	6.490166E-18	0.000000E+00
6.486176E+03	6.479153E-18	0.000000E+00
6.496079E+03	6.469073E-18	0.000000E+00
6.505981E+03	6.459836E-18	0.000000E+00
6.515884E+03	6.451457E-18	0.000000E+00
6.525786E+03	6.443946E-18	0.000000E+00
6.535689E+03	6.437421E-18	0.000000E+00
6.545591E+03	6.431679E-18	0.000000E+00
6.555494E+03	6.426940E-18	0.000000E+00
6.565396E+03	6.423104E-18	0.000000E+00
6.575299E+03	6.420176E-18	0.000000E+00
6.585202E+03	6.418268E-18	0.000000E+00
6.595104E+03	6.417169E-18	0.000000E+00
6.605007E+03	6.417094E-18	0.000000E+00
6.614909E+03	6.417938E-18	0.000000E+00
6.624812E+03	6.419701E-18	0.000000E+00
6.634714E+03	6.422492E-18	0.000000E+00
6.644617E+03	6.426201E-18	0.000000E+00
6.654520E+03	6.430827E-18	0.000000E+00
6.664422E+03	6.436367E-18	0.000000E+00
6.674325E+03	6.442931E-18	0.000000E+00
6.684227E+03	6.450404E-18	0.000000E+00
6.694130E+03	6.458781E-18	0.000000E+00
6.704032E+03	6.468170E-18	0.000000E+00
6.713935E+03	6.478453E-18	0.000000E+00
6.723837E+03	6.489620E-18	0.000000E+00
6.733740E+03	6.501780E-18	0.000000E+00
6.743643E+03	6.514688E-18	0.000000E+00
6.753545E+03	6.528568E-18	0.000000E+00
6.763448E+03	6.543406E-18	0.000000E+00
6.773350E+03	6.558951E-18	0.000000E+00
6.783253E+03	6.575424E-18	0.000000E+00
6.793155E+03	6.592690E-18	0.000000E+00
6.803058E+03	6.610729E-18	0.000000E+00
6.812960E+03	6.629520E-18	0.000000E+00
6.822863E+03	6.649042E-18	0.000000E+00
6.832766E+03	6.669397E-18	0.000000E+00
6.842668E+03	6.690317E-18	0.000000E+00
6.852571E+03	6.712026E-18	0.000000E+00
6.862473E+03	6.734253E-18	0.000000E+00
6.872376E+03	6.757226E-18	0.000000E+00
6.882278E+03	6.780672E-18	0.000000E+00
6.892181E+03	6.804824E-18	0.000000E+00
6.902083E+03	6.829406E-18	0.000000E+00
6.911986E+03	6.854526E-18	0.000000E+00
6.921889E+03	6.880168E-18	0.000000E+00
6.931791E+03	6.906182E-18	0.000000E+00
6.941694E+03	6.932820E-18	0.000000E+00
6.951596E+03	6.959803E-18	0.000000E+00
6.961499E+03	6.987117E-18	0.000000E+00
6.971401E+03	7.014888E-18	0.000000E+00
6.981304E+03	7.043109E-18	0.000000E+00
6.991207E+03	7.071637E-18	0.000000E+00
7.001109E+03	7.100463E-18	0.000000E+00
7.011012E+03	7.129728E-18	0.000000E+00
7.020914E+03	7.159286E-18	0.000000E+00
7.030817E+03	7.189137E-18	0.000000E+00
7.040719E+03	7.219278E-18	0.000000E+00
7.050622E+03	7.249858E-18	0.000000E+00
7.060524E+03	7.280582E-18	0.000000E+00
7.070427E+03	7.311748E-18	0.000000E+00
7.080330E+03	7.343061E-18	0.000000E+00
7.090232E+03	7.374668E-18	0.000000E+00
7.100135E+03	7.406573E-18	0.000000E+00
7.110037E+03	7.438776E-18	0.000000E+00
7.119940E+03	7.471124E-18	0.000000E+00
7.129842E+03	7.503770E-18	0.000000E+00
7.139745E+03	7.536717E-18	0.000000E+00
7.149647E+03	7.569804E-18	0.000000E+00
7.159550E+03	7.603027E-18	0.000000E+00
7.169453E+03	7.636546E-18	0.000000E+00
7.179355E+03	7.670194E-18	0.000000E+00
7.189258E+03	7.703972E-18	0.000000E+00
7.199160E+03	7.738039E-18	0.000000E+00
7.209063E+03	7.772221E-18	0.000000E+00
7.218965E+03	7.806517E-18	0.000000E+00
7.228868E+03	7.841265E-18	0.000000E+00
7.238770E+03	7.875944E-18	0.000000E+00
7.248673E+03	7.911076E-18	0.000000E+00
7.258576E+03	7.946292E-18	0.000000E+00
7.268478E+03	7.981962E-18	0.000000E+00
7.278381E+03	8.017886E-18	0.000000E+00
7.288283E+03	8.054249E-18	0.000000E+00
7.298186E+03	8.091237E-18	0.000000E+00
7.308088E+03	8.128649E-18	0.000000E+00
7.317991E+03	8.167050E-18	0.000000E+00
7.327894E+03	8.206263E-18	0.000000E+00
7.337796E+03	8.246281E-18	0.000000E+00
7.347699E+03	8.287877E-18	0.000000E+00
7.357601E+03	8.330490E-18	0.000000E+00
7.367504E+03	8.374717E-18	0.000000E+00
7.377406E+03	8.420566E-18	0.000000E+00
7.387309E+03	8.467645E-18	0.000000E+00
7.397211E+03	8.515763E-18	0.000000E+00
7.407114E+03	8.564898E-18	0.000000E+00
7.417017E+03	8.614842E-18	0.000000E+00
7.426919E+03	8.665579E-18	0.000000E+00
7.436822E+03	8.716872E-18	0.000000E+00
7.446724E+03	8.768479E-18	0.000000E+00
7.456627E+03	8.820371E-18	0.000000E+00
7.466529E+03	8.872492E-18	0.000000E+00
7.476432E+03	8.924596E-18	0.000000E+00
7.486334E+03	8.976852E-18	0.000000E+00
7.496237E+03	9.028762E-18	0.000000E+00
7.506140E+03	9.080732E-18	0.000000E+00
7.516042E+03	9.132472E-18	0.000000E+00
7.525945E+03	9.183702E-18	0.000000E+00
7.535847E+03	9.234600E-18	0.000000E+00
7.545750E+03	9.284869E-18	0.000000E+00
7.555652E+03	9.334688E-18	0.000000E+00
7.565555E+03	9.384001E-18	0.000000E+00
7.575457E+03	9.432519E-18	0.000000E+00
7.585360E+03	9.480412E-18	0.000000E+00
7.595263E+03	9.527398E-18	0.000000E+00
7.605165E+03	9.573655E-18	0.000000E+00
7.615068E+03	9.619127E-18	0.000000E+00
7.624970E+03	9.663508E-18	0.000000E+00
7.634873E+03	9.707000E-18	0.000000E+00
7.644775E+03	9.749538E-18	0.000000E+00
7.654678E+03	9.791074E-18	0.000000E+00
7.664581E+03	9.831552E-18	0.000000E+00
7.674483E+03	9.870908E-18	0.000000E+00
7.684386E+03	9.909084E-18	0.000000E+00
