#wls	flux	fluxerr
1.584409E+03	6.254478E-17	0.000000E+00
1.624020E+03	6.537130E-17	0.000000E+00
1.663630E+03	6.803829E-17	0.000000E+00
1.703240E+03	7.050287E-17	0.000000E+00
1.742850E+03	7.272565E-17	0.000000E+00
1.782461E+03	7.463252E-17	0.000000E+00
1.822071E+03	7.613454E-17	0.000000E+00
1.861681E+03	7.712884E-17	0.000000E+00
1.901291E+03	7.749999E-17	0.000000E+00
1.940902E+03	7.715599E-17	0.000000E+00
1.980512E+03	7.606615E-17	0.000000E+00
2.020122E+03	7.433274E-17	0.000000E+00
2.059732E+03	7.225776E-17	0.000000E+00
2.099342E+03	7.035324E-17	0.000000E+00
2.138953E+03	6.916849E-17	0.000000E+00
2.178563E+03	6.903409E-17	0.000000E+00
2.218173E+03	6.986753E-17	0.000000E+00
2.257783E+03	7.125565E-17	0.000000E+00
2.297394E+03	7.272014E-17	0.000000E+00
2.337004E+03	7.387637E-17	0.000000E+00
2.376614E+03	7.448219E-17	0.000000E+00
2.416224E+03	7.442537E-17	0.000000E+00
2.455835E+03	7.368383E-17	0.000000E+00
2.495445E+03	7.229303E-17	0.000000E+00
2.535055E+03	7.030827E-17	0.000000E+00
2.574665E+03	6.780319E-17	0.000000E+00
2.614276E+03	6.484923E-17	0.000000E+00
2.653886E+03	6.151471E-17	0.000000E+00
2.693496E+03	5.787427E-17	0.000000E+00
2.733106E+03	5.399619E-17	0.000000E+00
2.772716E+03	4.994837E-17	0.000000E+00
2.812327E+03	4.579694E-17	0.000000E+00
2.851937E+03	4.160879E-17	0.000000E+00
2.891547E+03	3.745570E-17	0.000000E+00
2.931157E+03	3.341200E-17	0.000000E+00
2.970768E+03	2.954165E-17	0.000000E+00
2.980670E+03	2.860718E-17	0.000000E+00
2.990573E+03	2.768850E-17	0.000000E+00
3.000475E+03	2.678470E-17	0.000000E+00
3.010378E+03	2.589688E-17	0.000000E+00
3.020280E+03	2.502657E-17	0.000000E+00
3.030183E+03	2.417298E-17	0.000000E+00
3.040086E+03	2.333782E-17	0.000000E+00
3.049988E+03	2.252226E-17	0.000000E+00
3.059891E+03	2.172732E-17	0.000000E+00
3.069793E+03	2.095278E-17	0.000000E+00
3.079696E+03	2.019932E-17	0.000000E+00
3.089598E+03	1.946634E-17	0.000000E+00
3.099501E+03	1.875410E-17	0.000000E+00
3.109403E+03	1.806247E-17	0.000000E+00
3.119306E+03	1.739135E-17	0.000000E+00
3.129209E+03	1.674093E-17	0.000000E+00
3.139111E+03	1.611139E-17	0.000000E+00
3.149014E+03	1.550191E-17	0.000000E+00
3.158916E+03	1.491319E-17	0.000000E+00
3.168819E+03	1.434467E-17	0.000000E+00
3.178721E+03	1.379635E-17	0.000000E+00
3.188624E+03	1.326788E-17	0.000000E+00
3.198526E+03	1.275871E-17	0.000000E+00
3.208429E+03	1.226913E-17	0.000000E+00
3.218332E+03	1.179812E-17	0.000000E+00
3.228234E+03	1.134584E-17	0.000000E+00
3.238137E+03	1.091182E-17	0.000000E+00
3.248039E+03	1.049524E-17	0.000000E+00
3.257942E+03	1.009614E-17	0.000000E+00
3.267844E+03	9.713670E-18	0.000000E+00
3.277747E+03	9.347503E-18	0.000000E+00
3.287650E+03	8.997123E-18	0.000000E+00
3.297552E+03	8.662131E-18	0.000000E+00
3.307455E+03	8.341877E-18	0.000000E+00
3.317357E+03	8.035853E-18	0.000000E+00
3.327260E+03	7.743554E-18	0.000000E+00
3.337162E+03	7.464569E-18	0.000000E+00
3.347065E+03	7.198298E-18	0.000000E+00
3.356967E+03	6.944264E-18	0.000000E+00
3.366870E+03	6.701983E-18	0.000000E+00
3.376773E+03	6.470911E-18	0.000000E+00
3.386675E+03	6.250610E-18	0.000000E+00
3.396578E+03	6.040648E-18	0.000000E+00
3.406480E+03	5.840541E-18	0.000000E+00
3.416383E+03	5.649892E-18	0.000000E+00
3.426285E+03	5.468255E-18	0.000000E+00
3.436188E+03	5.295207E-18	0.000000E+00
3.446090E+03	5.130345E-18	0.000000E+00
3.455993E+03	4.973236E-18	0.000000E+00
3.465896E+03	4.823579E-18	0.000000E+00
3.475798E+03	4.680983E-18	0.000000E+00
3.485701E+03	4.545033E-18	0.000000E+00
3.495603E+03	4.415298E-18	0.000000E+00
3.505506E+03	4.291521E-18	0.000000E+00
3.515408E+03	4.173326E-18	0.000000E+00
3.525311E+03	4.060284E-18	0.000000E+00
3.535213E+03	3.952128E-18	0.000000E+00
3.545116E+03	3.848565E-18	0.000000E+00
3.555019E+03	3.749292E-18	0.000000E+00
3.564921E+03	3.653993E-18	0.000000E+00
3.574824E+03	3.562511E-18	0.000000E+00
3.584726E+03	3.474632E-18	0.000000E+00
3.594629E+03	3.390150E-18	0.000000E+00
3.604531E+03	3.309024E-18	0.000000E+00
3.614434E+03	3.231113E-18	0.000000E+00
3.624337E+03	3.156311E-18	0.000000E+00
3.634239E+03	3.084534E-18	0.000000E+00
3.644142E+03	3.015697E-18	0.000000E+00
3.654044E+03	2.949687E-18	0.000000E+00
3.663947E+03	2.886465E-18	0.000000E+00
3.673849E+03	2.825890E-18	0.000000E+00
3.683752E+03	2.767896E-18	0.000000E+00
3.693654E+03	2.712437E-18	0.000000E+00
3.703557E+03	2.659353E-18	0.000000E+00
3.713460E+03	2.608642E-18	0.000000E+00
3.723362E+03	2.560149E-18	0.000000E+00
3.733265E+03	2.513849E-18	0.000000E+00
3.743167E+03	2.469656E-18	0.000000E+00
3.753070E+03	2.427482E-18	0.000000E+00
3.762972E+03	2.387266E-18	0.000000E+00
3.772875E+03	2.348927E-18	0.000000E+00
3.782777E+03	2.312406E-18	0.000000E+00
3.792680E+03	2.277645E-18	0.000000E+00
3.802583E+03	2.244572E-18	0.000000E+00
3.812485E+03	2.213134E-18	0.000000E+00
3.822388E+03	2.183279E-18	0.000000E+00
3.832290E+03	2.154943E-18	0.000000E+00
3.842193E+03	2.128078E-18	0.000000E+00
3.852095E+03	2.102640E-18	0.000000E+00
3.861998E+03	2.078570E-18	0.000000E+00
3.871900E+03	2.055827E-18	0.000000E+00
3.881803E+03	2.034356E-18	0.000000E+00
3.891706E+03	2.014136E-18	0.000000E+00
3.901608E+03	1.995115E-18	0.000000E+00
3.911511E+03	1.977257E-18	0.000000E+00
3.921413E+03	1.960498E-18	0.000000E+00
3.931316E+03	1.944838E-18	0.000000E+00
3.941218E+03	1.930215E-18	0.000000E+00
3.951121E+03	1.916600E-18	0.000000E+00
3.961024E+03	1.903949E-18	0.000000E+00
3.970926E+03	1.892249E-18	0.000000E+00
3.980829E+03	1.881445E-18	0.000000E+00
3.990731E+03	1.871528E-18	0.000000E+00
4.000634E+03	1.862444E-18	0.000000E+00
4.010536E+03	1.854185E-18	0.000000E+00
4.020439E+03	1.846701E-18	0.000000E+00
4.030341E+03	1.839971E-18	0.000000E+00
4.040244E+03	1.833978E-18	0.000000E+00
4.050147E+03	1.828700E-18	0.000000E+00
4.060049E+03	1.824094E-18	0.000000E+00
4.069952E+03	1.820143E-18	0.000000E+00
4.079854E+03	1.816818E-18	0.000000E+00
4.089757E+03	1.814105E-18	0.000000E+00
4.099659E+03	1.811990E-18	0.000000E+00
4.109562E+03	1.810434E-18	0.000000E+00
4.119464E+03	1.809438E-18	0.000000E+00
4.129367E+03	1.808965E-18	0.000000E+00
4.139270E+03	1.809005E-18	0.000000E+00
4.149172E+03	1.809549E-18	0.000000E+00
4.159075E+03	1.810561E-18	0.000000E+00
4.168977E+03	1.812035E-18	0.000000E+00
4.178880E+03	1.813950E-18	0.000000E+00
4.188782E+03	1.816316E-18	0.000000E+00
4.198685E+03	1.819084E-18	0.000000E+00
4.208587E+03	1.822264E-18	0.000000E+00
4.218490E+03	1.825826E-18	0.000000E+00
4.228393E+03	1.829782E-18	0.000000E+00
4.238295E+03	1.834085E-18	0.000000E+00
4.248198E+03	1.838734E-18	0.000000E+00
4.258100E+03	1.843727E-18	0.000000E+00
4.268003E+03	1.849021E-18	0.000000E+00
4.277905E+03	1.854629E-18	0.000000E+00
4.287808E+03	1.860492E-18	0.000000E+00
4.297711E+03	1.866624E-18	0.000000E+00
4.307613E+03	1.872951E-18	0.000000E+00
4.317516E+03	1.879472E-18	0.000000E+00
4.327418E+03	1.886230E-18	0.000000E+00
4.337321E+03	1.893226E-18	0.000000E+00
4.347223E+03	1.900475E-18	0.000000E+00
4.357126E+03	1.907979E-18	0.000000E+00
4.367028E+03	1.915709E-18	0.000000E+00
4.376931E+03	1.923698E-18	0.000000E+00
4.386834E+03	1.931919E-18	0.000000E+00
4.396736E+03	1.940373E-18	0.000000E+00
4.406639E+03	1.949051E-18	0.000000E+00
4.416541E+03	1.957955E-18	0.000000E+00
4.426444E+03	1.967061E-18	0.000000E+00
4.436346E+03	1.976389E-18	0.000000E+00
4.446249E+03	1.985914E-18	0.000000E+00
4.456151E+03	1.995629E-18	0.000000E+00
4.466054E+03	2.005557E-18	0.000000E+00
4.475957E+03	2.015659E-18	0.000000E+00
4.485859E+03	2.025946E-18	0.000000E+00
4.495762E+03	2.036431E-18	0.000000E+00
4.505664E+03	2.047093E-18	0.000000E+00
4.515567E+03	2.057946E-18	0.000000E+00
4.525469E+03	2.068972E-18	0.000000E+00
4.535372E+03	2.080187E-18	0.000000E+00
4.545274E+03	2.091593E-18	0.000000E+00
4.555177E+03	2.103189E-18	0.000000E+00
4.565080E+03	2.114959E-18	0.000000E+00
4.574982E+03	2.126941E-18	0.000000E+00
4.584885E+03	2.139101E-18	0.000000E+00
4.594787E+03	2.151461E-18	0.000000E+00
4.604690E+03	2.164021E-18	0.000000E+00
4.614592E+03	2.176768E-18	0.000000E+00
4.624495E+03	2.189741E-18	0.000000E+00
4.634398E+03	2.202906E-18	0.000000E+00
4.644300E+03	2.216285E-18	0.000000E+00
4.654203E+03	2.229920E-18	0.000000E+00
4.664105E+03	2.243797E-18	0.000000E+00
4.674008E+03	2.257938E-18	0.000000E+00
4.683910E+03	2.272370E-18	0.000000E+00
4.693813E+03	2.287097E-18	0.000000E+00
4.703715E+03	2.302125E-18	0.000000E+00
4.713618E+03	2.317500E-18	0.000000E+00
4.723521E+03	2.333190E-18	0.000000E+00
4.733423E+03	2.349241E-18	0.000000E+00
4.743326E+03	2.365661E-18	0.000000E+00
4.753228E+03	2.382436E-18	0.000000E+00
4.763131E+03	2.399618E-18	0.000000E+00
4.773033E+03	2.417194E-18	0.000000E+00
4.782936E+03	2.435172E-18	0.000000E+00
4.792838E+03	2.453563E-18	0.000000E+00
4.802741E+03	2.472376E-18	0.000000E+00
4.812644E+03	2.491665E-18	0.000000E+00
4.822546E+03	2.511377E-18	0.000000E+00
4.832449E+03	2.531566E-18	0.000000E+00
4.842351E+03	2.552222E-18	0.000000E+00
4.852254E+03	2.573379E-18	0.000000E+00
4.862156E+03	2.595026E-18	0.000000E+00
4.872059E+03	2.617177E-18	0.000000E+00
4.881961E+03	2.639866E-18	0.000000E+00
4.891864E+03	2.663058E-18	0.000000E+00
4.901767E+03	2.686788E-18	0.000000E+00
4.911669E+03	2.711068E-18	0.000000E+00
4.921572E+03	2.735911E-18	0.000000E+00
4.931474E+03	2.761301E-18	0.000000E+00
4.941377E+03	2.787249E-18	0.000000E+00
4.951279E+03	2.813791E-18	0.000000E+00
4.961182E+03	2.840884E-18	0.000000E+00
4.971085E+03	2.868590E-18	0.000000E+00
4.980987E+03	2.896864E-18	0.000000E+00
4.990890E+03	2.925713E-18	0.000000E+00
5.000792E+03	2.955171E-18	0.000000E+00
5.010695E+03	2.985220E-18	0.000000E+00
5.020597E+03	3.015862E-18	0.000000E+00
5.030500E+03	3.047075E-18	0.000000E+00
5.040402E+03	3.078893E-18	0.000000E+00
5.050305E+03	3.111320E-18	0.000000E+00
5.060208E+03	3.144300E-18	0.000000E+00
5.070110E+03	3.177866E-18	0.000000E+00
5.080013E+03	3.212020E-18	0.000000E+00
5.089915E+03	3.246765E-18	0.000000E+00
5.099818E+03	3.282072E-18	0.000000E+00
5.109720E+03	3.317943E-18	0.000000E+00
5.119623E+03	3.354348E-18	0.000000E+00
5.129525E+03	3.391353E-18	0.000000E+00
5.139428E+03	3.428894E-18	0.000000E+00
5.149331E+03	3.466973E-18	0.000000E+00
5.159233E+03	3.505590E-18	0.000000E+00
5.169136E+03	3.544781E-18	0.000000E+00
5.179038E+03	3.584476E-18	0.000000E+00
5.188941E+03	3.624676E-18	0.000000E+00
5.198843E+03	3.665448E-18	0.000000E+00
5.208746E+03	3.706685E-18	0.000000E+00
5.218648E+03	3.748454E-18	0.000000E+00
5.228551E+03	3.790716E-18	0.000000E+00
5.238454E+03	3.833463E-18	0.000000E+00
5.248356E+03	3.876727E-18	0.000000E+00
5.258259E+03	3.920423E-18	0.000000E+00
5.268161E+03	3.964577E-18	0.000000E+00
5.278064E+03	4.009178E-18	0.000000E+00
5.287966E+03	4.054212E-18	0.000000E+00
5.297869E+03	4.099701E-18	0.000000E+00
5.307772E+03	4.145547E-18	0.000000E+00
5.317674E+03	4.191766E-18	0.000000E+00
5.327577E+03	4.238335E-18	0.000000E+00
5.337479E+03	4.285184E-18	0.000000E+00
5.347382E+03	4.332366E-18	0.000000E+00
5.357284E+03	4.379804E-18	0.000000E+00
5.367187E+03	4.427419E-18	0.000000E+00
5.377089E+03	4.475166E-18	0.000000E+00
5.386992E+03	4.523046E-18	0.000000E+00
5.396895E+03	4.570920E-18	0.000000E+00
5.406797E+03	4.618781E-18	0.000000E+00
5.416700E+03	4.666571E-18	0.000000E+00
5.426602E+03	4.714138E-18	0.000000E+00
5.436505E+03	4.761415E-18	0.000000E+00
5.446407E+03	4.808382E-18	0.000000E+00
5.456310E+03	4.854916E-18	0.000000E+00
5.466212E+03	4.900891E-18	0.000000E+00
5.476115E+03	4.946176E-18	0.000000E+00
5.486018E+03	4.990783E-18	0.000000E+00
5.495920E+03	5.034471E-18	0.000000E+00
5.505823E+03	5.077198E-18	0.000000E+00
5.515725E+03	5.118815E-18	0.000000E+00
5.525628E+03	5.159220E-18	0.000000E+00
5.535530E+03	5.198314E-18	0.000000E+00
5.545433E+03	5.235939E-18	0.000000E+00
5.555335E+03	5.272044E-18	0.000000E+00
5.565238E+03	5.306475E-18	0.000000E+00
5.575141E+03	5.339073E-18	0.000000E+00
5.585043E+03	5.369847E-18	0.000000E+00
5.594946E+03	5.398649E-18	0.000000E+00
5.604848E+03	5.425328E-18	0.000000E+00
5.614751E+03	5.449856E-18	0.000000E+00
5.624653E+03	5.472207E-18	0.000000E+00
5.634556E+03	5.492196E-18	0.000000E+00
5.644459E+03	5.509814E-18	0.000000E+00
5.654361E+03	5.525061E-18	0.000000E+00
5.664264E+03	5.537831E-18	0.000000E+00
5.674166E+03	5.548141E-18	0.000000E+00
5.684069E+03	5.555900E-18	0.000000E+00
5.693971E+03	5.561144E-18	0.000000E+00
5.703874E+03	5.563857E-18	0.000000E+00
5.713776E+03	5.564093E-18	0.000000E+00
5.723679E+03	5.561733E-18	0.000000E+00
5.733582E+03	5.556966E-18	0.000000E+00
5.743484E+03	5.549691E-18	0.000000E+00
5.753387E+03	5.539994E-18	0.000000E+00
5.763289E+03	5.527909E-18	0.000000E+00
5.773192E+03	5.513477E-18	0.000000E+00
5.783094E+03	5.496812E-18	0.000000E+00
5.792997E+03	5.477971E-18	0.000000E+00
5.802899E+03	5.457020E-18	0.000000E+00
5.812802E+03	5.433975E-18	0.000000E+00
5.822705E+03	5.409038E-18	0.000000E+00
5.832607E+03	5.382235E-18	0.000000E+00
5.842510E+03	5.353722E-18	0.000000E+00
5.852412E+03	5.323533E-18	0.000000E+00
5.862315E+03	5.291833E-18	0.000000E+00
5.872217E+03	5.258724E-18	0.000000E+00
5.882120E+03	5.224309E-18	0.000000E+00
5.892022E+03	5.188696E-18	0.000000E+00
5.901925E+03	5.151988E-18	0.000000E+00
5.911828E+03	5.114348E-18	0.000000E+00
5.921730E+03	5.075758E-18	0.000000E+00
5.931633E+03	5.036435E-18	0.000000E+00
5.941535E+03	4.996416E-18	0.000000E+00
5.951438E+03	4.955796E-18	0.000000E+00
5.961340E+03	4.914721E-18	0.000000E+00
5.971243E+03	4.873161E-18	0.000000E+00
5.981146E+03	4.831314E-18	0.000000E+00
5.991048E+03	4.789145E-18	0.000000E+00
6.000951E+03	4.746786E-18	0.000000E+00
6.010853E+03	4.704308E-18	0.000000E+00
6.020756E+03	4.661721E-18	0.000000E+00
6.030658E+03	4.619091E-18	0.000000E+00
6.040561E+03	4.576478E-18	0.000000E+00
6.050463E+03	4.533938E-18	0.000000E+00
6.060366E+03	4.491527E-18	0.000000E+00
6.070269E+03	4.449292E-18	0.000000E+00
6.080171E+03	4.407281E-18	0.000000E+00
6.090074E+03	4.365538E-18	0.000000E+00
6.099976E+03	4.324156E-18	0.000000E+00
6.109879E+03	4.283227E-18	0.000000E+00
6.119781E+03	4.242841E-18	0.000000E+00
6.129684E+03	4.203024E-18	0.000000E+00
6.139586E+03	4.163804E-18	0.000000E+00
6.149489E+03	4.125151E-18	0.000000E+00
6.159392E+03	4.087087E-18	0.000000E+00
6.169294E+03	4.049632E-18	0.000000E+00
6.179197E+03	4.012751E-18	0.000000E+00
6.189099E+03	3.976513E-18	0.000000E+00
6.199002E+03	3.941038E-18	0.000000E+00
6.208904E+03	3.906285E-18	0.000000E+00
6.218807E+03	3.872316E-18	0.000000E+00
6.228709E+03	3.839244E-18	0.000000E+00
6.238612E+03	3.807024E-18	0.000000E+00
6.248515E+03	3.775817E-18	0.000000E+00
6.258417E+03	3.745679E-18	0.000000E+00
6.268320E+03	3.716561E-18	0.000000E+00
6.278222E+03	3.688618E-18	0.000000E+00
6.288125E+03	3.661907E-18	0.000000E+00
6.298027E+03	3.636422E-18	0.000000E+00
6.307930E+03	3.612219E-18	0.000000E+00
6.317833E+03	3.589452E-18	0.000000E+00
6.327735E+03	3.568067E-18	0.000000E+00
6.337638E+03	3.548114E-18	0.000000E+00
6.347540E+03	3.529700E-18	0.000000E+00
6.357443E+03	3.512666E-18	0.000000E+00
6.367345E+03	3.496906E-18	0.000000E+00
6.377248E+03	3.482368E-18	0.000000E+00
6.387150E+03	3.468999E-18	0.000000E+00
6.397053E+03	3.456696E-18	0.000000E+00
6.406956E+03	3.445457E-18	0.000000E+00
6.416858E+03	3.435230E-18	0.000000E+00
6.426761E+03	3.426016E-18	0.000000E+00
6.436663E+03	3.417759E-18	0.000000E+00
6.446566E+03	3.410463E-18	0.000000E+00
6.456468E+03	3.404124E-18	0.000000E+00
6.466371E+03	3.398691E-18	0.000000E+00
6.476273E+03	3.394216E-18	0.000000E+00
6.486176E+03	3.390700E-18	0.000000E+00
6.496079E+03	3.388090E-18	0.000000E+00
6.505981E+03	3.386439E-18	0.000000E+00
6.515884E+03	3.385694E-18	0.000000E+00
6.525786E+03	3.385854E-18	0.000000E+00
6.535689E+03	3.386975E-18	0.000000E+00
6.545591E+03	3.388947E-18	0.000000E+00
6.555494E+03	3.391936E-18	0.000000E+00
6.565396E+03	3.395778E-18	0.000000E+00
6.575299E+03	3.400583E-18	0.000000E+00
6.585202E+03	3.406298E-18	0.000000E+00
6.595104E+03	3.412922E-18	0.000000E+00
6.605007E+03	3.420516E-18	0.000000E+00
6.614909E+03	3.429021E-18	0.000000E+00
6.624812E+03	3.438440E-18	0.000000E+00
6.634714E+03	3.448774E-18	0.000000E+00
6.644617E+03	3.460083E-18	0.000000E+00
6.654520E+03	3.472251E-18	0.000000E+00
6.664422E+03	3.485400E-18	0.000000E+00
6.674325E+03	3.499470E-18	0.000000E+00
6.684227E+03	3.514463E-18	0.000000E+00
6.694130E+03	3.530383E-18	0.000000E+00
6.704032E+03	3.547230E-18	0.000000E+00
6.713935E+03	3.565070E-18	0.000000E+00
6.723837E+03	3.583779E-18	0.000000E+00
6.733740E+03	3.603423E-18	0.000000E+00
6.743643E+03	3.624003E-18	0.000000E+00
6.753545E+03	3.645522E-18	0.000000E+00
6.763448E+03	3.667981E-18	0.000000E+00
6.773350E+03	3.691384E-18	0.000000E+00
6.783253E+03	3.715732E-18	0.000000E+00
6.793155E+03	3.740960E-18	0.000000E+00
6.803058E+03	3.767135E-18	0.000000E+00
6.812960E+03	3.794262E-18	0.000000E+00
6.822863E+03	3.822269E-18	0.000000E+00
6.832766E+03	3.851229E-18	0.000000E+00
6.842668E+03	3.881143E-18	0.000000E+00
6.852571E+03	3.911941E-18	0.000000E+00
6.862473E+03	3.943621E-18	0.000000E+00
6.872376E+03	3.976257E-18	0.000000E+00
6.882278E+03	4.009776E-18	0.000000E+00
6.892181E+03	4.044176E-18	0.000000E+00
6.902083E+03	4.079534E-18	0.000000E+00
6.911986E+03	4.115774E-18	0.000000E+00
6.921889E+03	4.152895E-18	0.000000E+00
6.931791E+03	4.190816E-18	0.000000E+00
6.941694E+03	4.229696E-18	0.000000E+00
6.951596E+03	4.269455E-18	0.000000E+00
6.961499E+03	4.310094E-18	0.000000E+00
6.971401E+03	4.351524E-18	0.000000E+00
6.981304E+03	4.393833E-18	0.000000E+00
6.991207E+03	4.436930E-18	0.000000E+00
7.001109E+03	4.480990E-18	0.000000E+00
7.011012E+03	4.525746E-18	0.000000E+00
7.020914E+03	4.571375E-18	0.000000E+00
7.030817E+03	4.617785E-18	0.000000E+00
7.040719E+03	4.665065E-18	0.000000E+00
7.050622E+03	4.713026E-18	0.000000E+00
7.060524E+03	4.761855E-18	0.000000E+00
7.070427E+03	4.811355E-18	0.000000E+00
7.080330E+03	4.861619E-18	0.000000E+00
7.090232E+03	4.912643E-18	0.000000E+00
7.100135E+03	4.964425E-18	0.000000E+00
7.110037E+03	5.016857E-18	0.000000E+00
7.119940E+03	5.069929E-18	0.000000E+00
7.129842E+03	5.123742E-18	0.000000E+00
7.139745E+03	5.178183E-18	0.000000E+00
7.149647E+03	5.233354E-18	0.000000E+00
7.159550E+03	5.289025E-18	0.000000E+00
7.169453E+03	5.345409E-18	0.000000E+00
7.179355E+03	5.402388E-18	0.000000E+00
7.189258E+03	5.459948E-18	0.000000E+00
7.199160E+03	5.518080E-18	0.000000E+00
7.209063E+03	5.576772E-18	0.000000E+00
7.218965E+03	5.636012E-18	0.000000E+00
7.228868E+03	5.695912E-18	0.000000E+00
7.238770E+03	5.756207E-18	0.000000E+00
7.248673E+03	5.817268E-18	0.000000E+00
7.258576E+03	5.878956E-18	0.000000E+00
7.268478E+03	5.941129E-18	0.000000E+00
7.278381E+03	6.004176E-18	0.000000E+00
7.288283E+03	6.067820E-18	0.000000E+00
7.298186E+03	6.132470E-18	0.000000E+00
7.308088E+03	6.197987E-18	0.000000E+00
7.317991E+03	6.264512E-18	0.000000E+00
7.327894E+03	6.332200E-18	0.000000E+00
7.337796E+03	6.401058E-18	0.000000E+00
7.347699E+03	6.471401E-18	0.000000E+00
7.357601E+03	6.543408E-18	0.000000E+00
7.367504E+03	6.616953E-18	0.000000E+00
7.377406E+03	6.692063E-18	0.000000E+00
7.387309E+03	6.768762E-18	0.000000E+00
7.397211E+03	6.846914E-18	0.000000E+00
7.407114E+03	6.926370E-18	0.000000E+00
7.417017E+03	7.006973E-18	0.000000E+00
7.426919E+03	7.088725E-18	0.000000E+00
7.436822E+03	7.171455E-18	0.000000E+00
7.446724E+03	7.254981E-18	0.000000E+00
7.456627E+03	7.339468E-18	0.000000E+00
7.466529E+03	7.424543E-18	0.000000E+00
7.476432E+03	7.510183E-18	0.000000E+00
7.486334E+03	7.596362E-18	0.000000E+00
7.496237E+03	7.683052E-18	0.000000E+00
7.506140E+03	7.770226E-18	0.000000E+00
7.516042E+03	7.857657E-18	0.000000E+00
7.525945E+03	7.945304E-18	0.000000E+00
7.535847E+03	8.033325E-18	0.000000E+00
7.545750E+03	8.121479E-18	0.000000E+00
7.555652E+03	8.209925E-18	0.000000E+00
7.565555E+03	8.298195E-18	0.000000E+00
7.575457E+03	8.386664E-18	0.000000E+00
7.585360E+03	8.475053E-18	0.000000E+00
7.595263E+03	8.563305E-18	0.000000E+00
7.605165E+03	8.651344E-18	0.000000E+00
7.615068E+03	8.739351E-18	0.000000E+00
7.624970E+03	8.827006E-18	0.000000E+00
7.634873E+03	8.914250E-18	0.000000E+00
7.644775E+03	9.001230E-18	0.000000E+00
7.654678E+03	9.087872E-18	0.000000E+00
7.664581E+03	9.173862E-18	0.000000E+00
7.674483E+03	9.259348E-18	0.000000E+00
7.684386E+03	9.344262E-18	0.000000E+00
