#wls	flux	fluxerr
1.584409E+03	6.445005E-17	0.000000E+00
1.624020E+03	6.735721E-17	0.000000E+00
1.663630E+03	7.009836E-17	0.000000E+00
1.703240E+03	7.262927E-17	0.000000E+00
1.742850E+03	7.490925E-17	0.000000E+00
1.782461E+03	7.686184E-17	0.000000E+00
1.822071E+03	7.839540E-17	0.000000E+00
1.861681E+03	7.940403E-17	0.000000E+00
1.901291E+03	7.976922E-17	0.000000E+00
1.940902E+03	7.939644E-17	0.000000E+00
1.980512E+03	7.825475E-17	0.000000E+00
2.020122E+03	7.644983E-17	0.000000E+00
2.059732E+03	7.429283E-17	0.000000E+00
2.099342E+03	7.231041E-17	0.000000E+00
2.138953E+03	7.106693E-17	0.000000E+00
2.178563E+03	7.090108E-17	0.000000E+00
2.218173E+03	7.172688E-17	0.000000E+00
2.257783E+03	7.311901E-17	0.000000E+00
2.297394E+03	7.458587E-17	0.000000E+00
2.337004E+03	7.573288E-17	0.000000E+00
2.376614E+03	7.631232E-17	0.000000E+00
2.416224E+03	7.621003E-17	0.000000E+00
2.455835E+03	7.540465E-17	0.000000E+00
2.495445E+03	7.393379E-17	0.000000E+00
2.535055E+03	7.185539E-17	0.000000E+00
2.574665E+03	6.924606E-17	0.000000E+00
2.614276E+03	6.618013E-17	0.000000E+00
2.653886E+03	6.272878E-17	0.000000E+00
2.693496E+03	5.896913E-17	0.000000E+00
2.733106E+03	5.497192E-17	0.000000E+00
2.772716E+03	5.080721E-17	0.000000E+00
2.812327E+03	4.654299E-17	0.000000E+00
2.851937E+03	4.224778E-17	0.000000E+00
2.891547E+03	3.799467E-17	0.000000E+00
2.931157E+03	3.385891E-17	0.000000E+00
2.970768E+03	2.990476E-17	0.000000E+00
2.980670E+03	2.895061E-17	0.000000E+00
2.990573E+03	2.801277E-17	0.000000E+00
3.000475E+03	2.709029E-17	0.000000E+00
3.010378E+03	2.618427E-17	0.000000E+00
3.020280E+03	2.529626E-17	0.000000E+00
3.030183E+03	2.442544E-17	0.000000E+00
3.040086E+03	2.357355E-17	0.000000E+00
3.049988E+03	2.274175E-17	0.000000E+00
3.059891E+03	2.193107E-17	0.000000E+00
3.069793E+03	2.114131E-17	0.000000E+00
3.079696E+03	2.037317E-17	0.000000E+00
3.089598E+03	1.962603E-17	0.000000E+00
3.099501E+03	1.890020E-17	0.000000E+00
3.109403E+03	1.819555E-17	0.000000E+00
3.119306E+03	1.751199E-17	0.000000E+00
3.129209E+03	1.684975E-17	0.000000E+00
3.139111E+03	1.620898E-17	0.000000E+00
3.149014E+03	1.558888E-17	0.000000E+00
3.158916E+03	1.499015E-17	0.000000E+00
3.168819E+03	1.441222E-17	0.000000E+00
3.178721E+03	1.385506E-17	0.000000E+00
3.188624E+03	1.331834E-17	0.000000E+00
3.198526E+03	1.280148E-17	0.000000E+00
3.208429E+03	1.230474E-17	0.000000E+00
3.218332E+03	1.182709E-17	0.000000E+00
3.228234E+03	1.136867E-17	0.000000E+00
3.238137E+03	1.092899E-17	0.000000E+00
3.248039E+03	1.050721E-17	0.000000E+00
3.257942E+03	1.010333E-17	0.000000E+00
3.267844E+03	9.716496E-18	0.000000E+00
3.277747E+03	9.346344E-18	0.000000E+00
3.287650E+03	8.992338E-18	0.000000E+00
3.297552E+03	8.654060E-18	0.000000E+00
3.307455E+03	8.330841E-18	0.000000E+00
3.317357E+03	8.022136E-18	0.000000E+00
3.327260E+03	7.727422E-18	0.000000E+00
3.337162E+03	7.446286E-18	0.000000E+00
3.347065E+03	7.178093E-18	0.000000E+00
3.356967E+03	6.922344E-18	0.000000E+00
3.366870E+03	6.678543E-18	0.000000E+00
3.376773E+03	6.446139E-18	0.000000E+00
3.386675E+03	6.224662E-18	0.000000E+00
3.396578E+03	6.013680E-18	0.000000E+00
3.406480E+03	5.812688E-18	0.000000E+00
3.416383E+03	5.621280E-18	0.000000E+00
3.426285E+03	5.438998E-18	0.000000E+00
3.436188E+03	5.265408E-18	0.000000E+00
3.446090E+03	5.100101E-18	0.000000E+00
3.455993E+03	4.942632E-18	0.000000E+00
3.465896E+03	4.792695E-18	0.000000E+00
3.475798E+03	4.649892E-18	0.000000E+00
3.485701E+03	4.513800E-18	0.000000E+00
3.495603E+03	4.383987E-18	0.000000E+00
3.505506E+03	4.260188E-18	0.000000E+00
3.515408E+03	4.142023E-18	0.000000E+00
3.525311E+03	4.029062E-18	0.000000E+00
3.535213E+03	3.921032E-18	0.000000E+00
3.545116E+03	3.817638E-18	0.000000E+00
3.555019E+03	3.718574E-18	0.000000E+00
3.564921E+03	3.623520E-18	0.000000E+00
3.574824E+03	3.532320E-18	0.000000E+00
3.584726E+03	3.444752E-18	0.000000E+00
3.594629E+03	3.360611E-18	0.000000E+00
3.604531E+03	3.279851E-18	0.000000E+00
3.614434E+03	3.202331E-18	0.000000E+00
3.624337E+03	3.127938E-18	0.000000E+00
3.634239E+03	3.056588E-18	0.000000E+00
3.644142E+03	2.988193E-18	0.000000E+00
3.654044E+03	2.922636E-18	0.000000E+00
3.663947E+03	2.859877E-18	0.000000E+00
3.673849E+03	2.799773E-18	0.000000E+00
3.683752E+03	2.742256E-18	0.000000E+00
3.693654E+03	2.687277E-18	0.000000E+00
3.703557E+03	2.634674E-18	0.000000E+00
3.713460E+03	2.584444E-18	0.000000E+00
3.723362E+03	2.536431E-18	0.000000E+00
3.733265E+03	2.490608E-18	0.000000E+00
3.743167E+03	2.446886E-18	0.000000E+00
3.753070E+03	2.405180E-18	0.000000E+00
3.762972E+03	2.365425E-18	0.000000E+00
3.772875E+03	2.327541E-18	0.000000E+00
3.782777E+03	2.291466E-18	0.000000E+00
3.792680E+03	2.257145E-18	0.000000E+00
3.802583E+03	2.224504E-18	0.000000E+00
3.812485E+03	2.193489E-18	0.000000E+00
3.822388E+03	2.164049E-18	0.000000E+00
3.832290E+03	2.136120E-18	0.000000E+00
3.842193E+03	2.109655E-18	0.000000E+00
3.852095E+03	2.084611E-18	0.000000E+00
3.861998E+03	2.060927E-18	0.000000E+00
3.871900E+03	2.038564E-18	0.000000E+00
3.881803E+03	2.017467E-18	0.000000E+00
3.891706E+03	1.997615E-18	0.000000E+00
3.901608E+03	1.978955E-18	0.000000E+00
3.911511E+03	1.961453E-18	0.000000E+00
3.921413E+03	1.945047E-18	0.000000E+00
3.931316E+03	1.929733E-18	0.000000E+00
3.941218E+03	1.915452E-18	0.000000E+00
3.951121E+03	1.902173E-18	0.000000E+00
3.961024E+03	1.889853E-18	0.000000E+00
3.970926E+03	1.878480E-18	0.000000E+00
3.980829E+03	1.867999E-18	0.000000E+00
3.990731E+03	1.858398E-18	0.000000E+00
4.000634E+03	1.849626E-18	0.000000E+00
4.010536E+03	1.841674E-18	0.000000E+00
4.020439E+03	1.834492E-18	0.000000E+00
4.030341E+03	1.828059E-18	0.000000E+00
4.040244E+03	1.822357E-18	0.000000E+00
4.050147E+03	1.817366E-18	0.000000E+00
4.060049E+03	1.813041E-18	0.000000E+00
4.069952E+03	1.809365E-18	0.000000E+00
4.079854E+03	1.806312E-18	0.000000E+00
4.089757E+03	1.803865E-18	0.000000E+00
4.099659E+03	1.802010E-18	0.000000E+00
4.109562E+03	1.800709E-18	0.000000E+00
4.119464E+03	1.799964E-18	0.000000E+00
4.129367E+03	1.799736E-18	0.000000E+00
4.139270E+03	1.800015E-18	0.000000E+00
4.149172E+03	1.800794E-18	0.000000E+00
4.159075E+03	1.802036E-18	0.000000E+00
4.168977E+03	1.803735E-18	0.000000E+00
4.178880E+03	1.805870E-18	0.000000E+00
4.188782E+03	1.808450E-18	0.000000E+00
4.198685E+03	1.811428E-18	0.000000E+00
4.208587E+03	1.814815E-18	0.000000E+00
4.218490E+03	1.818578E-18	0.000000E+00
4.228393E+03	1.822730E-18	0.000000E+00
4.238295E+03	1.827226E-18	0.000000E+00
4.248198E+03	1.832064E-18	0.000000E+00
4.258100E+03	1.837242E-18	0.000000E+00
4.268003E+03	1.842718E-18	0.000000E+00
4.277905E+03	1.848504E-18	0.000000E+00
4.287808E+03	1.854541E-18	0.000000E+00
4.297711E+03	1.860845E-18	0.000000E+00
4.307613E+03	1.867340E-18	0.000000E+00
4.317516E+03	1.874026E-18	0.000000E+00
4.327418E+03	1.880945E-18	0.000000E+00
4.337321E+03	1.888099E-18	0.000000E+00
4.347223E+03	1.895503E-18	0.000000E+00
4.357126E+03	1.903156E-18	0.000000E+00
4.367028E+03	1.911032E-18	0.000000E+00
4.376931E+03	1.919161E-18	0.000000E+00
4.386834E+03	1.927518E-18	0.000000E+00
4.396736E+03	1.936103E-18	0.000000E+00
4.406639E+03	1.944906E-18	0.000000E+00
4.416541E+03	1.953929E-18	0.000000E+00
4.426444E+03	1.963148E-18	0.000000E+00
4.436346E+03	1.972581E-18	0.000000E+00
4.446249E+03	1.982206E-18	0.000000E+00
4.456151E+03	1.992011E-18	0.000000E+00
4.466054E+03	2.002023E-18	0.000000E+00
4.475957E+03	2.012201E-18	0.000000E+00
4.485859E+03	2.022555E-18	0.000000E+00
4.495762E+03	2.033099E-18	0.000000E+00
4.505664E+03	2.043811E-18	0.000000E+00
4.515567E+03	2.054707E-18	0.000000E+00
4.525469E+03	2.065769E-18	0.000000E+00
4.535372E+03	2.077012E-18	0.000000E+00
4.545274E+03	2.088438E-18	0.000000E+00
4.555177E+03	2.100048E-18	0.000000E+00
4.565080E+03	2.111827E-18	0.000000E+00
4.574982E+03	2.123812E-18	0.000000E+00
4.584885E+03	2.135969E-18	0.000000E+00
4.594787E+03	2.148321E-18	0.000000E+00
4.604690E+03	2.160870E-18	0.000000E+00
4.614592E+03	2.173600E-18	0.000000E+00
4.624495E+03	2.186552E-18	0.000000E+00
4.634398E+03	2.199692E-18	0.000000E+00
4.644300E+03	2.213042E-18	0.000000E+00
4.654203E+03	2.226644E-18	0.000000E+00
4.664105E+03	2.240483E-18	0.000000E+00
4.674008E+03	2.254584E-18	0.000000E+00
4.683910E+03	2.268971E-18	0.000000E+00
4.693813E+03	2.283649E-18	0.000000E+00
4.703715E+03	2.298624E-18	0.000000E+00
4.713618E+03	2.313944E-18	0.000000E+00
4.723521E+03	2.329573E-18	0.000000E+00
4.733423E+03	2.345560E-18	0.000000E+00
4.743326E+03	2.361911E-18	0.000000E+00
4.753228E+03	2.378614E-18	0.000000E+00
4.763131E+03	2.395720E-18	0.000000E+00
4.773033E+03	2.413214E-18	0.000000E+00
4.782936E+03	2.431108E-18	0.000000E+00
4.792838E+03	2.449409E-18	0.000000E+00
4.802741E+03	2.468128E-18	0.000000E+00
4.812644E+03	2.487321E-18	0.000000E+00
4.822546E+03	2.506932E-18	0.000000E+00
4.832449E+03	2.527017E-18	0.000000E+00
4.842351E+03	2.547566E-18	0.000000E+00
4.852254E+03	2.568613E-18	0.000000E+00
4.862156E+03	2.590149E-18	0.000000E+00
4.872059E+03	2.612186E-18	0.000000E+00
4.881961E+03	2.634760E-18	0.000000E+00
4.891864E+03	2.657836E-18	0.000000E+00
4.901767E+03	2.681450E-18	0.000000E+00
4.911669E+03	2.705613E-18	0.000000E+00
4.921572E+03	2.730338E-18	0.000000E+00
4.931474E+03	2.755611E-18	0.000000E+00
4.941377E+03	2.781442E-18	0.000000E+00
4.951279E+03	2.807867E-18	0.000000E+00
4.961182E+03	2.834844E-18	0.000000E+00
4.971085E+03	2.862435E-18	0.000000E+00
4.980987E+03	2.890594E-18	0.000000E+00
4.990890E+03	2.919330E-18	0.000000E+00
5.000792E+03	2.948676E-18	0.000000E+00
5.010695E+03	2.978612E-18	0.000000E+00
5.020597E+03	3.009143E-18	0.000000E+00
5.030500E+03	3.040246E-18	0.000000E+00
5.040402E+03	3.071954E-18	0.000000E+00
5.050305E+03	3.104270E-18	0.000000E+00
5.060208E+03	3.137140E-18	0.000000E+00
5.070110E+03	3.170595E-18	0.000000E+00
5.080013E+03	3.204637E-18	0.000000E+00
5.089915E+03	3.239270E-18	0.000000E+00
5.099818E+03	3.274465E-18	0.000000E+00
5.109720E+03	3.310222E-18	0.000000E+00
5.119623E+03	3.346511E-18	0.000000E+00
5.129525E+03	3.383399E-18	0.000000E+00
5.139428E+03	3.420824E-18	0.000000E+00
5.149331E+03	3.458786E-18	0.000000E+00
5.159233E+03	3.497287E-18	0.000000E+00
5.169136E+03	3.536362E-18	0.000000E+00
5.179038E+03	3.575944E-18	0.000000E+00
5.188941E+03	3.616033E-18	0.000000E+00
5.198843E+03	3.656697E-18	0.000000E+00
5.208746E+03	3.697830E-18	0.000000E+00
5.218648E+03	3.739501E-18	0.000000E+00
5.228551E+03	3.781668E-18	0.000000E+00
5.238454E+03	3.824326E-18	0.000000E+00
5.248356E+03	3.867509E-18	0.000000E+00
5.258259E+03	3.911130E-18	0.000000E+00
5.268161E+03	3.955219E-18	0.000000E+00
5.278064E+03	3.999763E-18	0.000000E+00
5.287966E+03	4.044749E-18	0.000000E+00
5.297869E+03	4.090202E-18	0.000000E+00
5.307772E+03	4.136022E-18	0.000000E+00
5.317674E+03	4.182229E-18	0.000000E+00
5.327577E+03	4.228798E-18	0.000000E+00
5.337479E+03	4.275658E-18	0.000000E+00
5.347382E+03	4.322866E-18	0.000000E+00
5.357284E+03	4.370343E-18	0.000000E+00
5.367187E+03	4.418009E-18	0.000000E+00
5.377089E+03	4.465822E-18	0.000000E+00
5.386992E+03	4.513781E-18	0.000000E+00
5.396895E+03	4.561747E-18	0.000000E+00
5.406797E+03	4.609714E-18	0.000000E+00
5.416700E+03	4.657623E-18	0.000000E+00
5.426602E+03	4.705323E-18	0.000000E+00
5.436505E+03	4.752747E-18	0.000000E+00
5.446407E+03	4.799872E-18	0.000000E+00
5.456310E+03	4.846579E-18	0.000000E+00
5.466212E+03	4.892739E-18	0.000000E+00
5.476115E+03	4.938220E-18	0.000000E+00
5.486018E+03	4.983034E-18	0.000000E+00
5.495920E+03	5.026939E-18	0.000000E+00
5.505823E+03	5.069890E-18	0.000000E+00
5.515725E+03	5.111735E-18	0.000000E+00
5.525628E+03	5.152375E-18	0.000000E+00
5.535530E+03	5.191702E-18	0.000000E+00
5.545433E+03	5.229559E-18	0.000000E+00
5.555335E+03	5.265893E-18	0.000000E+00
5.565238E+03	5.300541E-18	0.000000E+00
5.575141E+03	5.333346E-18	0.000000E+00
5.585043E+03	5.364311E-18	0.000000E+00
5.594946E+03	5.393284E-18	0.000000E+00
5.604848E+03	5.420112E-18	0.000000E+00
5.614751E+03	5.444762E-18	0.000000E+00
5.624653E+03	5.467210E-18	0.000000E+00
5.634556E+03	5.487265E-18	0.000000E+00
5.644459E+03	5.504918E-18	0.000000E+00
5.654361E+03	5.520167E-18	0.000000E+00
5.664264E+03	5.532906E-18	0.000000E+00
5.674166E+03	5.543152E-18	0.000000E+00
5.684069E+03	5.550814E-18	0.000000E+00
5.693971E+03	5.555928E-18	0.000000E+00
5.703874E+03	5.558479E-18	0.000000E+00
5.713776E+03	5.558520E-18	0.000000E+00
5.723679E+03	5.555934E-18	0.000000E+00
5.733582E+03	5.550909E-18	0.000000E+00
5.743484E+03	5.543344E-18	0.000000E+00
5.753387E+03	5.533324E-18	0.000000E+00
5.763289E+03	5.520883E-18	0.000000E+00
5.773192E+03	5.506066E-18	0.000000E+00
5.783094E+03	5.488981E-18	0.000000E+00
5.792997E+03	5.469692E-18	0.000000E+00
5.802899E+03	5.448264E-18	0.000000E+00
5.812802E+03	5.424715E-18	0.000000E+00
5.822705E+03	5.399248E-18	0.000000E+00
5.832607E+03	5.371896E-18	0.000000E+00
5.842510E+03	5.342814E-18	0.000000E+00
5.852412E+03	5.312046E-18	0.000000E+00
5.862315E+03	5.279755E-18	0.000000E+00
5.872217E+03	5.246050E-18	0.000000E+00
5.882120E+03	5.211039E-18	0.000000E+00
5.892022E+03	5.174832E-18	0.000000E+00
5.901925E+03	5.137534E-18	0.000000E+00
5.911828E+03	5.099312E-18	0.000000E+00
5.921730E+03	5.060151E-18	0.000000E+00
5.931633E+03	5.020270E-18	0.000000E+00
5.941535E+03	4.979708E-18	0.000000E+00
5.951438E+03	4.938559E-18	0.000000E+00
5.961340E+03	4.896973E-18	0.000000E+00
5.971243E+03	4.854920E-18	0.000000E+00
5.981146E+03	4.812598E-18	0.000000E+00
5.991048E+03	4.769974E-18	0.000000E+00
6.000951E+03	4.727179E-18	0.000000E+00
6.010853E+03	4.684285E-18	0.000000E+00
6.020756E+03	4.641305E-18	0.000000E+00
6.030658E+03	4.598301E-18	0.000000E+00
6.040561E+03	4.555334E-18	0.000000E+00
6.050463E+03	4.512463E-18	0.000000E+00
6.060366E+03	4.469739E-18	0.000000E+00
6.070269E+03	4.427214E-18	0.000000E+00
6.080171E+03	4.384934E-18	0.000000E+00
6.090074E+03	4.342940E-18	0.000000E+00
6.099976E+03	4.301329E-18	0.000000E+00
6.109879E+03	4.260191E-18	0.000000E+00
6.119781E+03	4.219612E-18	0.000000E+00
6.129684E+03	4.179622E-18	0.000000E+00
6.139586E+03	4.140247E-18	0.000000E+00
6.149489E+03	4.101457E-18	0.000000E+00
6.159392E+03	4.063275E-18	0.000000E+00
6.169294E+03	4.025718E-18	0.000000E+00
6.179197E+03	3.988752E-18	0.000000E+00
6.189099E+03	3.952446E-18	0.000000E+00
6.199002E+03	3.916919E-18	0.000000E+00
6.208904E+03	3.882130E-18	0.000000E+00
6.218807E+03	3.848139E-18	0.000000E+00
6.228709E+03	3.815059E-18	0.000000E+00
6.238612E+03	3.782845E-18	0.000000E+00
6.248515E+03	3.751656E-18	0.000000E+00
6.258417E+03	3.721548E-18	0.000000E+00
6.268320E+03	3.692471E-18	0.000000E+00
6.278222E+03	3.664580E-18	0.000000E+00
6.288125E+03	3.637929E-18	0.000000E+00
6.298027E+03	3.612514E-18	0.000000E+00
6.307930E+03	3.588389E-18	0.000000E+00
6.317833E+03	3.565706E-18	0.000000E+00
6.327735E+03	3.544412E-18	0.000000E+00
6.337638E+03	3.524559E-18	0.000000E+00
6.347540E+03	3.506247E-18	0.000000E+00
6.357443E+03	3.489321E-18	0.000000E+00
6.367345E+03	3.473676E-18	0.000000E+00
6.377248E+03	3.459260E-18	0.000000E+00
6.387150E+03	3.446019E-18	0.000000E+00
6.397053E+03	3.433850E-18	0.000000E+00
6.406956E+03	3.422752E-18	0.000000E+00
6.416858E+03	3.412673E-18	0.000000E+00
6.426761E+03	3.403614E-18	0.000000E+00
6.436663E+03	3.395519E-18	0.000000E+00
6.446566E+03	3.388391E-18	0.000000E+00
6.456468E+03	3.382228E-18	0.000000E+00
6.466371E+03	3.376978E-18	0.000000E+00
6.476273E+03	3.372692E-18	0.000000E+00
6.486176E+03	3.369371E-18	0.000000E+00
6.496079E+03	3.366962E-18	0.000000E+00
6.505981E+03	3.365520E-18	0.000000E+00
6.515884E+03	3.364989E-18	0.000000E+00
6.525786E+03	3.365369E-18	0.000000E+00
6.535689E+03	3.366718E-18	0.000000E+00
6.545591E+03	3.368924E-18	0.000000E+00
6.555494E+03	3.372153E-18	0.000000E+00
6.565396E+03	3.376241E-18	0.000000E+00
6.575299E+03	3.381299E-18	0.000000E+00
6.585202E+03	3.387274E-18	0.000000E+00
6.595104E+03	3.394164E-18	0.000000E+00
6.605007E+03	3.402029E-18	0.000000E+00
6.614909E+03	3.410814E-18	0.000000E+00
6.624812E+03	3.420519E-18	0.000000E+00
6.634714E+03	3.431146E-18	0.000000E+00
6.644617E+03	3.442756E-18	0.000000E+00
6.654520E+03	3.455232E-18	0.000000E+00
6.664422E+03	3.468695E-18	0.000000E+00
6.674325E+03	3.483089E-18	0.000000E+00
6.684227E+03	3.498414E-18	0.000000E+00
6.694130E+03	3.514673E-18	0.000000E+00
6.704032E+03	3.531868E-18	0.000000E+00
6.713935E+03	3.550065E-18	0.000000E+00
6.723837E+03	3.569141E-18	0.000000E+00
6.733740E+03	3.589160E-18	0.000000E+00
6.743643E+03	3.610127E-18	0.000000E+00
6.753545E+03	3.632042E-18	0.000000E+00
6.763448E+03	3.654908E-18	0.000000E+00
6.773350E+03	3.678729E-18	0.000000E+00
6.783253E+03	3.703507E-18	0.000000E+00
6.793155E+03	3.729177E-18	0.000000E+00
6.803058E+03	3.755807E-18	0.000000E+00
6.812960E+03	3.783400E-18	0.000000E+00
6.822863E+03	3.811887E-18	0.000000E+00
6.832766E+03	3.841341E-18	0.000000E+00
6.842668E+03	3.871762E-18	0.000000E+00
6.852571E+03	3.903081E-18	0.000000E+00
6.862473E+03	3.935298E-18	0.000000E+00
6.872376E+03	3.968484E-18	0.000000E+00
6.882278E+03	4.002568E-18	0.000000E+00
6.892181E+03	4.037548E-18	0.000000E+00
6.902083E+03	4.073502E-18	0.000000E+00
6.911986E+03	4.110353E-18	0.000000E+00
6.921889E+03	4.148102E-18	0.000000E+00
6.931791E+03	4.186665E-18	0.000000E+00
6.941694E+03	4.226205E-18	0.000000E+00
6.951596E+03	4.266641E-18	0.000000E+00
6.961499E+03	4.307972E-18	0.000000E+00
6.971401E+03	4.350114E-18	0.000000E+00
6.981304E+03	4.393150E-18	0.000000E+00
6.991207E+03	4.436992E-18	0.000000E+00
7.001109E+03	4.481816E-18	0.000000E+00
7.011012E+03	4.527353E-18	0.000000E+00
7.020914E+03	4.573781E-18	0.000000E+00
7.030817E+03	4.621009E-18	0.000000E+00
7.040719E+03	4.669125E-18	0.000000E+00
7.050622E+03	4.717940E-18	0.000000E+00
7.060524E+03	4.767642E-18	0.000000E+00
7.070427E+03	4.818033E-18	0.000000E+00
7.080330E+03	4.869207E-18	0.000000E+00
7.090232E+03	4.921160E-18	0.000000E+00
7.100135E+03	4.973889E-18	0.000000E+00
7.110037E+03	5.027286E-18	0.000000E+00
7.119940E+03	5.081343E-18	0.000000E+00
7.129842E+03	5.136159E-18	0.000000E+00
7.139745E+03	5.191620E-18	0.000000E+00
7.149647E+03	5.247830E-18	0.000000E+00
7.159550E+03	5.304558E-18	0.000000E+00
7.169453E+03	5.362019E-18	0.000000E+00
7.179355E+03	5.420090E-18	0.000000E+00
7.189258E+03	5.478762E-18	0.000000E+00
7.199160E+03	5.538024E-18	0.000000E+00
7.209063E+03	5.597865E-18	0.000000E+00
7.218965E+03	5.658268E-18	0.000000E+00
7.228868E+03	5.719352E-18	0.000000E+00
7.238770E+03	5.780848E-18	0.000000E+00
7.248673E+03	5.843126E-18	0.000000E+00
7.258576E+03	5.906052E-18	0.000000E+00
7.268478E+03	5.969478E-18	0.000000E+00
7.278381E+03	6.033798E-18	0.000000E+00
7.288283E+03	6.098731E-18	0.000000E+00
7.298186E+03	6.164689E-18	0.000000E+00
7.308088E+03	6.231532E-18	0.000000E+00
7.317991E+03	6.299404E-18	0.000000E+00
7.327894E+03	6.368456E-18	0.000000E+00
7.337796E+03	6.438700E-18	0.000000E+00
7.347699E+03	6.510449E-18	0.000000E+00
7.357601E+03	6.583886E-18	0.000000E+00
7.367504E+03	6.658883E-18	0.000000E+00
7.377406E+03	6.735467E-18	0.000000E+00
7.387309E+03	6.813664E-18	0.000000E+00
7.397211E+03	6.893337E-18	0.000000E+00
7.407114E+03	6.974336E-18	0.000000E+00
7.417017E+03	7.056503E-18	0.000000E+00
7.426919E+03	7.139841E-18	0.000000E+00
7.436822E+03	7.224178E-18	0.000000E+00
7.446724E+03	7.309331E-18	0.000000E+00
7.456627E+03	7.395465E-18	0.000000E+00
7.466529E+03	7.482207E-18	0.000000E+00
7.476432E+03	7.569533E-18	0.000000E+00
7.486334E+03	7.657419E-18	0.000000E+00
7.496237E+03	7.745836E-18	0.000000E+00
7.506140E+03	7.834760E-18	0.000000E+00
7.516042E+03	7.923960E-18	0.000000E+00
7.525945E+03	8.013400E-18	0.000000E+00
7.535847E+03	8.103239E-18	0.000000E+00
7.545750E+03	8.193235E-18	0.000000E+00
7.555652E+03	8.283549E-18	0.000000E+00
7.565555E+03	8.373718E-18	0.000000E+00
7.575457E+03	8.464102E-18	0.000000E+00
7.585360E+03	8.554430E-18	0.000000E+00
7.595263E+03	8.644651E-18	0.000000E+00
7.605165E+03	8.734697E-18	0.000000E+00
7.615068E+03	8.824727E-18	0.000000E+00
7.624970E+03	8.914431E-18	0.000000E+00
7.634873E+03	9.003748E-18	0.000000E+00
7.644775E+03	9.092830E-18	0.000000E+00
7.654678E+03	9.181601E-18	0.000000E+00
7.664581E+03	9.269739E-18	0.000000E+00
7.674483E+03	9.357395E-18	0.000000E+00
7.684386E+03	9.444493E-18	0.000000E+00
