#wls	flux	fluxerr
1.584409E+03	4.196574E-18	1.300730E-17
1.624020E+03	4.362004E-18	1.373524E-17
1.663630E+03	4.506766E-18	1.442380E-17
1.703240E+03	4.628344E-18	1.506338E-17
1.742850E+03	4.724782E-18	1.564549E-17
1.782461E+03	4.777341E-18	1.609672E-17
1.822071E+03	4.796021E-18	1.645232E-17
1.861681E+03	4.776348E-18	1.669177E-17
1.901291E+03	4.713650E-18	1.679209E-17
1.940902E+03	4.587285E-18	1.665954E-17
1.980512E+03	4.417662E-18	1.636699E-17
2.020122E+03	4.214328E-18	1.594050E-17
2.059732E+03	3.997214E-18	1.544819E-17
2.099342E+03	3.778135E-18	1.491918E-17
2.138953E+03	3.604626E-18	1.455662E-17
2.178563E+03	3.490166E-18	1.442755E-17
2.218173E+03	3.426035E-18	1.451200E-17
2.257783E+03	3.370187E-18	1.462700E-17
2.297394E+03	3.316903E-18	1.476696E-17
2.337004E+03	3.249142E-18	1.485642E-17
2.376614E+03	3.158314E-18	1.485119E-17
2.416224E+03	3.023696E-18	1.462016E-17
2.455835E+03	2.867607E-18	1.427846E-17
2.495445E+03	2.694516E-18	1.383847E-17
2.535055E+03	2.509091E-18	1.331475E-17
2.574665E+03	2.299748E-18	1.260718E-17
2.614276E+03	2.089318E-18	1.185558E-17
2.653886E+03	1.881234E-18	1.107366E-17
2.693496E+03	1.678553E-18	1.027467E-17
2.733106E+03	1.471638E-18	9.364684E-18
2.772716E+03	1.277143E-18	8.472132E-18
2.812327E+03	1.096416E-18	7.605741E-18
2.851937E+03	9.304558E-19	6.773409E-18
2.891547E+03	7.733231E-19	5.908328E-18
2.931157E+03	6.342635E-19	5.107061E-18
2.970768E+03	5.129616E-19	4.373900E-18
2.980670E+03	4.853226E-19	4.201457E-18
2.990573E+03	4.580815E-19	4.024650E-18
3.000475E+03	4.319221E-19	3.852652E-18
3.010378E+03	4.068316E-19	3.685509E-18
3.020280E+03	3.828032E-19	3.523327E-18
3.030183E+03	3.595285E-19	3.362024E-18
3.040086E+03	3.372928E-19	3.205819E-18
3.049988E+03	3.160799E-19	3.054746E-18
3.059891E+03	2.958701E-19	2.908811E-18
3.069793E+03	2.764075E-19	2.764392E-18
3.079696E+03	2.579113E-19	2.625158E-18
3.089598E+03	2.403409E-19	2.490909E-18
3.099501E+03	2.236681E-19	2.361558E-18
3.109403E+03	2.076818E-19	2.233889E-18
3.119306E+03	1.925489E-19	2.111083E-18
3.129209E+03	1.782417E-19	1.993050E-18
3.139111E+03	1.647317E-19	1.879693E-18
3.149014E+03	1.518367E-19	1.768073E-18
3.158916E+03	1.396967E-19	1.661100E-18
3.168819E+03	1.282780E-19	1.558601E-18
3.178721E+03	1.175527E-19	1.460469E-18
3.188624E+03	1.073745E-19	1.364152E-18
3.198526E+03	9.784316E-20	1.272092E-18
3.208429E+03	8.893487E-20	1.184213E-18
3.218332E+03	8.061667E-20	1.100316E-18
3.228234E+03	7.277206E-20	1.018208E-18
3.238137E+03	6.547820E-20	9.400284E-19
3.248039E+03	5.870615E-20	8.656027E-19
3.257942E+03	5.243299E-20	7.948357E-19
3.267844E+03	4.655722E-20	7.257265E-19
3.277747E+03	4.113868E-20	6.601392E-19
3.287650E+03	3.615321E-20	5.979334E-19
3.297552E+03	3.157807E-20	5.389808E-19
3.307455E+03	2.733069E-20	4.815540E-19
3.317357E+03	2.345609E-20	4.272427E-19
3.327260E+03	1.993315E-20	3.759140E-19
3.337162E+03	1.674185E-20	3.274430E-19
3.347065E+03	1.381417E-20	2.803398E-19
3.356967E+03	1.118509E-20	2.359613E-19
3.366870E+03	8.836410E-21	1.941824E-19
3.376773E+03	6.750707E-21	1.548802E-19
3.386675E+03	4.871564E-21	1.167836E-19
3.396578E+03	3.227100E-21	8.104337E-20
3.406480E+03	1.801982E-21	4.754432E-20
3.416383E+03	5.817102E-22	1.617703E-20
3.426285E+03	-4.816683E-22	-1.413896E-20
3.436188E+03	-1.364290E-21	-4.243457E-20
3.446090E+03	-2.078773E-21	-6.881153E-20
3.455993E+03	-2.637023E-21	-9.336591E-20
3.465896E+03	-3.080865E-21	-1.170050E-19
3.475798E+03	-3.388622E-21	-1.389183E-19
3.485701E+03	-3.570519E-21	-1.591917E-19
3.495603E+03	-3.636174E-21	-1.779040E-19
3.505506E+03	-3.623382E-21	-1.958061E-19
3.515408E+03	-3.511106E-21	-2.122231E-19
3.525311E+03	-3.307607E-21	-2.272209E-19
3.535213E+03	-3.020848E-21	-2.408675E-19
3.545116E+03	-2.686377E-21	-2.537694E-19
3.555019E+03	-2.282837E-21	-2.653740E-19
3.564921E+03	-1.817173E-21	-2.757367E-19
3.574824E+03	-1.296104E-21	-2.849201E-19
3.584726E+03	-7.544227E-22	-2.934100E-19
3.594629E+03	-1.696367E-22	-3.007715E-19
3.604531E+03	4.524139E-22	-3.070734E-19
3.614434E+03	1.106241E-21	-3.123739E-19
3.624337E+03	1.757120E-21	-3.170623E-19
3.634239E+03	2.429686E-21	-3.208179E-19
3.644142E+03	3.119429E-21	-3.237017E-19
3.654044E+03	3.822123E-21	-3.257694E-19
3.663947E+03	4.502787E-21	-3.273247E-19
3.673849E+03	5.188676E-21	-3.281298E-19
3.683752E+03	5.876519E-21	-3.282413E-19
3.693654E+03	6.563386E-21	-3.277160E-19
3.703557E+03	7.213298E-21	-3.267600E-19
3.713460E+03	7.856674E-21	-3.252273E-19
3.723362E+03	8.491036E-21	-3.231556E-19
3.733265E+03	9.114489E-21	-3.205963E-19
3.743167E+03	9.690149E-21	-3.176915E-19
3.753070E+03	1.025102E-20	-3.143471E-19
3.762972E+03	1.079567E-20	-3.106038E-19
3.772875E+03	1.132274E-20	-3.064974E-19
3.782777E+03	1.179419E-20	-3.021104E-19
3.792680E+03	1.224571E-20	-2.974040E-19
3.802583E+03	1.267639E-20	-2.924094E-19
3.812485E+03	1.308548E-20	-2.871578E-19
3.822388E+03	1.343371E-20	-2.816792E-19
3.832290E+03	1.375898E-20	-2.759766E-19
3.842193E+03	1.406087E-20	-2.700772E-19
3.852095E+03	1.433903E-20	-2.640061E-19
3.861998E+03	1.455292E-20	-2.577471E-19
3.871900E+03	1.474248E-20	-2.513422E-19
3.881803E+03	1.490742E-20	-2.448109E-19
3.891706E+03	1.504771E-20	-2.381749E-19
3.901608E+03	1.512194E-20	-2.313821E-19
3.911511E+03	1.517146E-20	-2.245044E-19
3.921413E+03	1.519602E-20	-2.175549E-19
3.931316E+03	1.519581E-20	-2.105528E-19
3.941218E+03	1.512878E-20	-2.034150E-19
3.951121E+03	1.503721E-20	-1.962379E-19
3.961024E+03	1.492099E-20	-1.890334E-19
3.970926E+03	1.478026E-20	-1.818148E-19
3.980829E+03	1.457297E-20	-1.744767E-19
3.990731E+03	1.434181E-20	-1.671366E-19
4.000634E+03	1.408661E-20	-1.598025E-19
4.010536E+03	1.380747E-20	-1.524852E-19
4.020439E+03	1.346303E-20	-1.450616E-19
4.030341E+03	1.309554E-20	-1.376641E-19
4.040244E+03	1.270501E-20	-1.303013E-19
4.050147E+03	1.229142E-20	-1.229807E-19
4.060049E+03	1.181490E-20	-1.155668E-19
4.069952E+03	1.131656E-20	-1.082038E-19
4.079854E+03	1.079634E-20	-1.008983E-19
4.089757E+03	1.025420E-20	-9.365685E-20
4.099659E+03	9.652848E-21	-8.633659E-20
4.109562E+03	9.031275E-21	-7.908946E-20
4.119464E+03	8.389535E-21	-7.192223E-20
4.129367E+03	7.727462E-21	-6.483960E-20
4.139270E+03	7.011268E-21	-5.769367E-20
4.149172E+03	6.277087E-21	-5.064326E-20
4.159075E+03	5.524813E-21	-4.369317E-20
4.168977E+03	4.754427E-21	-3.684882E-20
4.178880E+03	3.936858E-21	-2.996023E-20
4.188782E+03	3.104117E-21	-2.318916E-20
4.198685E+03	2.256150E-21	-1.654032E-20
4.208587E+03	1.392993E-21	-1.001906E-20
4.218490E+03	4.917645E-22	-3.476799E-21
4.228393E+03	-4.210016E-22	2.924900E-21
4.238295E+03	-1.345216E-21	9.180770E-21
4.248198E+03	-2.280786E-21	1.528556E-20
4.258100E+03	-3.242652E-21	2.138265E-20
4.268003E+03	-4.211212E-21	2.731317E-20
4.277905E+03	-5.186292E-21	3.307184E-20
4.287808E+03	-6.167539E-21	3.865230E-20
4.297711E+03	-7.159911E-21	4.418875E-20
4.307613E+03	-8.152478E-21	4.952811E-20
4.317516E+03	-9.144822E-21	5.466438E-20
4.327418E+03	-1.013678E-20	5.959311E-20
4.337321E+03	-1.112116E-20	6.443588E-20
4.347223E+03	-1.209851E-20	6.905341E-20
4.357126E+03	-1.306847E-20	7.344060E-20
4.367028E+03	-1.403047E-20	7.759122E-20
4.376931E+03	-1.496309E-20	8.161256E-20
4.386834E+03	-1.588002E-20	8.537862E-20
4.396736E+03	-1.678078E-20	8.888443E-20
4.406639E+03	-1.766480E-20	9.212439E-20
4.416541E+03	-1.849268E-20	9.518184E-20
4.426444E+03	-1.929475E-20	9.795315E-20
4.436346E+03	-2.007062E-20	1.004343E-19
4.446249E+03	-2.081941E-20	1.026190E-19
4.456151E+03	-2.148111E-20	1.045646E-19
4.466054E+03	-2.210601E-20	1.061957E-19
4.475957E+03	-2.269299E-20	1.075052E-19
4.485859E+03	-2.324144E-20	1.084890E-19
4.495762E+03	-2.366914E-20	1.091820E-19
4.505664E+03	-2.404749E-20	1.095310E-19
4.515567E+03	-2.437587E-20	1.095323E-19
4.525469E+03	-2.465334E-20	1.091809E-19
4.535372E+03	-2.477373E-20	1.084912E-19
4.545274E+03	-2.483212E-20	1.074339E-19
4.555177E+03	-2.482785E-20	1.060057E-19
4.565080E+03	-2.476001E-20	1.042026E-19
4.574982E+03	-2.449750E-20	1.020233E-19
4.584885E+03	-2.416013E-20	9.945726E-20
4.594787E+03	-2.374765E-20	9.650335E-20
4.604690E+03	-2.325968E-20	9.316006E-20
4.614592E+03	-2.253851E-20	8.941210E-20
4.624495E+03	-2.173126E-20	8.526881E-20
4.634398E+03	-2.083753E-20	8.072882E-20
4.644300E+03	-1.985758E-20	7.579362E-20
4.654203E+03	-1.860814E-20	7.044399E-20
4.664105E+03	-1.726309E-20	6.469936E-20
4.674008E+03	-1.582314E-20	5.856285E-20
4.683910E+03	-1.428915E-20	5.203806E-20
4.693813E+03	-1.245181E-20	4.510460E-20
4.703715E+03	-1.051269E-20	3.778954E-20
4.713618E+03	-8.473378E-21	3.009881E-20
4.723521E+03	-6.335253E-21	2.203769E-20
4.733423E+03	-3.864816E-21	2.011481E-20
4.743326E+03	-1.290668E-21	1.809214E-20
4.753228E+03	1.384697E-21	1.597142E-20
4.763131E+03	4.158552E-21	1.375505E-20
4.773033E+03	7.277413E-21	2.331532E-20
4.782936E+03	1.049570E-20	3.317937E-20
4.792838E+03	1.380941E-20	4.333495E-20
4.802741E+03	1.721426E-20	5.376889E-20
4.812644E+03	2.095162E-20	6.414826E-20
4.822546E+03	2.477536E-20	7.476217E-20
4.832449E+03	2.868006E-20	8.559568E-20
4.842351E+03	3.265934E-20	9.663097E-20
4.852254E+03	3.694176E-20	1.074961E-19
4.862156E+03	4.128770E-20	1.185110E-19
4.872059E+03	4.568914E-20	1.296553E-19
4.881961E+03	5.013810E-20	1.409087E-19
4.891864E+03	5.484289E-20	1.518561E-19
4.901767E+03	5.957637E-20	1.628508E-19
4.911669E+03	6.432798E-20	1.738679E-19
4.921572E+03	6.908664E-20	1.848814E-19
4.931474E+03	7.403594E-20	1.954385E-19
4.941377E+03	7.896527E-20	2.059217E-19
4.951279E+03	8.386192E-20	2.163034E-19
4.961182E+03	8.871029E-20	2.265491E-19
4.971085E+03	9.366582E-20	2.361768E-19
4.980987E+03	9.853837E-20	2.455931E-19
4.990890E+03	1.033113E-19	2.547642E-19
5.000792E+03	1.079684E-19	2.636576E-19
5.010695E+03	1.126281E-19	2.717568E-19
5.020597E+03	1.171281E-19	2.794962E-19
5.030500E+03	1.214479E-19	2.868359E-19
5.040402E+03	1.255682E-19	2.937401E-19
5.050305E+03	1.295744E-19	2.996794E-19
5.060208E+03	1.333288E-19	3.050968E-19
5.070110E+03	1.368100E-19	3.099554E-19
5.080013E+03	1.399951E-19	3.142144E-19
5.089915E+03	1.429431E-19	3.173472E-19
5.099818E+03	1.455380E-19	3.197997E-19
5.109720E+03	1.477548E-19	3.215311E-19
5.119623E+03	1.495669E-19	3.224968E-19
5.129525E+03	1.510140E-19	3.221996E-19
5.139428E+03	1.519972E-19	3.210672E-19
5.149331E+03	1.524901E-19	3.190596E-19
5.159233E+03	1.524663E-19	3.161367E-19
5.169136E+03	1.519458E-19	3.118431E-19
5.179038E+03	1.508469E-19	3.065745E-19
5.188941E+03	1.491430E-19	3.002938E-19
5.198843E+03	1.468104E-19	2.929696E-19
5.208746E+03	1.438507E-19	2.842037E-19
5.218648E+03	1.402030E-19	2.743525E-19
5.228551E+03	1.358398E-19	2.633804E-19
5.238454E+03	1.307357E-19	2.512558E-19
5.248356E+03	1.248939E-19	2.376850E-19
5.258259E+03	1.182580E-19	2.229426E-19
5.268161E+03	1.108058E-19	2.070050E-19
5.278064E+03	1.025146E-19	1.898474E-19
5.285410E+03	6.330852E-20	1.164413E-19
5.285609E+03	6.331597E-20	1.164337E-19
5.287193E+03	6.216689E-20	1.141547E-19
5.287589E+03	6.200131E-20	1.138095E-19
5.287787E+03	6.200007E-20	1.137863E-19
5.287985E+03	6.199145E-20	1.137495E-19
5.288777E+03	6.148449E-20	1.127364E-19
5.289966E+03	6.063735E-20	1.110609E-19
5.290362E+03	6.044732E-20	1.106722E-19
5.290560E+03	6.043318E-20	1.106260E-19
5.290759E+03	6.041729E-20	1.105765E-19
5.291155E+03	6.021730E-20	1.101701E-19
5.291551E+03	6.002690E-20	1.097814E-19
5.291947E+03	5.982766E-20	1.093768E-19
5.292145E+03	5.978484E-20	1.092785E-19
5.293136E+03	5.906280E-20	1.078599E-19
5.293532E+03	5.884751E-20	1.074273E-19
5.294522E+03	5.813320E-20	1.060261E-19
5.294720E+03	5.808209E-20	1.059135E-19
5.294918E+03	5.802784E-20	1.057952E-19
5.295116E+03	5.796924E-20	1.056690E-19
5.295314E+03	5.790832E-20	1.055386E-19
5.295710E+03	5.767762E-20	1.050797E-19
5.295908E+03	5.760897E-20	1.049354E-19
5.296305E+03	5.736538E-20	1.044532E-19
5.296502E+03	5.729548E-20	1.043069E-19
5.296899E+03	5.704615E-20	1.038150E-19
5.297691E+03	5.645115E-20	1.026571E-19
5.298285E+03	5.603064E-20	1.018363E-19
5.298483E+03	5.595058E-20	1.016721E-19
5.299869E+03	5.482586E-20	9.950087E-20
5.300067E+03	5.473237E-20	9.931310E-20
5.300463E+03	5.446549E-20	9.879255E-20
5.301256E+03	5.384949E-20	9.760365E-20
5.301653E+03	5.357238E-20	9.706579E-20
5.302643E+03	5.277686E-20	9.553725E-20
5.303435E+03	5.214553E-20	9.432521E-20
5.304227E+03	5.151831E-20	9.312253E-20
5.304624E+03	5.123797E-20	9.258200E-20
5.305218E+03	5.077329E-20	9.169225E-20
5.305416E+03	5.065214E-20	9.145672E-20
5.305812E+03	5.036695E-20	9.090854E-20
5.306010E+03	5.024448E-20	9.067091E-20
5.306605E+03	4.977205E-20	8.976915E-20
5.307001E+03	4.947736E-20	8.920498E-20
5.307397E+03	4.917847E-20	8.863371E-20
5.307595E+03	4.904326E-20	8.837388E-20
5.308387E+03	4.838785E-20	8.712931E-20
5.309180E+03	4.772672E-20	8.587602E-20
5.309575E+03	4.741827E-20	8.528997E-20
5.309971E+03	4.710234E-20	8.469084E-20
5.310169E+03	4.695846E-20	8.441679E-20
5.310367E+03	4.681053E-20	8.413547E-20
5.310565E+03	4.666022E-20	8.384999E-20
5.310961E+03	4.633578E-20	8.323656E-20
5.311753E+03	4.566077E-20	8.196425E-20
5.312150E+03	4.533219E-20	8.134459E-20
5.312348E+03	4.517984E-20	8.105642E-20
5.312547E+03	4.501917E-20	8.075344E-20
5.313537E+03	4.415208E-20	7.912601E-20
5.315121E+03	4.275364E-20	7.650788E-20
5.315715E+03	4.223640E-20	7.554100E-20
5.315913E+03	4.206946E-20	7.522874E-20
5.316904E+03	4.119014E-20	7.358953E-20
5.317499E+03	4.067020E-20	7.262071E-20
5.317697E+03	4.050109E-20	7.230555E-20
5.319677E+03	3.872369E-20	6.900680E-20
5.319875E+03	3.854504E-20	6.867598E-20
5.320073E+03	3.836856E-20	6.834909E-20
5.320272E+03	3.819416E-20	6.802604E-20
5.320668E+03	3.783442E-20	6.736080E-20
5.320865E+03	3.765597E-20	6.703096E-20
5.321262E+03	3.729094E-20	6.635689E-20
5.321460E+03	3.710541E-20	6.601471E-20
5.321657E+03	3.692431E-20	6.568062E-20
5.323242E+03	3.548390E-20	6.302672E-20
5.323836E+03	3.493715E-20	6.202167E-20
5.324035E+03	3.474825E-20	6.167512E-20
5.324629E+03	3.419880E-20	6.066682E-20
5.324827E+03	3.400691E-20	6.031548E-20
5.325025E+03	3.381366E-20	5.996182E-20
5.325223E+03	3.361943E-20	5.960656E-20
5.325421E+03	3.342322E-20	5.924792E-20
5.325619E+03	3.322572E-20	5.888712E-20
5.325817E+03	3.302760E-20	5.852534E-20
5.326015E+03	3.282793E-20	5.816093E-20
5.326213E+03	3.262701E-20	5.779447E-20
5.326807E+03	3.206482E-20	5.676769E-20
5.327005E+03	3.186147E-20	5.639742E-20
5.327997E+03	3.093721E-20	5.471158E-20
5.328195E+03	3.073203E-20	5.433887E-20
5.328789E+03	3.016472E-20	5.330679E-20
5.328987E+03	2.995683E-20	5.292976E-20
5.329977E+03	2.902924E-20	5.124422E-20
5.330175E+03	2.882074E-20	5.086691E-20
5.331363E+03	2.770747E-20	4.884895E-20
5.332156E+03	2.695277E-20	4.748389E-20
5.332354E+03	2.674228E-20	4.710451E-20
5.332552E+03	2.653040E-20	4.672284E-20
5.332750E+03	2.631824E-20	4.634081E-20
5.333146E+03	2.592441E-20	4.563076E-20
5.333344E+03	2.571158E-20	4.524795E-20
5.333741E+03	2.531643E-20	4.453635E-20
5.334334E+03	2.474132E-20	4.350101E-20
5.334532E+03	2.452700E-20	4.311635E-20
5.334730E+03	2.431308E-20	4.273252E-20
5.336513E+03	2.264994E-20	3.974446E-20
5.337305E+03	2.188933E-20	3.838204E-20
5.337701E+03	2.149215E-20	3.767192E-20
5.337899E+03	2.127790E-20	3.728961E-20
5.338890E+03	2.033376E-20	3.560271E-20
5.339286E+03	1.993576E-20	3.489323E-20
5.340475E+03	1.880710E-20	3.288196E-20
5.340673E+03	1.859327E-20	3.250222E-20
5.341267E+03	1.801333E-20	3.147137E-20
5.341465E+03	1.779866E-20	3.109071E-20
5.341861E+03	1.740082E-20	3.038474E-20
5.343049E+03	1.627013E-20	2.837952E-20
5.343247E+03	1.605517E-20	2.799950E-20
5.343645E+03	1.565728E-20	2.729572E-20
5.343843E+03	1.544188E-20	2.691533E-20
5.344041E+03	1.522790E-20	2.653755E-20
5.344437E+03	1.483056E-20	2.583577E-20
5.344635E+03	1.461779E-20	2.546051E-20
5.345031E+03	1.422246E-20	2.476295E-20
5.346218E+03	1.309446E-20	2.277420E-20
5.346416E+03	1.288131E-20	2.239943E-20
5.348001E+03	1.138156E-20	1.976298E-20
5.348397E+03	1.098648E-20	1.907005E-20
5.348595E+03	1.077684E-20	1.870278E-20
5.348992E+03	1.038230E-20	1.801155E-20
5.349190E+03	1.017260E-20	1.764457E-20
5.349586E+03	9.779718E-21	1.695696E-20
5.350180E+03	9.203707E-21	1.594956E-20
5.351369E+03	8.074149E-21	1.397695E-20
5.351567E+03	7.868705E-21	1.361886E-20
5.351765E+03	7.664012E-21	1.326219E-20
5.351963E+03	7.459063E-21	1.290520E-20
5.352557E+03	6.886870E-21	1.190877E-20
5.352953E+03	6.499237E-21	1.123443E-20
5.353547E+03	5.928583E-21	1.024245E-20
5.353745E+03	5.727320E-21	9.892952E-21
5.353943E+03	5.526647E-21	9.544602E-21
5.354538E+03	4.958576E-21	8.558896E-21
5.354736E+03	4.760141E-21	8.214895E-21
5.355132E+03	4.378877E-21	7.554190E-21
5.355529E+03	3.998640E-21	6.895737E-21
5.356321E+03	3.252647E-21	5.605216E-21
5.356519E+03	3.058921E-21	5.270418E-21
5.357310E+03	2.316814E-21	3.988913E-21
5.357905E+03	1.757462E-21	3.024226E-21
5.358103E+03	1.568067E-21	2.697831E-21
5.358300E+03	1.380655E-21	2.374965E-21
5.359291E+03	4.602051E-22	7.909180E-22
5.359490E+03	2.744141E-22	4.715284E-22
5.360084E+03	-2.759113E-22	-4.738452E-22
5.360480E+03	-6.410301E-22	-1.100496E-21
5.360678E+03	-8.214978E-22	-1.410062E-21
5.360876E+03	-1.000917E-21	-1.717718E-21
5.361074E+03	-1.179163E-21	-2.023248E-21
5.361470E+03	-1.537897E-21	-2.637823E-21
5.362064E+03	-2.077001E-21	-3.560571E-21
5.363253E+03	-3.161772E-21	-5.414324E-21
5.363847E+03	-3.696862E-21	-6.327218E-21
5.364045E+03	-3.864186E-21	-6.612403E-21
5.364243E+03	-4.030368E-21	-6.895529E-21
5.365036E+03	-4.741913E-21	-8.107058E-21
5.365234E+03	-4.904081E-21	-8.382803E-21
5.365432E+03	-5.064609E-21	-8.655638E-21
5.365828E+03	-5.404630E-21	-9.233417E-21
5.366026E+03	-5.561794E-21	-9.500207E-21
5.367215E+03	-6.621790E-21	-1.129861E-20
5.367611E+03	-6.954778E-21	-1.186250E-20
5.367809E+03	-7.104115E-21	-1.211503E-20
5.368403E+03	-7.612954E-21	-1.297578E-20
5.368799E+03	-7.939429E-21	-1.352737E-20
5.369392E+03	-8.441886E-21	-1.437570E-20
5.370186E+03	-9.125504E-21	-1.552862E-20
5.370581E+03	-9.442064E-21	-1.606155E-20
5.370780E+03	-9.576062E-21	-1.628656E-20
5.371770E+03	-1.042788E-20	-1.771934E-20
5.371968E+03	-1.055632E-20	-1.793437E-20
5.372166E+03	-1.068244E-20	-1.814537E-20
5.372364E+03	-1.080702E-20	-1.835368E-20
5.372562E+03	-1.092974E-20	-1.855877E-20
5.372760E+03	-1.105162E-20	-1.876234E-20
5.372958E+03	-1.117050E-20	-1.896075E-20
5.373156E+03	-1.128779E-20	-1.915640E-20
5.374146E+03	-1.210724E-20	-2.052858E-20
5.374543E+03	-1.239384E-20	-2.100697E-20
5.375336E+03	-1.303154E-20	-2.207195E-20
5.375732E+03	-1.331216E-20	-2.253917E-20
5.375930E+03	-1.341291E-20	-2.270567E-20
5.376128E+03	-1.351177E-20	-2.286891E-20
5.376524E+03	-1.378247E-20	-2.331869E-20
5.376722E+03	-1.387640E-20	-2.347341E-20
5.376920E+03	-1.396857E-20	-2.362507E-20
5.377118E+03	-1.405797E-20	-2.377199E-20
5.377316E+03	-1.414638E-20	-2.391719E-20
5.377514E+03	-1.423141E-20	-2.405664E-20
5.378108E+03	-1.465479E-20	-2.475895E-20
5.378505E+03	-1.490494E-20	-2.517252E-20
5.378703E+03	-1.498151E-20	-2.529729E-20
5.379297E+03	-1.539367E-20	-2.597928E-20
5.379693E+03	-1.563295E-20	-2.637359E-20
5.379891E+03	-1.569945E-20	-2.648102E-20
5.380684E+03	-1.626782E-20	-2.741998E-20
5.381278E+03	-1.666244E-20	-2.807004E-20
5.381476E+03	-1.671842E-20	-2.815928E-20
5.381871E+03	-1.693826E-20	-2.851933E-20
5.382069E+03	-1.698813E-20	-2.859818E-20
5.382268E+03	-1.703678E-20	-2.867491E-20
5.382467E+03	-1.708313E-20	-2.874774E-20
5.382862E+03	-1.728870E-20	-2.908325E-20
5.383060E+03	-1.732876E-20	-2.914539E-20
5.384248E+03	-1.817749E-20	-3.054001E-20
5.384446E+03	-1.820657E-20	-3.058338E-20
5.384644E+03	-1.823377E-20	-3.062357E-20
5.384842E+03	-1.825825E-20	-3.065919E-20
5.385040E+03	-1.828000E-20	-3.069020E-20
5.385238E+03	-1.830076E-20	-3.071953E-20
5.386031E+03	-1.879251E-20	-3.152232E-20
5.386230E+03	-1.880445E-20	-3.153669E-20
5.386428E+03	-1.881419E-20	-3.154738E-20
5.387022E+03	-1.913218E-20	-3.206331E-20
5.387220E+03	-1.913314E-20	-3.205916E-20
5.387418E+03	-1.913379E-20	-3.205451E-20
5.387616E+03	-1.912891E-20	-3.204058E-20
5.387814E+03	-1.912036E-20	-3.202052E-20
5.388606E+03	-1.956588E-20	-3.274310E-20
5.388804E+03	-1.954975E-20	-3.271024E-20
5.389200E+03	-1.968080E-20	-3.291772E-20
5.389398E+03	-1.965816E-20	-3.287396E-20
5.389992E+03	-1.993076E-20	-3.331190E-20
5.390191E+03	-1.990073E-20	-3.325574E-20
